0
-0.01730966991559281
0.018650706989863708
-0.07464708975352799
-0.03463996569041341
0.003607670048407323
-0.011118246116007096
0.024588835265408393
0.015244766025466958
0.010226465816301916
0.007599573753817347
-0.001113572421829769
0.006346408127436657
-0.021283563345678387
0.013233169583002894
-0.010980101623015139
-0.017515205861456915
0.013079599407829892
-0.030039543225250844
-0.09635014373144019
-0.022793975493739706
0.02636783350990114
0.006058037053950925
0.022633952713313144
-0.0038516636903659675
-0.12012802223593295
-0.025758933395535085
-0.010684189573011541
-0.01785145113484895
-0.007646047112604243
-0.01473196506152006
-0.02016360224440977
-0.01976655211618364
0.18074698645644036
0.13048462668437333
-0.03195848365069525
0.03666021267991916
-0.025016107419110093
-0.0041732399056596875
-0.02412258001949745
0.018344115124947477
-0.002277759702158224
0.008068152712678408
0.017118792062710806
-0.006237071765853015
-0.020387895144335328
0.13502204162958203
0.04221953410351441
-0.000603859512407334
0.04096559365626866
-0.021349782723609486
-0.007449826237577474
-0.0028562878267199003
0.00439684233667949
0.020752702028225444
0.003276079958132601
-0.006464742523234059
0.011390014557047703
-0.005263994217730098
0.05175059242867758
-0.0034526612533954102
-0.014436241706104407
-0.02910950478168934
0.02971499851078248
-0.0512864288109006
-0.15354140527989601
0.036359324091373324
0.01316097414528813
-0.004825347242355329
0.0024586000175911876
-0.0020943774793957272
-0.022843749278138915
-0.016953006315248206
0.0029222413261659978
0.012966911289951763
-0.0013246837980166193
0.01842315639045834
-0.018096525813040887
-0.02470724885549992
-0.06834359885825331
-0.008630487662639765
0.0026689702657319825
-0.023669711798021596
0.031390613442595555
0.0641645402766058
-0.007234851463081392
-0.0020601183199609745
0.038695121175192644
0.08070866232657416
0.03221228674865295
0.01299993379125173
-0.012871360587799939
0.008278968872741937
0.02321392621534081
-0.0013247748339868105
-0.04987291809908864
0.016590025812281296
-0.003421970903035844
0.009907767167047212
0.040273543214098
0.0143828977310711
-0.02621620645984889
-0.014338321712844172
0.024915986247734164
-0.014345322778237298
0.016112536313623416
0.03129235680845119
-0.024635864611222354
-0.12404440369628399
-0.06931700230253304
-0.07277975847872448
-0.11538934247532537
0.03826044709661588
-0.037366504097951225
0.02285906753504471
-0.0014036093155483588
0.05042348560705711
0.011438698341593207
0.08265124602482138
-0.10070399886391464
-0.16157935507002089
-0.031608438303648755
-0.004915766381993898
0.04801619953597513
-0.01245093837340323
0.09077114081046776
0.07261012921274068
-0.04250341605557755
0.00602275390198999
0.04678858904594064
0.16327449134109176
-0.01888773747767332
-0.005152342831260422
-0.031825217815167166
0.02849597429932175
-0.04044705586757336
-2.8984855454734193e-05
-0.0022223615555162623
-0.004382236037867092
0.03147198421862017
0.03807292505633894
0.0008852105083034709
-0.0023561445221432008
-0.01849723489724475
0.0011566730899457748
-0.06690959216900934
-0.006775018937862818
-0.01251640455722368
-0.009045418319577858
0.018625379788802316
0.026269300585449344
0.007610552254418113
0.005531828726166559
0.028831693664911066
0.026868958459852228
-0.02650456211043537
0.007133154414926031
0.01142716124825255
0.019895227644583974
0.0057675822603422645
0.010192350450020404
0.02091261473024366
0.044793603709491744
0.014037454348652594
-0.014490535630240166
0.019222353327094405
0.040732273920270554
-0.031715580791833925
0.007610530187283456
-0.02970153756806214
0.036079101573629827
-0.06613559676152984
-0.09783243701022688
0.01880980819366096
-0.004929532045357987
-0.004333818255261017
0.02745615330389535
0.029836869666249204
0.002945777566507904
0.00994397585897664
0.00755744984685538
-0.03493067755188988
0.05664645501770283
0.035495879461451205
-0.00593547637777571
0.00449877913168302
0.013866932823972488
0.02752142222685327
-0.01317390739337783
-0.020438089113890237
0.02096671166817384
0.02750240201979475
-0.040438947665209786
-0.04990670736556614
0.00858732807400243
0.007675450495716843
0.022322750380064933
0.029422040977014566
0.02788792179576201
-0.009604191165851747
0.030987969342320495
-0.0470328511318135
-0.24289297819369332
0.014929422911904525
-0.0008770412825633444
0.018924367030120237
-0.01456676288617547
0.013868114668214146
-0.026889870832491624
-0.03489013776264957
-0.05980290548703322
0.05906152096409426
-0.11505782894344485
-0.18554588547009213
0.04313813435971608
-0.025775594136490238
0.07680093237506055
0.06803893752336286
0.008306611452834718
0.00989057158720682
0.0372639909035346
0.010260647798522052
-0.03311443298300059
0.05357747722783995
0.020652890899379252
0.024994485745972107
0.0173977696795595
-0.017590452788336982
0.02696207668426131
-0.015730811439353558
0.04899793381139796
0.03467364716988728
-0.04550577540105256
-0.006243005628550426
-0.04023480490859926
0.02628083417602572
0.07235838065513728
-0.026089643556421013
-0.031969405958353854
-0.05888977736240163
0.04261978119246799
0.06852456728260792
-0.02225378145012688
-0.008061651772089246
0.008168297595681117
0.021314113244202765
-0.0016250105904944752
-0.023279186530291658
0.005279228196261958
-0.008793245748081454
-0.023858819532738912
0.04907524348645411
0.035297693438451884
-0.035260646819327994
-0.016353613309920176
0.02266455324621214
-0.006086220137964049
0.01474574659455612
0.0030448706667013945
0.02920724872225992
0.04604893386902929
-0.01718589500532291
-0.008766799846892798
0.15810117260374776
0.028143325606028186
-0.011393282734445613
-0.004513714842179129
-0.03763833056856022
-0.04150094898129669
-0.045313809376038815
0.029403858115462516
-0.03470304064226132
-0.008915372550933704
-0.002935207125427228
-0.006210307344900392
-0.04699764338514234
-0.02173525409379958
-0.009900504680823666
-0.03468682577932927
-0.036474240206036755
-0.006278391029366669
0.047120217353433455
0.03883741654494665
0.03614226184304994
0.022226662248066312
-0.03064528190891263
0.0003676948663709634
-0.0011198269723810695
0.03198370276999849
-0.013753998079577936
-0.02081500754486813
-0.007415037604835926
0.0068534833009569985
-0.010381272084235007
-0.0010702330246863412
0.008153280060717262
-0.04162089590608239
0.003403696596894771
0.0339951884253823
0.003165452939997778
-0.00618419615100682
-0.0574303136767216
0.01354607281898878
-0.009607585301596937
0.05027579591857639
-0.008778064222692481
0.01998397413566598
-0.12219159287543342
-0.01605979569547053
0.0887034738032466
-0.02678416905618054
0.01901799230503441
0.013814539678686849
0.04068423850285454
-0.007976214427851683
0.003456436269852704
0.04029881612989128
-0.03331284258032447
-0.030820361663465343
-0.017897379706970837
-0.01088875741003322
0.016668975810753
-0.03125761904755375
-0.027877171856230815
-0.0004287206024750685
0.039727575936879166
-0.007891434158502719
-0.021781671393420566
-0.019557264655282344
0.0042922466347178456
0.022897209518610677
0.0824571566485087
0.08916667088875185
-0.0041152266339127535
-0.008062455991131222
-0.028208108537306646
0.05429141758429599
-0.021181302730493283
0.014749783152323745
0.026233260551328137
-0.02631627281476978
0.002842462188456141
-0.011594723666632488
-0.07756655892548338
0.026079623981182153
-0.019237252368572107
-0.004828120717357159
0.019943812179815314
0.03131500205055381
0.044936763376287624
0.00600189217333134
-0.04145274478651038
-0.012073786689449023
-0.12123278644236604
-0.017457626364831867
-0.05728838373996895
0.013771496726199666
-0.04203599948662733
-0.05650966374976511
0.023514099666363204
0.041874952741465105
0.012239502238164557
0.03417419933897516
0.0037904652182673437
0.013448314854282904
-0.0050938302860709305
0.04073643504257936
0.09087399235394926
-0.010625509926478904
0.013570716317099347
-0.04924622173774129
-0.0003806555104020614
-0.019284982521527633
-0.04189639819980835
0.005150841741306655
-0.0095026681400636
0.01227723979761662
0.0007323465178633741
-0.016209879276658377
-0.008617389741461099
0.03906966602100805
0.01966916990856277
-0.04644826302216954
-0.05719254201522022
-0.031426799055482256
-0.0054503695008468545
-0.0007114892112290486
-0.01652204809163
0.0036604733451219215
-0.059219421339005276
0.04510540423386043
0.11604323179290324
-0.004827208417606735
0.026192601746484183
0.004037091710039604
-0.00947201327038406
0.004113905046030592
-0.003057857013892236
-0.02640702918875883
0.013322090502663395
-0.002988884918007169
0.06067104354582145
-0.02103534962544152
-0.022731117069904053
0.005837686729315854
0.030059210131316086
0.0011455181487488985
0.01150377787395724
-0.035390024005799305
0.11699006278445766
0.004929430617528596
0.06898434810957157
0.07380586448155915
-0.032769638250067415
0.025625248174078876
-0.025174199585583097
-0.020722680150892146
0.004601151099820279
-0.02131880876000044
-0.016531472369001446
-0.008707004608988027
-0.022640536772361483
-0.03203920466380752
0.00046185281601859694
0.0031108913284923836
-0.04002292813240371
-0.00385908906597349
-0.025575045707713486
-0.004689607087800758
0.009892262164531486
0.011094238464321806
-0.04003004729233493
0.012240888029777406
0.0031135346977859022
0.020804794648382873
-0.023898222363459145
0.015693607428307086
-0.07292577417523803
-0.0816559802566694
0.013914551529602191
-0.02207533796190319
0.006731930341949322
0.008060604090358138
-0.04079154552868967
-0.02429750751097424
0.06489319319602488
0.0010060264334733403
-0.006283727518669335
0.002820522772699884
0.07781745362619645
0.060600091466178244
0.0039634589411951075
-0.0027058273407238593
-0.02421910023974891
-0.02714719115156848
0.014521129973223492
0.016423303546757265
-0.002033853024885889
-0.02382582638497191
-0.011755160863328807
0.008843944312369335
-0.015419328481230036
0.002138077755007667
-0.01660960748273111
0.01046534100290726
-0.015047648463237423
0.04185503653528523
0.12075941469269302
0.030485343831762574
-0.013580255748768536
0.034239979624449156
-0.019961281857400783
0.021144061418091983
-0.012438899970458378
0.02184452011672283
-0.00508972419956996
-0.022601260401753392
-0.007887778252988639
0.0730756910781665
-0.06500818931734144
-0.04552748665591922
0.01669290220562531
0.036242634701023076
-0.03429804145410051
-0.19120707356278158
0.02440212099078326
-0.023571377107117295
-0.006770118141216055
0.018802221969163608
0.07302320253073036
-0.06437931375531251
0.054342562316552726
0.0374963094921011
0.004536247432790637
-0.03203491813168875
0.020802786082351036
0.02695577131173652
-0.053091511989931506
0.0034239078618852107
0.008125603436466369
-0.003518284705300016
0.017504155247715668
0.020022730373535424
0.009873029278085801
0.0032987041691510976
0.014187802939471262
-0.04160290451658215
-0.01846126091589941
0.03218423098843879
-0.034593858764463296
-0.07660251465394892
-0.008562963046023421
-0.06357065166347206
0.0023808006196416906
-0.02367765514962
0.0026249028318852804
0.06437888747005586
-0.02404273654548291
-0.02711815094936306
0.020682799510948608
-0.02599869820535606
0.048139962607722964
0.03137159538902117
0.009800802185003727
0.026881353908068558
0.03975546977286284
-0.02424913619379909
-0.0551263590234546
-0.00405125787500565
0.04797952582118085
0.0333049359053726
-0.006816486251166328
-0.004067489367474691
0.0014021628769730866
-0.0020534903130304564
0.036990924217685225
0.003400331711923295
0.01852136685628864
-0.0019498242033635946
0.002458686300878062
0.006370594617187103
-0.017857334317977813
-0.02675329663819995
-0.011750606362287625
-0.031032787501781546
0.006945347244548255
0.013746470963534783
-0.005599744605217059
-0.007484584875805894
0.009427972378139445
-0.026880856616576965
0.03681643904125531
-7.834650885470185e-05
-0.0718768568155683
-0.04504162093641539
-0.04238730009529695
0.04234124506665312
0.03411369305217969
-0.00901417366762949
0.034789557532196536
0.025162822680964227
-0.005544900473808796
0.00025277135687731014
0.09804415908967413
0.03441537202514104
0.014573010887428222
0.012140799351111727
-0.03396362172200076
-0.024917588120781455
-0.006720478066904028
0.058268915326173995
0.004834254052789602
0.013648844057451629
0.02392285264573625
0.01665482648224118
-0.05304244403079702
-0.03213148864621109
-0.011887113803129944
0.020564653042246757
-0.0019383311288413702
0.03670754010008707
0.03045084304747625
0.038898833967279146
0.06030716366854773
0.0003811005219306181
0.023480768277673803
-0.03987883285625548
-0.03016062039934787
-0.06061910126728881
-0.15986345732090632
0.04180770146988937
-0.06691488811301705
0.02661894091922885
0.05720933256405625
-0.009005656498905884
0.029505775043311477
-0.03453773510257832
-0.058772543491949714
-0.014763360563633369
0.03692030274437907
-0.027421434352459292
0.0006537307196766772
-0.04732376074577313
-0.022922870889914182
0.010327862096886187
-0.033773833309938196
-0.05984251974625089
0.01992487266608099
0.012036299268850663
0.02079489931701887
0.003371691101550421
0.02594427356795875
-0.005781407957994714
0.028663907405072554
-0.02173553503783161
0.0025873776797996303
0.026602933750757625
0.015227439007993988
-0.0027686948635321875
0.0342544006663623
0.03852772598647082
0.039665635324224596
-0.05541264734327796
-0.05527015068071713
0.0792681445186339
0.016332036591927775
-0.015871440241206635
0.006925933302714964
-0.004756247532534707
0.012897998790696428
0.027669152357020336
0.0310717689174262
-0.015789730700883974
-0.11827252330393946
0.011975047042504836
-0.0007032983617360054
-0.008098371568735063
-0.04567574418549597
0.07881365095387086
0.018677572248722473
-0.0014053736237474605
0.03574988510705366
0.038601278808555455
0.012174443533139989
0.02296350830612123
-0.019849645644227563
-0.00637044513004023
-0.014173894080853405
-0.0060733933720238465
0.004765460872260993
-0.03606801995147359
-0.0031627964682188862
-0.20462749898032215
-0.12800467269439378
0.009099663402125277
0.025742850973143657
0.047346228166735733
0.001221451960692764
0.005811018908870897
0.015002552224078366
0.09297725952881107
0.047351914373071576
0.01600746968119454
-0.010971215575106219
0.07060101817538265
0.08349938607331554
-0.012437362453566294
-0.007674477065815279
-0.03446213531811746
0.024508305151240056
-0.0028857499473724712
0.0012031948326787845
0.011409690713851476
-0.05039357396292707
-0.0021283802717231622
-0.060895271528882015
0.02489305320264559
0.062123989523531126
-0.011650288289528627
-0.043115989446393874
0.0517244031581474
0.03617257121224564
-0.0397008158430892
0.010953142227444085
0.010240443715126876
0.014504123776085795
-0.008885496942963618
-0.003387580904469896
-0.0200827517943963
-0.03804953071145404
-0.032889453391910774
-0.006962635967462575
0.049642877818441615
0.002001109889286958
-0.021987703402039014
-0.0005642690110360571
0.016357278034804468
0.03592062209496336
0.1074547518821466
-0.00890382512633318
-0.09193169441238395
0.014279935050277694
-0.002034772311041196
0.01634746225893073
-0.021658195231988076
-0.15564745989541537
-0.006450364946576821
0.021876620083340525
0.00914633097981585
-0.04652349163519481
0.011661265335530756
-0.030766036764201983
-0.07819752725844135
0.022173449066028517
-0.021332418882545848
-0.04551845591991662
0.02715576214320158
-0.07639576869701144
-0.012240751360711741
0.009019733184369171
0.03146116480846266
-0.008403279405636387
0.08527455024512023
0.060739502799351454
-0.00015364352692573275
0.11042783104551429
-0.017364235608625593
0.05527277146232769
-0.03746216546518668
0.011002359789334714
0.015293178619775848
0.02077811597658775
-0.026043706311670075
-0.02617614580365807
0.011289564496533316
0.031189470660931425
0.04189133961846894
0.08895451866240488
0.04590879956000986
-0.020492403176764356
-0.042209156654721386
0.014495598451185174
-0.011263213308983978
-0.05006459925355322
-0.06673769928696924
-0.017493645232646963
-0.09333807081988788
0.0987631736094259
0.2663564936639422
-0.047512332795124415
-0.022551687832661413
-0.048665711874582074
-0.05128150078359663
-0.022039806303592865
-0.020484673453500996
-0.050302263142829325
-0.02027980492974943
0.0020545447860190022
-0.0025678889578568892
-0.01995288520475771
0.004317660209489658
0.035484363189159394
0.011257441497553254
-0.03684847628253161
0.010442971648592925
-0.04229109977716379
-0.03202292699417793
0.006040651775877711
0.0852449386893308
-0.02780846165012606
0.014582313215459834
-0.033767077497511254
-0.01528516725468718
-0.03224649541410442
0.005927612741943251
-0.017649955537240754
0.10877565587500093
0.05382117684776953
-0.02216436356708674
-0.0003306575917184132
-0.039950803328998155
-0.010077439449022374
-0.03382879569083372
0.007952983153079591
0.011852080553423766
-0.0029848424704629014
-0.04274629808257929
-0.02765483966499785
0.011730672913253139
-0.012259036442947575
0.03712357023470022
0.214955200209341
-0.0033740937544164172
-0.016184527270678088
-0.021082451571830467
-0.004840030045147079
-0.02516430601378152
-0.08083034283509578
0.05447302236017819
0.04873107295472521
-0.0731874448886122
-0.02078632917409229
-0.03497909480922325
-0.027043644103264083
0.015200469500384204
-0.002748360938019249
-0.003348923958303948
-0.035035101942423666
0.0067917089961549
-0.0349616960252473
-0.003939388821160691
0.060620634525280895
-0.005657943939690143
-0.012324680502482683
-0.035388181051846955
-0.0016156907670372338
-0.022826012850943454
0.01259933909391838
0.009725257894745638
0.004027096943584261
-0.01865045641766071
0.013869552172620293
0.15594500749321177
-0.01429636644715541
-0.00502634605454627
-0.019849188774231603
-0.02383187137505699
-0.011442341229551916
0.01345075416495595
-0.011843951790727277
-0.03816881903325545
-0.00829403451948619
0.015236159526552918
-0.020821441071986573
0.06829127826292754
0.03405233738360968
-0.009976592698570543
-0.02031651980506797
-0.0074120695872955215
-0.022499986720101756
-0.005364136472601132
0.036948666902435916
-0.03373439702929405
0.04864973699427684
0.005869332865195917
-0.020609597865464846
-0.018014318159713556
-0.057857709686204975
0.07538525864481418
0.03650493794256547
-0.020151384600376458
-0.031844459049355366
-0.05689887512563619
-0.0732539313092232
-0.016870342984562643
-0.006698077055925606
0.06218393543697383
0.09733783161194023
0.006134070364917299
-0.05424927932052139
0.20920795748601492
0.03803111417654225
-0.03817171562001483
-0.02324628690623528
-0.005219647502183201
0.00459639250663138
-0.01430449121046187
0.017966618812105987
0.0003716375526236428
-0.015732696621599533
-0.005296699320925283
-0.02411777958051467
0.03711950804415204
-0.13651276635096907
-0.1908823512158102
0.005068997555521763
0.01884389663624229
0.056680772120606446
-0.014753804727153
0.10775632261621242
0.06892659471379871
-0.02182311802460588
-0.007650147230685249
-0.007073632560844383
-0.005584027950034064
-0.011288139717743076
-0.017224611461394822
-0.019648959155808023
0.04460913321214443
-0.026184707057767924
0.07753231821469703
0.1182105250088465
-0.009332056809468163
0.03305317746100516
-0.04890498248011812
-0.026289770945084813
-0.0235274659988101
-0.011522997374799204
-0.011162415241793186
0.054862204888103845
0.02920580682114709
0.004527013834060537
-0.10289602528147312
-0.015802220754419113
0.007799518942748912
-0.036847857428024745
-0.06270893417644827
0.02542586424909125
-0.01795609384697485
-0.021161685035290062
0.013354905591028579
-0.01914947564802116
-0.013063188997352848
-0.025740851301674667
-0.004558344735989489
0.01500706512939957
-0.017645227550100506
-0.02628368193260229
-0.025934193013018757
0.05906015634809705
0.08502594102492184
-0.026928720667357797
-0.023858849198452874
-0.0008272287658443744
0.014076563686950672
0.003006450732653263
-0.009856750450084184
0.012546603179402066
-0.01573359697119282
-0.03839900097258954
-0.0003702099963009793
0.02518765031770071
-0.04202888114848628
-0.007233510379590765
-0.01262324426157522
-0.04211076592767644
-0.011178256902368497
-0.03427866631504232
0.03751620603698833
0.049149459887907795
0.1633840150110064
0.09079076412885417
-0.09843143772991443
-0.005080417464636805
-0.047771285301047024
0.005069127886625327
-0.04565117469796102
0.05466320327759792
-0.019150347750059537
-0.013032735006351567
-0.01197548640065869
-0.036687880354096945
0.035873618515940967
0.003944149760808958
-0.006218090238044582
-0.021958419595913204
-0.04032503962586847
0.0448558923775739
-0.0024398262858860726
-0.03893047034940213
-0.07994040744057536
0.08482902075645644
0.20674027185747254
0.1488628415919317
-0.029804574099327227
0.028184942949727388
0.033093768420993555
-0.026920589745543917
-0.018336634201955956
-0.03763857921728527
-0.043842028055989135
0.005700551215432093
0.028461276427984395
0.0055034374857359505
-0.01662643789635735
-0.016565348179302688
-0.04965034659696083
0.0179761280852415
-0.004471951190086808
-0.03462885044509063
-0.0329919235756444
0.2026118461270213
0.009434012305452636
-0.024453894559325565
-0.015123579329123713
-0.025575640268855036
0.0008377486180751848
0.0034373484532180046
0.0371511165235261
-0.006524908984587216
0.006701397469724454
-0.13141825248808647
-0.07180909291320929
0.016384951355453457
-0.01825127761697533
-0.019678147703236365
0.00027747820518195563
-0.0030631500374010212
-0.055535081725712816
0.060616198766884455
0.11162168961555528
-0.00644797660589523
0.019419849599976655
-0.007252117669435868
0.006550303021477007
-0.0786097001732262
-0.06404819500749115
0.00014035295394241183
-0.06128883322355031
-0.01164195273236934
-0.026380804430405875
0.011970996918260427
-0.0565268182595918
-0.02367842590654506
-0.0036178823284257894
0.01636594483691191
-0.0037113836508248003
-0.019297205305616096
0.0011384901646947921
-0.0005737030249626283
-0.018518755550463176
-0.01826885862554954
-0.02023460462165557
-0.023991483475837995
-0.03664967622672788
0.014923975750775132
-0.017856320801126067
-7.237188127763023e-06
0.07493709684217784
0.01029715782290586
-0.0006336056915129603
0.013093928764662468
0.057022863156181026
-0.012924435461487088
-0.005748751691281058
0.03724311051465606
0.018314387347747978
0.15154103192230034
0.042713911354833003
-0.10118412660432001
0.028031591516537023
0.03748590328184785
-0.007093097981988505
-0.01408065627931207
0.04225644368667579
0.12961598008849634
-0.01958679917295293
-0.037264160968176495
0.005417601809404782
0.0035299546933149034
-0.06083848853040634
-0.027065436149359617
0.047651564941501086
0.016048560586217057
-0.043897748900733766
-0.010353779345663675
0.004107051721796398
-0.007530886769106933
0.0034198388462107756
-0.016344342532664934
0.014385941273755525
-0.0013410930050030544
0.042021896849696656
0.001329885044314332
0.013459984249330101
0.015797793559038483
-0.026802281575122093
-0.0129093713271326
0.022744720748069807
-0.011387190081085692
-0.01410193968939986
0.045509883434078684
-0.02878460638952879
0.006726915409363497
0.0025664431943622076
-0.013905966714414736
0.008719626146191822
0.030649935132786587
-0.018618463274031053
0.012587322867785855
-0.171810588982701
-0.05294201095112282
0.011808753980403364
-0.0023592396325337424
0.014747275255501858
-0.016077023814529134
0.018400266167484195
0.021032363400686382
0.0017088332820609823
0.0096206175341454
0.013442669132046819
0.014506752908485115
-0.02286966662197952
-0.0038221815983951564
0.020901107231598
-0.014361075327231515
0.01851263599048885
0.011777051315610436
0.003407410884220162
0.040602404897209746
0.02059379881388498
-0.001971366948597425
-0.004958259751130113
-0.009148234007528252
0.008982010132996654
-0.000732616767810629
-0.03650316881600795
-0.03771012741331401
0.04879255734422219
0.025936481497404046
-0.03612737435817912
0.016664176700742023
0.012782736088300614
0.02429435238276321
-0.03704694946268858
-0.03712762563207366
0.0004594814329198265
-0.012411509934813544
-0.023471904944942588
-0.019362684771926923
-0.001584392066911734
-0.005836511107934899
0.012651660356872211
-0.014803358133197646
-0.0018400912909140256
-0.025067066537912158
-0.022263374755160808
0.026581852731441254
0.01220339750316985
0.027010854559949664
-0.006689734935157686
-0.024562081919051737
0.017907207026650176
0.07760511462414178
0.035995798749487606
0.007554866640102479
0.011491897497547724
-0.019595423930747487
0.04101439189858397
0.02662435590658004
-0.07807874415293078
0.036874736001972545
0.021524401300843047
-0.009454297440857956
-0.021167584225966766
0.0218335268754159
0.0056509335103889224
0.030216708421624945
-0.022889313463244836
-0.042195915665351406
-0.10558766142049905
-0.07038328620598039
0.015512470158869028
-0.014518657536535669
0.026138015299434998
-0.009806462644603577
-0.04778439787872174
0.0025769243833722306
0.027259377439034664
-0.006890944802075464
-0.00020225405335027558
0.0044314337272809215
-0.0028846418843403152
-0.03380625508951519
0.05665155015376886
0.07880869554181463
-0.014618390971101798
0.015711110755856045
-0.01923174389547714
-0.03741775680436516
-0.03171092665546383
-0.08023970688186385
-0.013243743828790447
0.12127782062764411
-0.004117329209596452
0.0786474680724028
0.0067241853925317716
-0.03884456542796695
-0.011317607081950167
0.007335166443543751
0.00902138246386993
-0.03519914235366492
-0.0238016530237914
0.0494719514591397
-0.03259955842544562
-0.01916775458792028
-0.008881404678975826
0.024721677710132183
0.04801665377820044
0.006603892815373877
0.0007507511731417422
-0.01126995024482145
-0.014456638322254698
0.003897061503758448
-0.0240739516134903
-0.023554398530783286
0.03660555878501144
0.04697728220538066
-0.032048746558941556
-0.036663343943930386
0.05507277667403344
0.014092189202934592
-0.002398169794321857
-0.02545283523659866
0.02137222963998084
0.07419498072804122
0.08406358007414652
-0.04681035442444991
-0.022017056940633644
-0.0008918138369126761
0.008423831686762402
-0.035836100985881705
0.039077981764005995
0.07341865798894645
-0.05104518500409394
0.03374634529947046
-0.014400547149253137
-0.011279688051057328
-0.0007559859384615173
0.0140781676031723
-0.008008331963137078
0.010405088632018843
-0.024294303044973008
-0.015735367909859688
0.0009726077713315049
-0.03117864155303377
-0.0010770404061804266
-0.01083604807602816
-0.017772650704077513
-0.011022738308411346
0.0065269099089967815
-0.022628101692273868
-0.01403923221340029
-0.004138769587986957
0.014360022068405927
0.044815893027193056
-0.01623873766937376
-0.031050416778497004
-0.05002428196345475
-0.026441230685195917
0.029264925778551724
-0.006359701321585706
0.00031331227628313526
-0.04190982207249917
-0.028838695290909957
0.05898765870867451
-0.0007817872394130273
0.020200554672442136
0.0447353858591836
0.01138736523384302
0.038697680548462086
-0.11597107839248899
-0.1996707668644861
0.1770096660858933
0.036232260705230036
0.1123768057354463
0.0837753067767818
-0.029176781800233375
-0.00407547963269476
0.005169544102813237
-0.01657165858740252
-0.042900223306977264
-0.024897120171330594
-0.034374213584155155
0.0007498332597892359
-0.000293891917896848
-0.008378203442503201
-0.013025241168728496
-0.003105648538687782
0.00496955496323099
-0.015321975917652513
0.02158785225776102
-0.0017778597889161645
0.017064514681902038
0.027013294221142625
-0.017958720635473824
0.020907704518587235
8.532749857764028e-05
0.027265404334504334
0.004918942466906406
-0.16660008888127437
0.01289553469537473
0.023509606555101006
0.038767364531118245
0.047820710037673395
-0.02832636092989538
-0.014369506007913606
0.02187740017099122
-0.03738385074702694
-0.05364595949867646
0.12955737811169638
0.027814448892630628
-0.0825666848400331
0.026443745738325967
-0.013077172500593074
0.014027798971149268
0.013885274644891879
0.039084946784663455
-0.061714794221327585
-0.015662009522010096
-0.03969365107537079
0.011076059661408904
-0.032407002979166113
0.030288427477218598
-0.034945733870274096
-0.04074745279545929
-0.026570673584843017
-0.03130138069594119
-0.09077124987353148
-0.044430595113718094
0.04762101389470633
0.0036374319045879328
-0.03696222455999355
0.10425052600078089
0.3172533820594282
0.040500202115226154
0.023054507763290415
0.06396927334251257
-0.040363397368649204
-0.07374616942932563
0.005033482153294224
0.0027347510999853287
0.004862203828104038
-0.00847241455039558
-0.05285786022370692
-0.06197877247024959
0.020122670231259538
-0.009735754589607947
0.03165732977773496
0.011717424462602249
0.0054052230245839016
-0.14550484295180682
0.0038844757043030747
0.031005057103534215
0.0026600388162524974
0.017127165036311825
0.010474359780436772
0.013244764691617438
-0.03601013373028137
-0.01194426731540351
0.014444687094241876
0.012756883927848113
0.009611656086574993
0.007169677999940899
-0.012948662265976107
-0.04333476490049871
0.017419168143524615
0.004468060404479846
0.013410895488818471
-0.02144010400361331
0.011494554394987607
0.0032250500464565675
0.04709206047113743
0.010438947976312736
-0.030366046028950096
0.03303591191900355
0.004169293758352998
-0.0038516608547159658
-0.008512787362307794
0.008174437993801499
0.018630017005413002
-0.00947680492400354
0.022552213984836145
-0.024403983495011845
-0.049328452542607044
-0.05156827012373376
0.023142358663537452
-0.0033988959773552266
-0.07215430539787442
0.022426644301459166
0.09449174253184044
0.05113160896363209
0.006030927212928498
0.010241523948149265
-0.011096997821806499
-0.013231500266081702
-0.021723729719114335
-0.023979831090488343
-0.004882974227116072
0.011090026347626476
-0.008058528208891604
-0.02612759078963225
0.03832371768487266
-0.19506830859916155
-0.13441466114506237
0.03823598096131178
-0.00510666696749149
-0.017713423685925885
0.017138149687581785
0.08373382239529682
-0.007714727750345709
0.028369762455698392
-0.030544219025094636
0.02458097908584791
0.09667428830206566
0.10406479789404775
0.007543851595477659
-0.005867492591090403
-0.0006529125005961001
-0.012880502722558296
-0.02622783455444229
0.013801402606446309
0.0063690914971012745
-0.004011398985371924
0.015397699084376227
0.02520062776856807
-0.015092406465181302
-0.01535953218036333
0.01309790836651238
0.003091503084605492
-0.006013725401371642
-0.04253014601547969
0.023509576900645986
0.016624682942989907
-0.02107621055563499
0.009221760330805311
-0.0009844875270468084
-0.001175893025146268
0.005092106670386839
-0.004168039456136608
0.07975418359090962
0.05322076097932569
0.002209755725177731
-0.000643760699906348
0.005406705786728967
-0.00921362240789872
0.025516091454771475
0.09686877710845625
-0.010910416603468073
0.00034840805507161527
0.008422177203973494
0.041436860432116085
-0.10634724006401433
-0.27894750846221655
-0.03199485601168793
0.027345804623017292
0.008535828542669583
0.023901541575992346
-0.005540872253995265
0.07775476037382652
0.12884984546242337
0.018984517218601064
-0.07611452107008145
-0.04965016247966939
-0.00587243398359093
0.01788799774562127
-0.06548883573972834
0.020520913771994054
-0.03886762483428346
-0.06194442381513888
0.014736239247357993
0.009968168501347664
-0.0355888812339092
0.046818459887651806
0.08233810773459772
0.013376144595884288
0.031010596552058716
-0.012632621196899386
0.003279547892699665
-0.011381613539238077
0.038954099790371156
-0.015402259443990743
-0.1469685089396598
0.0008286342559143844
-0.036582753450984856
0.010379093910001722
-0.011267704984535313
0.005540897898982737
0.00428372840953124
0.0069242219495193585
-0.0006506788463513263
0.07232939508944233
-0.007368305939588658
-0.09337144908756226
0.0009644163912038959
-0.03987715611424324
-0.026146239721742355
0.02558630078356168
-0.012709423717023677
0.013078251064003186
-0.02400378593488874
-0.002779365104601383
-0.04396173162985368
0.22602620995280687
0.06164708340668291
-0.04137006640109897
0.014420805298121918
0.005687183701077165
0.04791388461852534
0.048608038646221846
-0.04504249776465261
-0.08406971221247854
-0.002496095710813454
-0.02015546271782413
0.012616977160905506
0.010322290538872738
-0.029071920429692033
-0.016923265034664053
0.04231059317852282
0.04804082985710338
-0.014661435791021969
