0
0.010085662519098456
-0.05266019819811629
-0.09084275151740644
0.017425607555687176
0.04899141162109055
0.053758434017577725
-0.013203830239228637
-0.028241255547626003
0.03932060555027954
0.10442172708926376
-0.021183661576728394
-0.03045987412537886
-0.03007428646509989
-0.072381938983637
0.05828310443963864
0.23794056218621
-0.018824134652667718
-0.052020090057310044
0.008388701720908142
-0.000979347312055501
-0.011173461654451714
0.012072296257497785
-0.019228819667721487
-0.004293288714074472
0.14952486962291878
0.04742131879080965
-0.02902670002601284
-0.02124101231186722
-0.011124226408628509
-0.0588824642456641
-0.055532234728037005
-0.0413615729051315
-0.00994113392052972
0.01947497209876425
-0.02368367420692542
-0.060129632804697436
-0.027179212344815802
0.024784509932171583
0.17945336448194285
0.0896928785509095
-0.10381478174841614
-0.15847834866347493
-0.000792330100401904
-0.043275324382888766
0.023393444330246493
-0.0003291759319210758
-0.011392281158033875
-0.017144902630702775
0.025755136927197726
0.1242676849630183
-0.03808822565508738
-0.07283200224898133
0.009990148093392173
-0.029332499028913345
-0.014120668767474438
0.021983991708609246
0.0042173099124390954
-0.048516746115343616
0.01135844328753354
0.025213668736855537
-0.00786010743248919
-0.02139490317748952
0.0003073010617767265
-0.0247591733318592
-0.0009870943614554118
0.03777911162916688
0.04066157650315388
-0.0003345769426014348
0.03515906787629387
-0.26530395881786656
-0.05652769695703048
0.08068880126052463
-0.03485624282537031
0.016251584228970332
0.00916801830937621
0.012598167147983801
0.0821353949034011
0.0445164050756674
0.042339588230718844
0.12406796547780231
-0.01932011278550722
0.015531876915547162
-0.017960184792105472
-0.033433422576760914
-0.0478213230529976
0.02755671547086209
-0.001366376389014134
0.07480085456514161
0.07934708096288742
0.018101313385707543
-0.15012718234311914
-0.04482887419795613
0.04189608370620732
-0.02657097425222493
-0.007955788851669941
0.0019613772259364022
0.007499584346130248
0.024950221041584522
0.05433874109074034
-0.0132337973132645
-0.0003012342247574051
0.006468363552428998
0.008894018854542421
-0.029334295104560527
-0.011673184290764825
-0.028697117352089796
-0.009470558677231634
0.0028593692835147556
-0.0139030922811389
-0.03662110907655419
0.003272603937815775
0.014986898903455765
0.011999087203946627
-0.0770236266323388
0.009396139411306882
-0.014087088437348084
0.0015711382498123263
-0.001092657102046663
0.018959895256898715
-0.047395505000174865
0.01910747764739939
0.08714394589072627
-0.035625856359149596
0.05823704919237971
0.031035568987644757
-0.03417201119675787
-0.0450210565175757
0.03334253049133868
0.013424390884750784
-0.009127703082453007
0.0008698532995455877
-0.005728842397657418
0.006455686465225041
0.007344121564341334
-0.008089255512717644
0.02324662280287584
0.017736097551085492
0.011556122863427368
-0.14851066107964359
-0.057144934565182874
0.018698660774709792
-0.056052084334446674
0.013463842990935608
0.10919429924073443
0.03387711879696909
0.013626762033551619
0.013330598867137436
-0.039750530629383725
0.046321389730382266
0.02829335921143542
-0.011445645199191525
-0.017232794042228956
-0.027107441493169154
0.0995468062347748
0.014986995569158093
0.00723826608710908
0.04161510628873381
-0.07781319924077904
-0.003309211377592927
0.017657786099901124
-0.002870466906654869
-0.016986821823326247
0.021716758988567425
0.017305425394201823
-0.009567759459399718
-0.015325365515049646
0.021755220538275742
0.02080840481403932
-0.013227888475106522
-0.0313068191543167
0.0004995761792410088
-0.0165025977211529
-0.05270589948367433
-0.010973096387731368
-0.01869596762568841
-0.034915307071463404
-0.02248486886058115
-0.020360245761931444
-0.0034093323601599923
0.0017246671513846369
0.018324932790086495
-0.01713727403038019
0.15362968701683358
0.1300529854624858
0.02986695052810607
0.027759493677902387
0.004434927966037753
-0.0039221944368022284
0.004827359135729347
0.007187486975282602
-0.02327995237556762
-0.21339005811675593
-0.07138784001181123
0.07585932409352228
0.0038781075668119095
-0.024181300835897392
-0.09846414661438443
-0.015771035032479626
-0.02337168156971313
0.04179891977792719
-0.03398353667363265
-0.0005700739237279997
-0.01914669729131896
0.013567849914509555
-0.014818401071532521
0.012012579646830243
0.05640544726190415
0.022675165358578428
0.007088783145184751
-0.019912841337480197
0.0887712390541665
0.13106111532403675
-0.07586378883692718
-0.017372228309161176
-0.01612720118494044
-0.011531009579886318
-0.007881962726857816
0.006264116834520494
0.028243392707211153
0.009571680836831669
0.007269437335273394
0.030859685839835043
-0.01478034805819022
0.006412111215605062
0.024017357566433143
0.0021359583415146324
0.040625639537082904
-0.012221251598170049
-0.025900130131398604
-0.03685582242942058
-0.04281091559303239
-0.004406136905563938
0.024622053131930402
0.0005140402432495523
0.01851375356677244
0.039487755366201395
-0.004420405148235942
-0.04726346867686647
-0.005748455666150363
0.026150455056343475
0.15769005591061774
-0.0199205415223201
0.04237915349279274
-0.2106253249122365
-0.13360008224773803
0.09036614325206296
-0.04495049048347409
0.03475891851414773
-0.021085899603875764
0.0016278917237352584
-0.039131333265884104
-0.022789945794811906
-0.02119231764673496
-0.001437022389598737
-0.03957642060010056
-0.020811810860921896
-0.018020357706974296
-0.021518970177733646
-0.04471847712766188
0.01857102133757749
-0.03586067375697935
0.04915612611468917
-0.003788286398953146
0.02531851868168951
-0.010692983689106532
0.012112398613583361
0.007443530542826886
-0.0023913887876733726
0.0034322295025711737
-0.022008258063395226
-0.021467713600877465
0.13790173461210192
0.05359345577093249
-0.02329132772915607
0.01721748558206332
0.04841211967374913
0.01580469397372049
0.049014655467027775
0.043832073032452915
-0.014083783541795935
0.020375824889082822
0.0018105103604905387
-0.01841431150745238
-0.01893621992813214
-0.012017489373776858
-0.022630821912827816
0.021703534150073863
-0.018766531202309568
-0.002904248361160958
0.11975176104356312
-0.021391903295049607
-0.029651024053636926
-0.007519495438936409
0.035150702206563814
0.11677284778946229
0.034428430871737116
-0.14591171333993352
-0.026904922333763317
-0.0035402844270898425
0.004612177916350158
-0.0061962713916950095
0.035902712502731034
0.009312180773683638
-0.046499666144077675
-0.03908163682135041
-0.02373330433915351
-0.03694070206687789
0.07148278831113218
0.037365860628275745
0.00825429173927972
0.010857061643813755
-0.09709905311402889
-0.14264552883705242
-0.17962409085564846
0.014459323840154642
-0.00651611125140757
-0.0124427955546229
0.005835065404194083
-0.026922372729611427
0.060414319714543356
0.24190616912361296
-0.003355783207955211
-0.02813094843158694
0.009527694528429748
0.025556021066411264
-0.006626005874272168
-0.006691952711052319
-0.015827216494189944
-0.02870845795904755
0.05241639675214615
0.046752500154464985
0.10169891674330124
-0.013140953990514072
-0.01712167197660114
0.002308661962311032
-0.04921244795064001
-0.055031253345068754
0.06787919099818439
0.02451572571810285
-0.04266621499549852
0.02106052985930572
0.00608625911730422
-0.004369871090034795
-0.04300314285005175
-0.03610776366915974
0.03921878259005985
-0.0063529952389006356
0.01894544070981165
0.04809774640091512
-0.113693747592407
0.04167569678909204
0.12624806032577296
-0.09685671477829494
-0.05927836875925759
0.0027070668140688624
-0.04288853592680865
-0.10876055816891086
-0.023853715250689026
-0.013585730317299064
0.03057067335387664
-0.034408914818292904
0.136399680856159
0.013746176520766675
-0.05125714372715771
0.05616645429938239
-0.028470647063541073
-0.06000736616470419
-0.025757688211669547
-0.024217899558849055
-0.010845472827193203
-0.01937169238867925
0.022205797281796846
-0.02254723842806405
0.20211552633925445
0.10161352172708421
-0.051067643287755975
0.023113722729922632
0.07624128683847105
0.06190020375000325
-0.038650768762566054
-0.01991409929394137
0.044741512552351204
0.011223325318109654
-0.03518251727567441
-0.018164647649443935
-0.011982330297201116
0.001622135562471839
-0.036879431232068674
0.00926994052477408
-0.04686753226055546
-0.05186057754887157
-0.028727446807145344
-0.03726815762487707
0.005077046251698834
-0.018857692833426722
-0.04318109332941173
-0.021622042744713774
-0.0062851216494858135
0.012946328568620711
-0.010536248029837722
-0.03234412637713604
-0.02095389376790758
-0.022683880968639398
-0.005071402621559907
-0.034302250349657844
0.011584715976252087
-0.05487280284117579
0.10499741022721612
0.1934850368548252
-0.22523138742114876
-0.008940524373938816
0.04489081079957412
0.059391768873902906
0.17399648247017482
0.06943414576919969
-0.05407233959203937
-0.04019307538985131
-0.002590925772135546
0.006050449218096982
0.019517673261906163
0.04424708056754443
-0.03844169755497577
0.036116789563754866
0.08537811895389742
-0.021373723878358362
0.03613210457254414
-0.0013665282246005854
-0.0010980990842049624
-0.04533273140442116
-0.055952645472400794
0.01023611969958781
-0.02083005712099198
-0.025638948390039745
0.013448282740799613
-0.007309906368449373
-0.00416054808310978
0.01815841516346846
0.013525006473842189
-0.019972414347548307
0.07483697032529223
0.13335443147943457
-0.025089680327313967
-0.05622957047832826
-0.011198153655343268
-0.001725698118974039
-0.03178133672440515
-0.05888472870199687
0.015056834510712982
-0.07130233095848862
0.02121487810310929
0.03185419235245745
-0.0036735017296718885
0.02433288226550761
0.016579173740141118
-0.06315743177147157
-0.006269450844686949
-0.02209928725785657
0.050564329924220615
-0.23386768419334983
-0.05293399410973411
0.05173231278842099
-0.0381714165244999
-0.0062105953675779466
0.0033036323961878164
0.006951227600167549
0.0010643251117027238
0.043206885389373985
0.011082457324034617
0.009927370493948217
0.02265037949658951
0.03068412279376801
-0.0001447160908013309
-0.03130322160645493
-0.009175870369172695
0.09099564888811336
0.11229847664782501
-0.04020710632929788
0.0029267451101015972
-0.025312525750135116
-0.022650180539114703
0.02106065448159711
-0.011757343154025232
-0.0380847790518689
0.001938491874734605
-0.011623815133970324
0.062339319215811845
0.013919394477847348
-0.003380260929071584
-0.03669666437294579
-0.12339142275084235
0.04524683058227332
-0.06538303435875231
-0.04946002027140544
0.005248401060181073
0.14641109205587896
0.10126119483889054
-0.06782270400843762
-0.04496615782969945
0.04087602671836141
-0.034022409741735954
0.025540893127215546
-0.02166527649449285
-0.05841767138096237
0.06031406151721952
-0.02072120672647271
0.008737368282956058
0.012084751869239315
0.012089600977653474
0.0588190490932743
-0.033855447995591606
0.002140744329029701
0.028745117800210374
-0.0033411925961484316
0.020737715761972187
0.0414949626643601
-0.019710055955098445
0.01781018611384146
-0.04574764705378484
-0.05358538117100177
-0.031000612880774173
-0.057724956224338736
0.0325752911919058
-0.0045956884943606805
-0.00248547191284794
-0.04130774772521112
0.008117335599546622
0.1757880021401111
0.041923818592921734
-0.01898246963154695
-0.0067124620148965725
0.007185706399637602
-0.0053135700097634445
-0.0001811494417052519
-0.004808005962234377
-0.026451058976288626
-0.07417201053493343
-0.026142754256486354
-0.0280413226933735
0.008429565347619737
-0.03569039687216849
-0.0027004920767154474
0.07268829341069552
-0.06092248099670416
0.015703402240937785
-0.011306333043499758
-0.03166195435979173
-0.03037557930834688
-0.015936201797116644
-0.0010790419307227597
0.03410361543840882
0.0973394176636128
-0.008007229408193076
-0.0003004392339790322
-0.02969286933367454
0.026593600756017768
0.14036798629622904
-0.03041443092750622
-0.006522153688787728
0.006453051782520791
-0.034229943191575615
-0.0368258466664326
-0.007979189904092028
-0.026493237516311614
-0.01172946354808405
0.05204733575515021
0.0007112641998393311
-0.024371688381076406
-0.017318398296206596
0.03237495024710164
0.12608452030122183
0.01574902810879077
0.019420236221450362
0.005402713854788368
-0.01109353432608312
-0.012790041261433127
-0.0026680551593389334
0.005989165050958404
0.042600080896644195
-0.024528592409368655
-0.030469767309256844
-0.04000447963209663
-0.00922325135678898
-0.01523221664215642
-0.004209247420883386
0.0041616827505631965
-0.04067979686897048
-0.023288533908022366
-0.013966387471460777
-0.03861612370696592
0.007462029518110965
0.006609084759498522
-0.04837429005421668
-0.031657945940786476
0.06623107626214828
0.03331168577047598
-0.029311032975590425
0.07344365887210338
0.01416887925684015
-0.0033065906580013607
-0.00022824808387694097
-0.0019834825505110998
-0.006856642385713283
-0.02097769637057666
-0.04154898051220413
-0.022589153944885136
0.00966644159845395
0.010069114115635925
-0.042617301834082924
-0.035062077873407996
0.023723937591662934
0.015991296481144904
-0.009456890769050718
-0.033782349380173826
-0.07532071951812874
0.01581925803935509
0.10746626947690394
0.09664233411055088
0.11349340150807549
-0.042236010663176775
0.03403179471644485
-0.062010877869385646
-0.09611024961602198
0.03265726641151305
0.0010364659700109074
-0.03380352555215961
-0.06294443363394472
0.020883567792126516
0.014688886906149636
0.019760523671413344
-0.009581717751245568
0.02495815791049008
0.002289986534066522
-0.006642976451060315
0.015496226519272583
-0.039524036418975
-0.025244439706424416
0.030893484687876716
-0.01890906766409056
-0.015147066892956704
0.0686072090571689
0.06154659822612046
-0.07824581888441709
-0.013549109828950863
-0.003917881531642391
0.018729607230676404
-0.02769235050171386
0.08404671885323618
0.022996947178689733
-0.03139369849889285
-0.0057711768244141474
0.005246985275957136
-0.006751220817737697
0.005627531806458823
0.011668467373536152
-0.02965287935433206
-0.0489930488888073
0.00820887126547737
-0.05859322724697095
0.08825331599350429
0.07130367663539076
-0.005371980042636724
0.02828030989518567
0.024260897473484755
0.029234225390309485
-0.008603121493548313
-0.006811255632726003
0.001764470248840836
0.06322072850956083
0.04393952443567027
-0.008573662708690167
0.10373579298420656
-0.12136471944632644
-0.1902026143281648
0.05605505403751427
0.012131126732676153
0.024136491844448337
-0.12384847752204657
-0.027335363507092637
-0.005619967820572022
-0.001320165769373043
0.038836293419475636
0.06054938742514926
-0.061864260657607216
-0.10459562994933712
0.033883398019834234
0.021131841264646244
0.0007787061355739971
-0.024015731278811004
0.0316994808746424
-0.0013762888194729294
0.028103870810590986
-0.005032122679193555
0.002354481232755791
0.019526557528102464
-0.0001963838266587052
0.002537605127394627
-0.01754167123324181
-0.008635578119832241
0.04921436827390501
0.00042015356690427666
0.028088455403783893
0.05661068690674904
-0.00638883422489067
-0.007693387705924319
-0.036665338562998535
-0.013887171905859638
0.03970904843678945
0.010410784763775417
0.050280921779787435
-0.034822275186204434
-0.027290368732443643
-0.14481322094269652
-0.08181915253132968
0.01737965539819656
-0.13016375261124083
-0.014235205797084758
-0.03808426120585305
-0.0323242997502867
-0.0328203294852068
0.01821762887814566
-0.03838255631386985
0.16347497123328558
0.08459649754410688
-0.051096992744408924
0.028256122454494905
0.037550003127200825
-0.014859995414120261
0.05648501627269625
0.004173186160610299
-0.012852527920897623
0.20916317022750996
8.76232760881663e-05
0.11159990661504351
-0.21279667112141099
0.024288531261959557
0.08261701457345098
0.008029711882545877
-0.014918956480683398
-0.013073179223388827
-0.010244735334471058
0.04094203849106475
0.03166705571327632
-0.006033872649257634
-0.03117829815231346
-0.016308318646395627
-0.011309780319476053
-0.11958595639821905
0.04325080516232809
0.020863068581471952
-0.02646137640314405
0.003092525668551393
-0.06491438262563973
-0.004128842839257939
-0.026163726946015837
-0.006984623940656563
-0.033507696765479024
-0.031524010237268564
-0.002442659200236613
0.30119364682480143
0.09573779370997758
-0.06119990054910554
0.03116944649925131
-0.020614820887584394
-0.010799513438380343
-0.06074255796269309
0.007086019841988236
0.04119345559277345
-0.22170710043834743
-0.049695110690174286
0.07145013992881659
-0.00782460492266076
-0.004305909832764465
0.014130658390052375
0.011292657792486564
-0.03799007729069231
0.006477533464410958
-0.02981674800934911
-0.020092116176725804
0.07041235134470734
0.05253436937866578
0.01635434402020148
0.012453843477497834
0.037364802142089815
-0.010260967025297626
0.07369799830469126
0.010436782794864038
0.0446111948498095
-0.11311708025410551
-0.23316423449477194
0.04914450078386634
0.003270400210878103
0.005879662501164135
0.005716153591874988
0.0051270884356094375
0.01828881161565518
-0.02836040902476715
0.02690169705481024
0.11338555506956637
-0.007370093880216236
0.02962836782630076
-0.003412944575406036
-0.015264573785701577
-0.1116331178823471
-0.039777108453028745
0.013825895499039342
0.013364091267257126
0.05453474006310077
0.09101256762783078
-0.03651470196186107
0.004409939655459427
-0.038640620862135995
-0.012038263232318889
-0.06961392330416674
0.011270581769413899
-0.0014055415570144298
-0.008624604759804895
0.003054138542688972
0.011099623641947831
0.0926435111006363
-0.007557952185391781
0.04917042579677637
0.006933119396941351
0.030562776896912197
0.036376768082516456
-0.016394602711069937
-0.014970263123920765
0.07817361474705407
0.1455899740442524
-0.018853197446211306
0.10394279634894629
-0.12259915760421146
-0.2001341940131302
0.0026870268304489374
0.05838900233949803
0.0816140055905285
-0.017851630925166805
0.020063533093416713
-0.04983996494172886
-0.09519287537892472
-0.18775403349402114
-0.0622835095045529
0.03832119284092242
0.029879189933125345
0.022510606047962352
-0.0002213514772003482
-0.06984508008132459
-0.11945721165743853
0.06084953920359833
0.01470294447813835
0.07240983348832256
-0.0003875904108624153
0.032574559712734784
0.029674978947720178
0.034903988139519906
-0.052534503944858736
0.057316817283058104
-0.24586989061248624
-0.2666508171902048
0.059342721734298505
-0.008375251299768892
0.0061901944509603095
0.13347264297006892
0.10770073112755939
0.0036853427689958335
-0.012354044388549038
0.0041939580261367215
0.10312645912085516
0.07599837789973365
0.042680043351358304
0.006603348394656765
0.0036626910555208874
-0.004677829779692197
0.0016392748672665496
0.007049561058007365
0.06181827473568616
-0.0018444419238143471
0.005702126418288612
0.006654346727506506
0.007133013701532388
-0.018772627219968252
0.015543108817221983
0.009150651678355133
-0.01727030879995364
-0.001426680373990615
-0.06699630952612451
-0.0869701751444685
-0.057919878529828515
-0.017187062374470704
0.06454291655550005
0.017987495133316
0.012349132746441931
0.002962922625189197
0.02390148719795068
-0.015196697091176712
-0.009853781762137344
-0.0117290738397196
0.015047021351209493
0.046859449902586676
-0.02230298556338995
0.011825220819812052
0.00407456187190454
-0.012856657702597833
0.017594542408050747
-0.009135654488447019
-0.022909681506819143
-0.0031423903878521862
0.06463822859028312
0.028211756711323442
-0.04102954292802662
0.01594421315210134
-0.0031009567755244504
-0.004051725251447743
-0.03794148404643738
0.031474544560253316
-0.0016237788665773166
0.04120598336375974
0.06450686023432618
-0.03213715541429472
-0.08924636177120887
0.004208529258951767
0.011290872821831678
-0.02171102931675158
0.0017750450171404363
0.2197388690435242
0.0914946604989786
-0.06719948421609369
-0.017051695036344103
-0.02970463403324312
0.016196258978603734
-0.07964397641446531
-0.08248904942980123
0.02822100145066936
-0.01610596853317157
-0.004326881195989054
-0.005798562670209551
0.018033432594092503
0.004171769372780674
0.04497793573476343
-0.03116895958148985
-0.0517019862388536
-0.03549995966912612
0.0685442959509797
-0.050848741212347
-0.010029762194208508
-0.015831354251346942
-0.0018819446061286089
-0.00023762931647007342
0.01930497625806314
0.01308142335353161
-0.0044014485622485364
-0.0262439011724447
-0.007405863129434155
-0.055887402342604316
0.0353744194070389
0.019201655770653348
0.045484030227248014
0.035998023431058325
0.0052550212658954015
-0.0008639848135474248
0.008600497250763624
0.007129382053163951
0.007808266807551886
-0.29588722706071335
-0.05397786986902896
0.08005058447879869
0.0346049796141487
0.013767165797986902
0.03424806451650636
-0.0423767388116504
-0.06030321769158933
0.022818823834816974
0.010345702698110621
0.04278011514079698
0.01980414741326273
-0.012052113838770761
-0.005841947426934771
-0.0217735116270573
0.0009747712509568748
-0.03460809161404488
0.006240985509084766
-0.02653697045367489
-0.04825149921939711
-0.01857522958245845
0.02992655915629504
-0.004375371276140718
0.05639155104427187
0.004180558632439385
0.05568840021423532
-0.038250769419051915
-0.0012372232139046815
0.1344318684770892
-0.07567638405725764
0.027196855581889764
-0.0003355020485162585
0.0078050265692426795
0.010993330619053195
-0.05808479236516987
0.1393836197402898
0.19301338808740703
-0.04291173657601741
-0.03819127984624299
0.03013836122122537
0.03535282019520614
-0.061482559331776855
0.0075791325322282915
0.015263620647157233
0.007233132237270756
-0.04705561706729478
0.015585785184374297
-0.011610708075140362
-0.029122088631846708
-0.015916114367146263
-0.013365085252439016
-0.03853048779522641
-0.02268018862063207
0.0021935185413695713
-0.015000709441822468
-0.02708932607526837
0.05865581113754777
0.03954594516507402
0.028032180232490433
-0.03694295798288313
-0.04175931505342528
-0.00840724775409918
0.012079490450436976
-0.015394444665624197
-0.014849148377544157
0.0445133592744181
0.0025750229276327733
-0.04242622072283934
0.1303297832170045
-0.0069693250722953
-0.04844434136119891
0.04473820414053936
-0.032228188911591335
-0.0569963291219229
-0.0233098696191649
-0.020851148561729187
-0.009395577503965002
-0.021923364866367173
-0.024807796437845923
0.008842345634415038
-0.08797486769626651
-0.06714463922846381
0.0299439702875447
-0.016196276115224343
0.0019216008392085046
0.09771356927527358
0.1706082608285174
-0.024771934319251405
0.03465712267658439
-0.009153859008768927
0.018722796684013686
0.002175558469912512
0.03281285732023437
0.008377919886083812
-0.00036762852800495475
-0.054379802435804904
0.05506915128929768
0.0716861826639427
-0.0019176062486265808
0.020603738278249732
-0.05890869724251541
-0.04615553584763835
0.03868585534621748
-0.03155118970430507
0.010062195558259653
-0.08602138652149671
0.001801126333732907
-0.10072622982019312
-0.12918566124500042
-0.0021672068732480135
0.11186690476466632
0.03401393992550529
-0.07305897140796654
-0.008313309481085263
0.04312657320274855
0.12863292284334366
-0.061917050166828816
-0.008507960569488148
-0.08565887741368934
-0.1537954782682022
0.04865794793588932
0.12486956518672031
-0.008514451812485087
-0.018028463892461846
-0.03394711002683717
0.025619442533600715
-0.004791858995060679
-0.016686876726079217
-0.008395414405264492
0.06535290841921336
0.04921601304733178
-0.005014605738378332
-0.02308540533973805
-0.002233918763087415
0.014224932600526938
0.021894546146855338
0.044716867083500055
0.01464406506299636
-0.018710117835704143
-0.009951960837217657
0.10087690969736764
0.0917979585477988
-0.019472732111702865
0.012651958909147385
-0.004335139257200437
-0.02678791782323443
-0.0025250264194080826
0.004280472522837251
-0.1128688630254989
-0.03454049578820174
0.0008021023404662157
0.042934376764803064
0.02318231667935027
-0.01794116715883251
-0.01726179992319816
-0.0023485066122450686
-0.01130008460051912
-0.020862188123482703
-0.015026650764637233
0.006637860208772827
0.00837535037646772
-0.007462707224531841
-0.033221096368462016
-0.01434244302486252
-0.022742025401325215
-0.020845207473534935
-0.015936069455213947
0.016320600330629396
-0.004178255253727599
-0.011254876485764731
-0.02061888739679196
-0.033322230131098536
0.01358547368397664
-0.015448638997208669
0.036755201980445344
-0.01766917360279627
0.0367647462115526
0.2339764175187069
0.01047419706797508
-0.015614701441802386
0.01036173376916595
-0.03933450221134997
-0.011000959509150468
-0.05299683492057004
-0.12439750498284773
0.008435304788074855
0.01138117576597654
-0.006060377557833409
0.012112260776430328
-0.013310873908796518
0.03706425417945718
0.0022116175308823684
0.02317425983061639
0.1225642246754994
0.026954634756000063
0.013511854876348801
-0.00833431463958068
0.0177243110025504
-0.04186384738450364
-0.07354613190994387
-0.05570604953270529
-0.03950696971510082
-0.01245351659268833
-0.04659654288137679
0.0006340940835396042
0.03345312220400475
-0.04046179551520509
0.0369012263945661
0.13271350186133649
-0.029621023609425225
-0.005029120554037868
0.022984983356515328
-0.023691478879889923
-0.012698320292013007
-0.05705470539357217
-0.006302960541581477
0.008033174876848896
-0.03966450696567621
-0.032559411721876805
-0.04789248661269628
-0.05629941746074348
0.0013820133976149842
0.010279591326618586
0.010241159676646879
0.04221398557868081
0.08429608332486377
0.012937303470696245
-0.006131925771017561
-0.04727289388912268
-0.04492952961552867
0.04356848480767751
0.09164528412771279
-0.11332620262436756
0.1283458683637014
0.24892387843853817
-0.0543214881934748
0.016827030927889584
-0.03108689451600472
-0.00778504196997214
-0.01213411473604591
-0.0043062127136889745
-0.017484100156393876
0.0049355460279787555
0.006583706553773492
-0.023483266977108334
-0.044880287975869355
0.028473241739412385
0.0081517947610714
0.019684942551158807
-0.03156260948231724
-0.002251578653709253
-0.0072382262908136435
-0.009315145807884765
-0.00793760307313166
-0.005934321589395048
-0.01639851637963468
0.006189844856117217
0.04925794936719371
0.007405584233250784
-0.02863530254191694
-0.03266578989948955
0.008680679674953336
0.0008276871437895198
0.00919429394794612
-0.01414619059969622
-0.12709518266699882
-0.015025979893016184
-0.03440561506821977
0.09332024145180524
0.12256766520239934
0.09603926854499262
-0.01673179110758555
0.005075820906444433
-0.040469539949251
0.10737501552228522
0.08261339288583816
-0.03188338749869701
-0.08877695317575174
-0.01636978310837289
-0.01854823669635288
0.042882513464867086
-0.16164074597067757
-0.11450494501360374
0.057401775723732014
-0.01502174296515335
-0.17526241977607157
-0.08764120199823686
-0.0002962612345279782
0.04282821727100732
0.004822597924387786
-0.005760981014694854
-0.000720087956852922
-0.014737354563156266
0.054788686843388425
-0.0015830242572637205
-0.022373359803362993
0.034720030234006986
0.04985862470660561
-0.007930590083928933
0.0035024411201846216
0.06674161136499103
0.16382680657198248
-0.016036344036531106
-0.004868784627114846
0.026441554155691434
0.024320858312860533
-0.016840848800167674
-0.017634230356072776
-0.026831622288911578
-0.11356542856874238
-0.07061763081727464
0.012684323719561304
-0.0290432376737386
0.02956540833301437
-0.011589866645312323
0.02762957726349795
-0.011960663248205465
0.0464763218456438
0.11054990975100427
0.009263924246050638
-0.021483838212847377
0.03841349851105572
-0.011626032521627474
-0.0006444023567273564
-0.02450732488208281
0.04357202926407954
0.03381732894683772
-0.06565744214347398
-0.027541703225672252
0.039880030143233394
0.011223983090203575
0.003827241394064942
-0.01785692301942458
0.04183503055290309
0.008740243380572275
-0.027139178479919927
-0.028864803375313827
-0.01210415650929291
0.009165596920734922
-0.0008570533965207139
-0.028415141739493822
-0.0073975471997647325
0.02531206002302137
0.014876811028605188
0.02306076499058548
0.017851629882338137
-0.045790905307119004
0.02338591052505124
0.02379442127737562
0.007364572097618364
0.00689925400062862
-0.008374915261868095
-0.012792363172714474
-0.0007342038240646646
0.010726818202053817
-0.003938509923690892
-0.009422283014701263
0.0008405831797583264
-0.003479783848422549
-0.037546956698565344
-0.019664047775340313
-0.03437775549488613
0.007808810527139345
-0.007120049147826824
-0.08352946415607507
-0.04450531488765471
-0.0021562760036797726
0.01201653139960417
0.02137546136309304
0.031666406070718384
0.04529685475839435
0.03773885595146115
-0.00033560389102824936
0.003938485577733408
-0.0007081387082092794
-0.018160628204026846
0.0035697918498999444
0.013648456062044652
-0.005098345506853926
0.016219449127500455
0.002532834700418588
0.009714794333192287
0.003584709330396662
0.008142168050786115
0.05206028388257932
0.005852673135712163
-0.0424972578630366
-0.01102143418529226
0.06350727199179555
-0.008797582666146985
-0.03707097829715892
-0.23199575221162333
-0.0956629954146901
0.025547415891845983
-0.03217945415931274
-0.022544435026615146
0.021991152050098894
0.06941556055736367
-0.004933187221237022
0.02398352584533534
-0.02740977745757504
0.004070226075002297
-0.045343522109772945
0.08891527743560453
0.13394290912772824
0.02973041092471096
-0.12265370621539093
-0.019301378427443457
-0.006819046934344102
0.1439918408725396
0.10951409338914954
8.994297623435337e-05
-0.016459140841233167
0.01797041591454983
0.03673657431479766
-0.025316219258860132
0.006703863744029758
0.05370825286699479
0.002754130878286937
-0.05586200041627068
-0.02172920846922503
-0.009368983725652527
0.024260744688079632
-0.012695317073955291
-0.003645935543947205
0.003723578377771442
0.009587811421649097
0.014063842735983614
0.015353190112667435
0.006600877387956976
0.018613482099647808
0.017477545262577086
0.01836470407616704
0.06115550238156184
-0.012704118108147627
-0.0043422983066074335
0.007182642914126336
0.002059058072646139
-0.03173516292032591
-0.011732726938076376
0.010629492758281938
-0.010900523899452374
-0.24891465102320434
-0.0996605621987825
-0.01336341559430168
-0.051879794609416226
0.012622298145060416
-0.013669819010350784
0.06160878799775518
-0.01081692016731846
0.09082785308576798
0.02928057513764064
0.010052963468945377
-0.026268349889566764
-0.1387686337177161
0.04390903355879403
0.015581783232484327
0.09730772122758105
0.00033479927863431093
-0.07300295533017763
-0.00980454631796908
-0.04045843695350392
0.03393644972727879
-0.004253325600942891
0.05928832602398966
0.051979075974284056
-0.03347776220530787
-0.03366857583310304
-0.05519057558618907
0.0336768583614136
0.030676192045152716
-0.01618502422526475
-0.006842474902386827
0.0036086133229411036
-0.0037701299565836115
0.020490814664625007
-0.009718798402096156
-0.03900202455892792
-0.04861836787209758
0.01315835028456109
0.13839742950164194
-0.017732594117106863
-0.05418426567628078
0.03637525730798725
0.17199935213900513
-0.00044103839774020984
-0.0006503931400589001
0.02293444601959355
0.007451731005242686
-0.000869367671383816
0.012873690265368375
-0.010189227951230234
-0.032933128925314255
-0.04233917695525795
0.011014591714663865
-0.08756542519438418
-0.05856740206580944
-0.0012857956087643243
0.017355741339617585
-0.0002215933093079981
0.05373753594547698
0.07597137479396796
-0.023259632476943595
0.03223376470656751
0.019295999330100604
-0.04609801223265802
0.01013912429871588
-0.009567295220020627
-0.00229883633951345
0.029572963375080877
-0.016795895039856474
-0.057767568408642604
-0.033046809033380586
0.020294074732260473
0.05234767413907653
-0.05780205947673645
-0.025216313799331157
0.05449815022454127
-0.023942480025382865
-0.006161313180315002
0.038584644359665105
0.04240824481467183
-0.005795804320819272
0.05187632655177373
-0.08881862444530364
-0.1370995872401116
0.012037150844659212
-0.0027524197281474567
-0.002444206649843647
-0.03554509896288389
0.07757678481367535
0.04619815789397902
0.03673707926748426
0.0028220114412601254
-0.00791219526397912
0.012453337385112737
-0.00798874627408883
-0.011352801413362252
