0
0.009123423283626038
-0.010536568972318522
0.004342973838830005
0.0060218292030756555
-0.002605589798275814
-0.003167710812761392
0.02494559996504451
0.019922461993224148
0.012846666185598335
-0.006993845960966291
-0.013888138503588936
-0.05809459681688427
0.0021242611299633726
0.01686361009698887
0.012936494034367432
0.008308654828288766
0.0004136194675127926
-0.005294781854397663
-0.07663289761835163
0.03300354799532021
0.028694163610571418
0.00652476880150397
-0.006696837824244604
0.028702870384607677
0.008651531269459152
-0.1422804076813833
-0.024811365938227383
-0.011817994374224086
0.009310954271617784
-0.016199223196091482
0.03865962151005553
0.022135254125112042
-0.0016069400653416959
-0.023869409597516072
-0.0029840028440048416
-0.0019353884072844717
0.009387710086489769
0.011314233078377117
0.06913396830920301
0.014347574063680674
0.017146977543753373
0.00730230267314829
-0.03707319328019031
0.009704871626099044
0.057414149889878224
0.07710101847536503
0.02480013804923425
-0.014481100703768589
-0.03714571032111818
0.013760881783171062
-0.03589578368783245
0.002651865023504271
0.026539709212280976
0.012379423411834902
0.01876958442602065
-0.004846136342711907
0.018614799653492695
-0.00298618870925733
-0.00201146357350425
0.01067738975941586
-0.0039535806627039455
0.022822058219752316
0.0784550458903574
0.023495889636157154
0.0038104418393126636
0.023150712157152583
0.04149964943904543
-0.05103112861144572
-0.09525128553461504
0.04104457035605866
-0.11873385025676417
-0.2534016146163823
0.01623528146594842
-0.028378234876936408
0.032634502573220335
-0.009721868736171736
-0.11908657274957749
-0.011995592790742124
0.002294280214902059
-0.00786712063517145
0.04190920839031024
0.01583023473462596
-0.012762296312293827
0.04718649634126891
0.032664302778506245
-0.015552798585183299
0.03597192133758233
0.01512189313552927
0.016714172603641133
0.08953232454720803
0.025558098707207006
-0.026158602053264805
0.033469564678531176
-0.009708123198537592
-0.01593294736306766
0.0008519694958045765
-0.029870514679329864
-0.02760212080224056
0.03929494032038445
0.03114980312248358
-0.007858012647568758
-0.0033697422600376626
0.0011470441318019776
0.030429917236004977
0.024979128595487995
-0.012291417542446632
-0.0236568802159099
-0.01797548156757728
0.02562801084225738
-0.012531962082286472
0.026613050985757076
0.03778771452402616
-0.0045640836624654384
0.024923461203795728
0.015404069722775776
-0.0015365337593130613
-0.022078797264713932
-0.01528010205418401
-0.008966643301488443
0.03951197875670797
0.022075370848500083
-0.012010941672544842
-0.019813130396166164
-0.025098255351355413
-0.027379294151090874
0.07818046796574524
-0.00018801417031127964
-0.043335342397551414
-0.018220337750816492
0.011022417443828982
-0.003911528881705873
-0.0389177865882407
0.02590363819696171
0.010473715602135595
-0.04039225286631041
-0.017148725763996467
0.03406060916350407
0.016104503747879875
-0.055669016386701665
-0.1321883064322796
-0.029197604849431978
0.00022162259183001678
-0.01205650789405064
-0.008876575773774324
0.0547001078077547
0.027168319786898664
-0.003358620180633674
0.026763001073935616
-0.0020917615018392626
0.11590429550201749
0.15487380437562967
-0.012645428713038783
0.0014531902290818573
-0.021519420098022376
-0.005850357766348025
0.010845899053843538
0.023705007300656368
0.014952648910758669
0.0216588874038889
0.0109826964721081
0.03144915342941862
0.01494399085617539
0.010164687752540591
0.010347426219628955
0.026392322000529544
-0.16563821126780792
0.002601162121626712
-0.06926440112581064
-0.12033795998690514
-0.03395740203997356
-0.015959716557901765
-0.02780594192777883
-0.010291814416023686
0.022778527670820222
-0.0015233858429177637
-0.010847825935461946
-0.015801063475544982
0.00441462036450818
-0.014485955854480679
0.003245633092573566
-0.025488326772274215
-0.0500387467072779
0.06294380571437251
0.04102471874361386
0.019941487192523047
0.005799205395440936
0.04694693940089703
0.04659851203509946
0.0071164385069804
0.031152577155105436
0.037346860949967
-0.058120218148950804
-0.14727469174572855
0.04851979509524374
-0.00876556702658139
-0.02596334075245941
-0.02399483008592422
-0.03131273241053374
-0.08934233778486593
-0.015503097426878588
-0.0105165539079293
-0.03585700054654371
0.006917997637667945
0.04878081853807755
-0.01388615554005335
0.009319711899267778
0.026425879243852615
0.004759474347622729
0.022678257440153646
0.01382656122178498
0.2036983813452024
0.04822954733747368
0.043342474978628885
0.020571505033416586
0.00512630434339716
0.00546931537836519
-0.030434774873191257
-0.010228194271564734
-0.01904745548627301
-0.006431938480978929
-0.01138790265067841
0.0011536963473081638
0.020481770897189226
0.05874220509767418
-0.005786934217369468
-0.0039196108781779215
-0.01584194429463514
-0.035958130861586696
-0.021884528304241695
0.019904530170136617
0.02103449977201055
-0.03597931584400056
0.019312664023764668
-0.003751012892423679
-0.056978091236301154
0.1784949403747752
0.13498315546969666
-0.010460385472717978
-0.016165446320917713
-0.010462447995803406
-0.006861448382434984
-0.011721570330844104
-0.027856332978225273
-0.044451116691051125
-0.004147738405414804
0.051053763606310955
-0.005824544439067879
-0.050097866624563
-0.10637006626750725
-0.04114161447309257
-0.0352862230141074
0.0038064683267201127
-0.0716603728051905
-0.02469112246361759
0.016737468019717375
0.007710378130653469
-0.03551504772224597
-0.032602371214212986
-1.8049402262115595e-05
0.01070798012537151
0.0754990133501802
0.0231808101611602
-0.09333274883115965
-0.07342797543261927
0.018714036606872955
0.00252162066495145
-0.014970494635186349
0.002475931503540605
0.008991100123902343
0.011967984864948038
-0.025979315364085157
-0.0023104841629459825
0.06883508160926273
0.03745624903019949
0.0006693454731388713
0.012294914145376108
0.0043768047474071975
0.00813408662281694
-0.04373974236132264
0.0034846127343336314
0.06806649418669627
0.06859411634199475
0.08258849042123605
-0.013435949047127868
-0.008937906337669466
0.010180615005293957
-0.011094606026847417
-0.012653227656447115
0.003450242359996936
-0.01500033062836481
-0.025519367650831255
-0.028860152943909517
0.0018505761858473864
-0.016607227868729073
0.013802796004525426
-0.019736498728789992
0.010569007388055371
0.04038118833655972
-0.01805143736208498
-0.022747101618498723
0.016923606621912116
0.02070985814450917
-0.10619788777799055
-0.016528518012080926
0.010447927954529859
-0.02920661631443996
-0.028620228851129886
0.01579252705737217
0.08321328608124143
-0.03631226641894096
-0.026540782257102914
-0.03185538609226201
-0.013569681058190057
0.011367881666517577
-0.029699003803453305
-0.055243622579035534
0.01436673696245976
-0.025355083087788628
-0.0030611193057566355
-0.024792674881906892
-0.022594429760280286
0.07673884716727218
0.08748492422501333
0.02670787586095827
-0.0421514136575809
0.034650342440285614
0.13806231077697353
0.01235460504103713
-0.03384747538205191
-0.02438889548468591
0.016249127914066748
-0.02968545750551533
-0.01620342101023066
0.06407929913369456
0.024587162645053146
0.04338233309277896
-0.029481260711712035
0.00887271995849065
0.004322427190134477
-0.01378267313976563
-0.011872542956689528
0.002825173955012524
-0.042135504252242134
-0.013651755802272259
0.003069075013728797
0.004276559186734656
0.02224435094231533
0.005869985034801237
0.05061413194738747
-0.03458842495313273
-0.007226193532541231
-0.021748855934604197
-0.05330377002338392
-0.053395925904112886
-0.01602294962130419
0.024065820929483398
0.026594697306248978
0.014796594163111606
-0.015140455948061215
0.08561141600401075
0.004602975753287077
0.010728890520727128
0.04399411317189369
-0.019624336144422824
-0.03719754034643772
0.005298096136601438
-0.021722411590024606
0.018552868998271153
-0.03587266335656383
0.15225302989318829
0.11876948320462655
-0.05063480770240764
0.012003476205465064
-0.013975978658004274
0.050400642245466296
-0.0035431394869640032
0.03939651847883285
-0.14805348146303796
-0.17806106623914944
0.01415065276902143
-0.01418664195213827
0.0008058863312738494
0.03780185243218952
0.009255735078383388
0.0009168890713139551
0.029164949248581675
0.01086365112097332
0.04853301957926273
-0.06837087115613695
-0.03174661783332694
-0.0024177374644037478
-0.047889877006169125
-0.08885057189037474
0.027571250472763896
0.07157007513645171
-0.22783168001546575
-0.10770551576779473
0.04037154796492569
0.10192839409057394
-0.01590751976116942
-0.03386545599553758
0.04209012136658844
0.07714901628757204
0.04453793103239553
0.0585602226890515
-0.018597347295544495
-0.12340261512443212
0.052254131929802085
0.01624544045207499
0.00041021489544610794
-0.03522861003361005
-0.027118311144942953
-0.012926810429464647
0.022495536491919644
0.07865851045465545
0.019118983587693393
-0.027468362855009584
0.00541518256325059
-0.004803777317815655
0.0030860499789207843
0.006717318038432905
0.050153272426861864
0.12624571630070935
-0.019565475092763976
-0.03620420906932055
0.03846070310133819
-0.006216724159276918
0.04238616268621336
-0.019487040576827774
-0.009452310287621536
0.030298179681030477
0.02620489056919848
-0.139506428296818
-0.08065042442746923
-0.012782742460421614
-0.03888061593862479
-0.039103462149056946
-0.025640280683981224
0.005414328526879916
-0.015199659764734598
0.009194153131693843
0.0027096774221384754
0.004519933893005227
0.026309726100702445
-0.0318153147881107
0.07960259676035945
0.21461143291325216
0.017554558427954017
0.005808690641526123
-0.07958544687479942
-0.009554667001151408
-0.06259699122699525
0.02595649887001236
0.05609412407052134
-0.013902240745517092
0.017907784601552363
0.018788743121171753
-0.04327982350148206
0.0014209822348822533
-7.384970683039306e-05
0.02328016429041572
0.06589493698802913
0.00238470816376015
0.0058863693939127356
0.014010211730224603
-0.028909284679937326
0.03415739853095969
-0.001773073923235504
-0.021653970417195485
0.03660006771062478
0.003882571328848441
-0.11040595146091989
-0.01977904517729308
0.05029067158023753
0.07474860554085816
0.02276360006958015
0.039637162506376236
-0.020111354397395472
0.04196028068254284
0.03125030160127474
0.07790957630565142
-0.19563991083419802
-0.20516021277198276
-0.049785159446126166
-0.053985182769274005
0.06358904699474555
0.012846969125732218
0.03521262073592769
-0.22886838415487679
-0.1668817705897651
0.06377533825618857
0.05738670246972494
0.06882488122721013
-0.015991664967585226
-0.03238544275482094
0.003509293453321535
0.055103380418939564
0.04290211464137187
0.004886149606986755
0.032298666962293235
0.013309983111629895
-0.0009310679780241647
0.05465079853619337
0.05146035307392283
0.0029257097250787894
0.038166590444204694
0.02435997667289114
0.010486857430495593
-0.025747104100971783
0.013007425668542523
-0.08097677549630128
-0.03231254717375609
0.062244687121469654
0.023587549603233858
0.02664193016327426
-0.010585944515029916
0.01903018046387291
-0.004921618205643264
-0.05184744489193849
-0.010434447096165183
0.028398724531829206
0.015330214780905975
0.013809783593411866
0.023226390632084586
-0.03213855757585883
-0.005484168332336254
-0.017180508535925135
-0.017816317965564224
-0.011432478615495727
0.00970556379085694
-0.003496840862864405
-0.008203075123547596
-0.035538355342379487
0.01387545848859467
-0.007174347481965542
0.02290485562587474
-0.03059912960578484
0.1177685810204015
0.03605418999213839
-0.031292863945713165
0.04209696653339692
-0.010058603924861931
-0.0024975497089909124
-0.034515335517330055
0.007280323168601591
-0.02473042735853987
-0.01831944570783751
-0.019917248352341564
0.0015688337152902879
0.03725942911373823
-0.020824308460117402
-0.0391835692505301
-0.037133925808318195
0.008204996562724854
-0.0024893210449287847
0.003766501475622614
-0.059774544108396714
-0.052932294397538326
-0.004985105271385162
-0.046365343081444826
-0.0013653160741835084
-0.051531505603710115
0.055039129312459696
0.19262291276864693
0.007731915814444384
-0.01785115731958559
-0.02465453565732036
-0.01336764973898406
-0.013727886548314165
-0.012321765064632204
-0.024775225160654814
0.01444353196055915
0.09026297928269057
-0.020488816726431262
-0.01616521828767302
-0.0007617510800200423
0.10051670467191175
0.03531621747833109
-0.04462183487476309
-0.0070205307844583694
0.0015153500266138502
-0.044177216547529374
-0.03837765023998225
-0.024630011275315458
-0.014646179806362864
-0.014282156215577282
-0.04526276097107079
0.0630271447573755
-0.025359143316649475
-0.03533971358911882
-0.047166604728427916
-0.022778900327117192
-0.06351224581843366
0.051497151293131954
0.02517213079093941
0.0012804189320310706
-0.012377764664379154
0.02645784073022694
-0.049065129888697115
0.058568503673875
0.1805520630352962
0.28484491048190685
0.028598955291416133
-0.03832626572027103
0.018363440204504686
-0.023977458166040824
0.018709070704126727
-0.010669819457768034
0.05445581844994535
-0.006575281787858647
-0.037635913449338906
-0.018257092804779745
-0.0184061174654551
-0.03496334776163327
0.010568391203918824
-0.025035794309594874
-0.0008688482023646288
-0.0030810710876056978
0.029158813150627044
0.0009929950632776806
-0.00457368902051901
-0.05790812492634502
-0.02623888414291049
-0.0057266675517293
-0.04728728808040469
-0.027791345382191354
-0.0038265000804405466
-0.014212061732556687
-0.024046491187343835
-0.021525936094322795
0.017774631911534788
-0.03472414290759543
-0.10567684795568844
0.035714256048982346
0.055759106083319014
-0.005259956874221346
-0.010159282012989657
-0.025088203124505482
-0.003097802296041983
-0.028121317645308452
0.004855195343725903
-0.008783067488551738
-0.06263391899217592
-0.02540547139590004
0.014970498633406274
-0.030842757765032258
0.013281327775813099
0.014996760749879953
0.04303340635187017
-0.0296232822012576
0.07961045572328564
0.06677953399466015
0.004835297372394145
-0.011284368235121158
-0.10026778965488066
0.06358690038193188
0.07600782820635672
-0.013663660268518235
0.010980869483535535
0.001329329381971808
-0.002999733159254959
0.008849645980113311
-0.00019425134831251234
-0.06962112025777573
-0.017215847457212264
0.01651718843774188
-0.005791776632435812
-0.001946298965405876
0.0016931489411373243
-0.006048896621065384
0.003392777163816611
-0.009371656658836366
-0.01430871823561236
-0.004575578720289566
0.016768567316455676
-0.010477197821274122
-0.011332081086955732
-0.020900810470693604
0.019254019385469313
0.016730242129537495
-0.0015821191468881153
-0.037339954827813125
0.006197568053310099
0.02867144382392364
-0.0012626630733204272
-0.0027634295976205108
0.05541437850223582
0.011992760971876041
0.12535973815082685
0.07571707310973894
-0.06037662359664213
-0.0103996942409735
-0.0038237400755737555
0.0345170127187766
-0.02631043691554496
-0.0025814859818510945
0.026967209792102473
0.017704289408167727
-0.011267471414696062
-0.016782940845526048
-0.011310530562059459
-0.004229202936813507
0.006644605547565368
0.03142163256226289
-0.04424961338760494
-0.031631823746179746
-0.046826790679194506
-0.013745058043796013
-0.016198087549613594
-0.03413442683360907
-0.02308070276630224
-0.005884106486505701
-0.006951749349422649
-0.009328667069884207
0.04330813522460127
0.036808938064031405
0.011079421985387946
-0.007502255561200086
-0.033806761202964226
-0.018359774790490488
-0.05147459514380533
-0.006908873394794906
-0.02723618477252698
0.006154741278095987
-0.045055652779841554
-0.05506828110911976
0.10320910802428788
0.10339607270216673
0.012036709025711806
0.04700119656733777
-0.0755873623675207
-0.08981348665720222
0.00755342288819691
0.023832624941352906
-0.021601769946701196
0.02976848051820405
0.07308137262926907
-0.016894914472219684
0.009071833634452816
0.028815561470203917
0.015320488607148507
0.016033172920911973
-0.006792351723245872
-0.013864481519310601
-0.05899622858008147
-0.11450309330880955
0.048327493278489245
-0.03151246149069869
0.1154292282528909
-0.01295401292085767
0.1820001709552676
0.01065082870803559
-0.2780673607905558
0.011163670654697007
-0.025304600300531256
0.05937982701855487
0.2129304230376662
0.08963815798773891
-0.052966469522157014
-0.025968188880456693
0.005109718989105642
-0.00570166162347767
-0.01540405323663099
-0.03285676502903242
-0.02375512311173211
-0.01510558594010739
-0.043333355462014014
-0.02913791996390417
0.01985703533455043
0.017469195161917167
0.007421492190276615
0.04318785307373158
0.044634308585740565
-0.04039800170065506
-0.015974477723611335
0.0026806442158164904
0.0010788658607422674
-0.02867424983335015
-0.03288136043685707
-0.0036630234412621493
-0.02681024128680935
0.005221330245803556
0.010095522211922642
-0.020158784757428144
0.011442535206260719
0.008049023442998274
0.0007888683478328625
0.0077247691435191465
0.002812363636796338
-0.013985948219673866
0.02554941427560687
0.002117274903686929
-0.0075202957898664324
0.012130724798453604
-0.02336048607989248
-0.018667159278111238
-0.029886035559276394
0.00017769263815017568
-0.04308176444657455
-0.015965077882676235
0.06795702904468967
-0.014501293352659102
0.035738239586515036
-0.08628438163651123
-0.07283765992080908
0.0014687321556053163
0.017444231930252428
-0.038178021309815194
0.1424475351193293
0.2043376178641602
-0.04040309573916669
-0.11976913307633244
-0.07073075707845494
0.02838070346907601
-0.029492257596071925
0.040723080876894434
0.0014806722325103653
0.0036996705576934135
-0.016185838168831387
0.007789731717136952
0.036107888036232834
0.011494536132628576
-0.005549534113149626
0.03957224550716961
0.032034467116984766
-0.0009027346019377753
0.025501385633772095
0.05783766185700506
0.031352796040867534
0.006381143458310808
-0.04699548946700187
-0.13013622438312888
-0.0018973929933435358
0.005700462779753413
-0.0162792832240226
-0.0032762385031614356
-0.009085548814897133
0.0612656487434209
0.09892902179618739
0.019869123964806418
-0.006498702425010658
0.004458026758487403
0.02233960491024951
0.0480423143362144
-0.03176229369651165
0.00457666137951616
-0.040928325174896175
0.00704903497843002
-0.0659349473881214
-0.1175546572735555
-0.11378760493910607
-0.10489317304156821
0.030254871494657706
0.0005393151502662657
0.0011239615889899717
-0.013098568712557004
-0.011783645120942815
0.026967878980219327
0.049814221213082856
0.01990329615759453
0.02383780449098346
0.021681315655332677
0.02733219810389618
-0.012468765457150659
-0.0016623560969489318
0.0482488253459075
0.021308232537558557
0.0010754367226685276
-0.01971359349727224
0.005791968632296231
0.004167754726994708
0.014213398478575551
-0.017979542288895683
-0.07240724426955097
0.012385288418645606
0.007595547053305089
-0.0006906160724635198
0.0007311123506186414
0.02525718159303859
-0.01930909597194849
-0.03652340946893452
0.03145002736204435
0.06290835481790444
0.032499281947684706
-0.00623111980788801
0.04723236941180336
-0.0006480139442034789
0.003969412773823135
0.015570277898945727
-0.016991232559248278
-0.025925299977695472
-0.032786627331162055
0.0113584697628175
-0.015320760401572594
-0.025403362416451362
0.008589052462456828
0.025964189739908154
0.027014912948417426
-0.057996494100266034
-0.019420794901610857
0.015242115936497403
-0.018818573143028518
0.005447669273786454
0.003644245031820309
0.007971756620620617
-0.015004462528223175
0.012924248025796971
0.08014018912550079
0.0033993350941773927
0.019943881858675013
-0.010521896043550841
0.0050802259097726486
0.034540481414356394
-0.0003071050991619824
0.003897655803052237
0.02530188177864228
-0.06667767640433554
-0.04445391818244271
-0.06951999582603798
-0.01859893972926571
-0.022072353681117342
-0.0462849016644433
0.0262469687145701
-0.09529810304751725
-0.043008067542301
0.007310788842910273
0.0057922836887374955
0.038434811945236076
0.10329679553031862
0.03388883511299493
-0.014074962744491451
-0.003848690737951437
0.11215842756276723
0.13134744096998344
-0.08132841072267602
0.011621979221500784
-0.03156971451707598
-0.0042387587950732854
-0.022400027220230646
0.005709607892856377
-0.028822774100833302
-0.00314342936287678
-0.02954897967054812
0.03383633209499511
0.00047477770051651953
0.026215356156571893
0.005564057997133611
-0.022030632656648765
0.03221816903278541
0.021215275867893953
-0.007182621091249128
-0.09926574622006543
-0.0663907333616805
-0.01342084691394859
-0.024007167819676357
-0.010095015423507195
0.01275234214583662
0.003174520735150268
0.015169060581226473
-0.002962182187751764
-0.004827281265326259
0.0291780853533866
0.004140666844767203
0.00832450590695255
-0.0047420757286848565
0.00487212225228007
0.012611540021755656
-0.006760931993235755
-0.012737132888315208
0.02733319237311819
-0.04455454114695995
0.0382364367419551
0.026067709176535635
0.16801317785393072
0.08503661220800919
-0.08914643392067269
-0.048352132458046676
0.05180674095663726
-0.018723638991447102
0.012013087466359297
-0.018241245380299125
-0.016133638569731875
-0.04239794508355873
0.057663453206456404
0.061581260684621074
-0.06232810752573765
-0.09954364396524207
-0.05219609324500007
-0.0013279780926183744
0.010580920776260327
-0.018630633372623873
-0.024265547045090485
-0.0089610784088165
0.008572298604946503
0.13879367343820725
0.018263312980593964
-0.024507897503195552
0.029276145394517047
-0.01594446334758655
0.012366987846718736
-0.006360989188465632
-0.012462022394854257
-0.03751156127493817
0.023896523097533363
-0.035948312763869054
-0.19789415529390045
-0.05999729216349336
0.006507603354491159
0.015013009832051602
0.03560492756779354
0.005202150056800637
-0.017455460778744488
0.02393393178152785
0.03454016853243858
0.01729657297549768
-0.006339398433394867
0.04682213457133447
0.09847213167098842
0.004098817935081813
-0.0002117369665843341
0.012952528689304443
-0.053348156439910255
-0.05465431517641777
-0.0216443479408555
0.0044588815895712855
0.009763425999661506
0.016939989007270725
0.13548843458355841
-0.005194454697246389
-0.009242701408030546
0.047752514760498126
0.051131399553531576
-0.014120983263195086
0.01937986011744627
0.00518891944455162
-0.03320923713939752
-0.0036262217282403636
0.02449933933598753
-0.07838472719473417
-0.11391457213691422
0.019511956237800065
0.012913006437690853
-0.013778776287002437
0.04676332582601148
0.013263868388912732
-0.04691558683496271
-0.00545286057190093
-0.04088635151574122
-0.0014710825474581208
0.0036522603526797266
0.013947084581011585
-0.008668421231188057
0.030727152875706678
0.028579635068722242
-0.024312641232162445
0.011603647319490202
0.0010781746357055992
0.02837900776135156
0.0058921464900978625
-0.03522456852113454
-0.05151875806220774
-0.04687783648893103
0.10545833041384349
-0.020138896086621956
-0.11258289920962028
0.0343877158111124
0.027759959853934184
0.009021645263273268
-0.005241251276278945
0.018985674376632424
0.015509955151820678
0.034431935170098675
-0.002469034355014176
0.05121064935321247
-0.005745325955571269
0.04312765565642038
0.08591931650619103
-0.03903277642286993
-0.08142306256673557
0.014272386064473746
0.004699389859286483
-0.04872249251430309
-0.06615680778540729
-0.013463529457256462
-0.0038659822739316382
0.005643484683532669
-0.0011899141434489576
0.015149073356583068
-0.00866095542517449
0.022846046644792953
-0.013563552273941603
-0.02156747182084147
-0.01919776382385441
-0.026582341227755914
-0.025015454819364402
-0.010383721252949556
-0.027600143956984968
0.03354869275666778
0.017786231163956265
-0.001645088316875225
-0.013466176261488466
0.026934985883515252
-0.014899700283630727
0.04185560916160151
0.07115771299220018
-0.010788865336654529
0.0017978195657021073
0.0022245111319510557
-0.017315371902390513
0.005663930413837576
-0.012661482060577486
0.006448647008959377
0.023055275315488705
-0.031072500977990733
0.0797023296710942
0.011576250476168566
-0.009872283477087457
0.009973246402939551
-0.007764289303119469
0.033642362969381494
0.007728581184400958
0.005607697804013855
-0.035327755068157156
-0.008727224046585316
-0.007419067205640061
-0.021754743528580013
-0.02446675966384757
-0.009983951222699492
-0.02244250389123132
0.027196139083611605
0.0020906807151044714
0.018986090830467556
-0.0035681227132620583
-0.011431515473377599
0.030891964424172583
0.01553951164503675
0.026236336341762888
0.021407128260646016
-0.02330333557848376
-0.012472362420576304
-0.006598874342651304
-0.0338023933079426
0.009588256210160828
-0.04861834830593008
-0.053085700176422765
-0.015360422528628544
0.008876286896235016
0.005634584537882272
-0.025357027492309798
-0.019858818851496006
0.023046637633592937
-0.01597861728656933
0.03682364393983019
0.016608325600023975
-0.03283694348575403
-0.012881026531353451
-0.039099556205619
0.03305846090398415
-0.02402432115206979
-0.017396346787803555
-0.04574768504391646
0.022710331640733092
0.013458508897494689
-0.044636559270913596
-0.007030372061371311
0.013178716399816794
0.02107790614073014
0.08692636252892152
0.0520460225021258
0.02323213279905963
-0.014874807936636966
0.005206505373731377
0.008695279210036416
0.0054382230862043725
-0.03204156335171603
-0.040742949412491604
0.02881251988530101
0.12369522130810474
0.03133817930106867
-0.029984101041909992
-0.04417710619733221
0.08482473365333246
0.11665913593423481
-0.0072843360142341934
-0.020691992586636728
-0.07332776529554316
0.04821445475958473
0.005972968595979298
0.0008394115484555405
-0.06292017317168708
0.04548204003473889
0.04460321086266691
-0.04935818207994649
-0.02624641241707741
-0.007495126826087264
-0.016021285690875398
-0.03532840874065883
-0.00025945351572680635
0.016666525402777733
-0.002814042737825984
-0.06925504146469029
0.009833300410584328
-0.010172717235067689
-0.021728364444732993
-0.019327440657875016
-0.06845722753181793
-0.015234424907016271
0.028680090824152762
0.04522753964221453
-0.008967736666796587
-0.030755855952729307
0.005857525514260733
0.027421553578337567
0.004302341817204409
0.006088279045604532
-0.0013771120597474032
-0.012513553601210379
-0.007448650264717173
-0.017475464995030273
-0.04135377762121347
-0.03708245489532784
0.10937826237268414
0.0568757259047785
-0.0267601101248069
-0.015274311982793802
-0.02149494415343467
0.10266747732801917
0.007438685171094808
-0.0070947121912886294
0.022904133403014074
0.05551659330882361
0.024813452790242496
0.007413981779343747
0.020418788351220993
-0.16779266875633508
0.010000123792164245
-0.03782043714189764
-0.026926977430635435
0.012570680193085342
-0.02360140624873632
0.028464579773466364
0.004487771667656488
0.04789273922984016
-0.0024949943558858164
-0.0022071584169496413
-0.05275229758889043
-0.004770190605787896
-0.03238631377079385
-0.041726955993569716
0.01348900877026969
0.015728797042804724
0.01812071644262831
-0.026161416017006698
0.014319705337641986
0.014717922523856076
0.021562292590659605
-0.03598884793957839
-0.13018121099841312
0.026387066797941366
0.027092452255459833
-0.001285097818517378
0.013544213805945634
0.04540733974713433
0.011118926990263699
0.023510216078109887
-0.015671399402663686
0.0010879617356106652
-0.040611183302362394
-0.05838923887121662
-0.00912475729084419
0.031721899738858056
0.0371195574999513
0.12562016389971536
0.08134151739882481
-0.024277862391273452
0.029005567016891106
-0.02673672881280925
-0.03919756701584264
-0.020542917655000985
-0.004328450056972403
-0.02037508555821509
-0.0007395529257097687
-0.008544968176637892
-0.0036443594996553707
0.009373773790365131
0.009062897001921352
-0.01699783248270932
0.056265638224348914
0.06730349622077968
-0.027544869701784103
-0.014159768534893691
0.0033262614085091645
-0.035048177913338675
-0.08808705079885899
-0.0063890180088313426
0.020448908404029312
0.008267986989970498
-0.03577952985241485
0.04615917214996475
0.08176784265410526
-0.05956268865524209
-0.0034929035484458563
-0.01707978844850334
-0.023781742047809404
0.015235165967257268
0.0107381878082659
0.04180441870464772
0.06514603795232625
-0.004570744235828293
0.018581120790513547
-0.01273485998106846
0.014122521639244734
-0.125287143459634
-0.14645214937410952
0.02927129305879194
0.010953354566784307
0.027472919329693108
0.017291565034669453
-0.0032365504570254756
0.04444728393727861
0.03376875981204137
-0.036503326313196506
-0.014012122676993276
0.001679928721994706
0.026509274002315307
-0.013448161210676622
0.002799008397982821
0.012357819785704749
0.01067477298483946
-0.013808696401320424
-0.0015563511322175079
0.03164582586100993
-0.005717002056520764
0.01451387787005155
0.010821255943251252
-0.00024796368848898075
-0.0007242259708708037
-0.01870907121335875
0.04079636933098964
-0.004129722919600591
-0.0024807989335332665
-0.0114340771662693
0.04514277003392137
-0.02242428697309135
-0.02274067927826116
-0.006667759357362249
0.003342725445754821
0.008134255425862186
-0.027435673510186963
-0.004715692436958407
0.030301395927507687
-0.013051981951062419
0.007091082802733562
-0.021343007102791973
0.008711111968340197
0.0212042130529131
-0.018629149495542757
-0.009988331078708512
0.006829235158852199
-0.03401398328058562
-0.09073703071669628
-0.007127489369207235
-0.03634429617273349
0.006307994149877637
0.010506321878914359
-0.0012144951465320347
-0.012174341781209998
-0.023207898767241407
0.004952435479030214
0.01949983577870128
0.05170919411545968
0.00032211388707603395
-0.025506581719667836
0.09928849321520253
-0.005343812562578472
0.005511441526952096
0.05600772548715558
0.0026660223800725733
-0.0038942727682548767
0.016335827127697822
0.046150877809380826
-0.03892937180080039
-0.010236014294485188
0.00205710781469763
-0.056185701198908214
0.03796345973309215
0.07853498850101286
0.03423244263144821
-0.05716127419832187
-0.10705039113727506
0.154617287006041
0.0721147489256389
-0.07215411997360473
-0.12615370884242327
0.010027321066998378
-0.005955193761352674
-0.015021861514149335
0.0014482804437033186
0.026508069448208126
0.003717366484680702
0.014726909991912939
-0.028480795052939434
0.05931872675897504
0.08796760254562093
0.01660385678285429
0.03659611147708455
-0.02224125287323169
0.00015622004065262248
0.017336888717400592
0.02889495130088276
-0.09737888789454464
-0.07023029855880522
-0.01097187765173451
-0.008181452321154935
0.007484773389293138
-0.008232683799224889
-0.13581530712310294
0.003643814801086159
-0.04802139996386088
-0.03854135075999527
-0.060599009754496884
-0.03932595294365416
-0.007743983229638791
-0.01557680815526849
0.013417215486569538
0.0174027156894773
-0.006888736733025532
0.09159435653035283
0.09398312815668144
-0.01336363885768494
0.013481141185185945
-0.016677147518457135
-0.037729674011119485
0.010353533472046402
0.019365179028881997
0.06687151530391175
0.012970567871312387
0.15092237252563423
0.07748370651465522
0.021187235597728792
0.0027017595101652926
-0.004726873683434585
-0.006668290448103036
-0.07043872534285976
-0.03929298833160707
-0.01908920246391034
-0.01134932698955951
-0.009816391060916417
-0.025288859609993504
0.018364520969668185
0.014271997720683332
0.03438865047079156
0.0028190430307134546
-0.02839711445044153
-0.0018038420911900704
-0.004593503247428611
-0.04312002620775867
-0.02606090413035522
0.002478892393136043
-0.013337073812548568
-0.019492925648533985
-0.010161136480510513
-0.04852756322041464
0.02083482843897391
-0.0006305172345702349
-0.041811379155392736
0.03025755201924057
0.03473345247689818
-0.021779669401235276
-0.02170745933235599
0.019411692505149417
0.08638283648679998
0.0361211879205727
-0.03374476621545668
-0.008754020296206939
-0.03266676761413255
-0.00999916325208115
0.008207521946888504
-0.025006668574402823
-0.013086138687650004
-0.018359490541945
-0.035562868201048696
-0.12522309922307417
-0.03430150126859034
0.08071228281660354
0.05307030560387097
-0.04029696414645954
-0.009958279125494124
-0.004845150075715339
0.025087742087466815
-0.012882413357624778
0.10724729725824839
0.025803605781156525
-0.047647943247507846
-0.0014888096909264265
0.030316855767392095
0.0521631227907909
0.02332875664218993
-0.023997351884019972
0.0595498006478064
