0
0.014337012136492876
0.01329610723199873
-0.029884508912301846
-0.006382217246308238
0.0007790382922170937
0.044806046001635166
0.02823810643232336
0.008451143177584379
-0.07962593048886646
-0.056126451211551506
-0.03587274147682468
-0.14275256727934418
0.010734109944297883
0.016484473656024817
-0.002564693852978353
0.028302282636164723
0.03881174801943132
-0.04723178530384345
0.03690084229719238
-0.018779358099190093
-0.0025957365841155376
-0.04055353839129436
0.05784779903625787
0.06693403378143899
0.06296484685696814
-0.019216864103317258
-0.018739681609633043
0.15204847505993288
0.1095558954367005
-0.06577177784550223
0.032046736047038574
0.084025547509915
0.031854172233005046
-0.05127420698011491
-0.003377326073017264
0.01143883727547859
0.0015008963024861852
0.007564402224859699
0.021593002285531317
0.023954839298960237
-0.013280543606134492
-0.08879853297570837
-0.01353484733286138
-0.010565488703731736
0.04843464985366615
-0.016113020937264844
-0.00587604444304918
-0.009123597513514308
0.031494646446355
-0.11035717013520181
-0.050666617334030044
-0.08658616475085536
-0.0015943614523001189
0.007415574495191725
0.011423611882721897
0.015148460745915212
0.021820548614626678
0.042474397906939666
-0.013680603679934854
0.042880738396508224
-0.06407891736324486
-0.08095030245908051
0.0289575367588125
-0.03931474994263654
-0.020791954572925493
0.033615329764058205
-0.01880048630375462
-0.0001272115932328076
-0.013314114733461372
-0.007976381158656487
0.0049828896804313015
0.023446570948434643
0.016860539060403707
-0.00012022063505944013
0.025357500095584493
-0.013241612808650799
-0.007276925828014182
0.006331430134815459
0.007957299993364687
0.019215114943799728
-0.004531825453517628
0.054710696223329934
0.025052817599029165
0.02492162719134513
0.013942175977755362
-0.060506642782700196
-0.011553280862557466
-0.029470989250719497
0.008915385599920295
0.003613254561540442
0.01688943862256682
-0.0034367739702222517
0.0011679603056888902
0.03249081309641291
0.024552751904291483
-0.00043733584964901625
0.01793607428447003
-0.057215177217760316
0.024680982464359305
0.006191799074828927
-0.025179296140573442
0.024300933076899203
0.012788942583192953
-0.04823110644368915
-0.16721928218378668
-0.02125878961036382
3.8138210353068915e-06
-0.012099820788988011
0.004133582746861301
0.024759767266710968
0.02481975373006356
0.028245412850232056
-0.08638144830583898
-0.04417701964036605
0.02007295477461879
0.01781888267148696
0.0035357025875574918
0.013175389889063372
0.0337780207208859
-0.033175986265467604
-0.02922556328412248
0.048646722882876296
0.03759807198400874
0.014406749030991511
-0.021307205027720433
0.006294691809702232
-0.0012892965477145487
-0.023824639707229242
0.013340923749321948
-0.00747252044730165
0.03326363003554825
0.013256739039892888
-0.01597769755400684
0.009851640361947894
0.00964643564762242
-0.01300295868738959
-0.0009672313136520519
0.031694722454768356
-0.042583197097703494
0.03045853176857371
0.11667052454839204
0.17296522566172592
0.015397623654002122
-0.024482859851600335
0.019499644608502825
-0.019839302529452603
0.10321599562554588
0.022529286754532647
-0.0161137250371895
0.00036334591237269497
0.009814688377378193
-0.03788769906624501
0.007391759702863986
-0.02909376459669913
-0.011069028419961019
-0.06817305542592829
-0.20969806953762637
0.012929225322171193
-0.027876987683114016
-0.023080570378686067
-0.01022349685462929
0.029442354336369332
0.08362362321575326
-0.015771170836857553
-0.020403285555308646
0.0009468871355217453
0.044680569317143586
-0.009471271622914295
-0.011527924484475508
-0.030018097645579906
-0.026307632628042695
-0.016299885116896676
0.015204669394137987
0.005343446601223323
-0.021907678025728586
-0.03489547724339147
-0.021664383571636338
0.013147764586874692
0.0018143100209711467
-0.0007775381330238929
-0.0033438086649854484
-0.022977446373980755
-0.011593603449930502
0.024788724857672615
0.18226173624503914
0.028517133825881936
0.018940754797231178
-0.19285340039722995
-0.050499266358257605
0.017954085278372743
0.00011388039572880529
-0.003304228602134123
-0.025454566588988065
-0.013434224058076965
0.03730470582709076
0.12539921682065922
0.10865891005409843
-0.09598809787915946
-0.2638514367516094
-0.0023654357280141385
-0.018386570670253358
0.005297274009848514
0.017298638033295795
-0.006960216143940865
0.0013930393128333363
-0.04512942906155073
0.001960265920441758
0.09752785505883242
0.0628250164516699
-0.057631672985733615
0.1211778375613267
0.2091251640820705
-0.11636625199679922
0.010538559145364569
0.03111038867342586
-0.0010088422566082642
-0.03659599988631595
0.013832564717487898
0.001405081002515159
0.002808661200376505
-0.0041048102686249595
0.017688202533014303
0.02278595774842354
-0.02243093012049981
-0.012006977248891063
-0.0026292223591405464
-0.014463273700076409
-0.0012912908637234518
0.0018009342625639065
-0.016522276097531294
-0.01689810072865475
0.006960383540228968
0.010535369389266162
0.07654288227762894
0.04380654006741479
-0.008359477418638845
0.036240366572781874
-0.02681916642251101
-0.06858013895500979
-0.03487187715231661
0.055539583408007326
0.027888218597961357
-0.02143687679717757
-0.035706558630631484
-0.04976849166591697
-0.0014472781125049866
-0.03753136340055065
-0.06240259666617881
-0.016854719479780424
0.004090192893126913
0.020189491613672044
0.018024512984183685
-0.026430760094379706
0.05738137246981161
0.01811617121888575
-0.03142072192977134
0.019865165416783633
-0.021831150263303827
0.01327739129781245
0.025809883604565327
-0.02884468979860648
-0.005631426727700908
0.03627495741788475
-0.004261552490386413
0.10301909183248958
0.04808394658115738
-0.005699081823091799
0.0037278796747715823
-0.13588678625811212
-0.03115077741096173
-0.029417102921208187
-0.0451864134712683
-0.029058739182689884
0.0013565256147317413
0.036319580357069794
0.0977410240886934
0.06288165156953411
-0.028827343964432497
-0.24901547908381924
0.005218982875764537
-0.06685545471078415
0.11169390392934948
0.21175915934210798
0.015735653707304655
0.017597550602465435
0.02014322123262062
-0.024221902189561238
0.01965636443000577
-0.1247219903094188
-0.09137977538894543
0.026454208707601123
-0.04414512481623974
0.03870835674477161
0.004723051947879099
-0.02966634225348801
-0.013136197747010449
0.02099801541178265
-0.006916945148157952
-0.01829211033130953
-0.012951849802312126
-0.029460179904662834
-0.03846101428311078
-0.006144215465754157
0.07412527959274039
-0.005337161477130596
0.03563502448628855
0.025478408477422426
-0.008517553153784963
-0.02346526443215426
0.00023662515063200103
-0.03606262689219772
-0.034600142816186015
0.009667127332871698
0.041924247267900096
-0.052521546389477106
0.07333937978926708
0.10702267216049877
-0.04782776102355377
0.09111215820100349
0.047919791322923934
-0.006232701556821655
0.00930678725063448
0.02827787180234261
-0.03627279158708658
-0.025926080483507054
0.06152734167816189
-0.06443489447215552
-0.062333409863303005
0.03867718686408194
-0.01239190133954178
-0.019195787199766317
-0.032825562976689884
0.020921662212439112
-0.02102287777888472
0.0458794807119077
0.02770261405855964
-0.03172208302552226
-0.16206296980677132
-0.005386825614242767
0.004668844116836609
0.2415702749462432
0.09801462136294462
-0.051863727648968544
0.00772534211750021
-0.05840011602153013
-0.00246133292668346
0.015111992332873508
0.022017086221010132
0.005653946812712103
0.006803351580903567
0.005269751747264004
-0.0003085258412169781
-0.013042319704703965
-0.05402555420999911
-0.008242227888050251
0.032416919848335425
-0.021691608177658184
0.023877087035255318
-0.045909998163041366
0.009235534968576644
0.024458836022230236
0.003366609004153037
0.009892632259383635
-0.05340851136484981
0.019385166181460176
0.03459685600520643
-0.030802047452461002
-0.03060212765669257
-0.03677101467438826
-0.013291252271993603
-0.019704011915627092
-0.002634251080166285
0.00693577671761493
0.025806018848591523
0.0031087973445360585
-0.013756318042676546
-0.010050416911694553
-0.031033176543954325
0.002632746120231171
-0.015189220132784413
0.01362821369087762
0.0002829823560786006
0.0014612897086379664
-0.005420774071469577
0.037794725151891015
0.015046281753963692
-0.02898133279077863
-0.033486722564926116
0.03032135737267027
-0.025781559282967107
-0.027277569137732723
0.029591909372238295
0.020891937962721912
-0.039409271528258065
0.03197247943887985
0.11288684131702316
0.051511860469055384
-0.07727476753529056
-0.06995314532590344
-0.08467539996984363
-0.029999925478662506
-0.04416125785350528
0.012081712649339238
-0.006815469288964995
0.10627884043795639
0.0503762233114652
-0.02518870158596353
0.04304171726821603
-0.018852120684355798
0.03548399087828892
0.024317674263345825
0.0020277831995173575
0.005229634189868548
0.0365980210911898
0.009169295743329855
-0.045635680236816537
-0.06772337211812259
0.02806623308397343
0.025158704497880224
-0.029621868486178354
-0.05156209033858248
-0.0166402887186599
0.013985115878751848
-0.0168558367947713
-0.044674195998640205
-0.046193256643027605
0.0212848660216389
0.0208834840601173
-0.02600604955305587
0.008367512998180518
0.005710229414722488
-0.006520352806969022
-0.007057897543062732
0.04324410290991818
0.10387569551020649
0.005990221178615545
0.030366432171341783
0.02987924483588455
-0.04780108303560532
0.032424764852187454
0.0041529002884743834
0.032836335266285065
-0.01740316718575557
0.06280022675084196
0.03714806206342272
-0.016689895962471363
-0.11658156502938806
-0.006459695638655424
0.034262414443153984
-0.0060934746705108645
-0.03315951441657432
-0.031034493550680185
-0.029928418329287994
0.03280774244340658
-0.007486289411416859
0.016035788739008676
0.013024257254658477
-0.012508764513032384
-0.031784043218860664
-0.02101618902418954
-0.014312646591037613
0.07771736183200117
0.09367371260604664
-0.08195838600043195
-0.02956332466823001
-0.0023849703302227824
0.08010906864776335
0.0006150444538787883
-0.041688682308764186
-0.0029027303060915324
0.016286455561753486
-0.002085523404749569
-0.13419834559529328
-0.07245360870262824
0.020713507858580144
-0.015064959051104797
0.0337012460811499
0.032723181540146945
-0.008605973580079106
0.01919768470262018
0.005562119755235768
0.02064024957091537
0.030028605387917413
-0.007976501020012614
0.0051562514399527345
-0.014393365435625778
0.004170586717465402
-0.041792286864383923
0.025648597990136874
0.08597847884199032
-0.011671225723531372
0.01735514064418498
-0.00653778215858004
-0.01781210917865277
-0.016676331522051648
-0.002789790359660262
0.025005003533488175
0.02463462934857715
-0.025782808274442147
-0.060365227454993294
0.05678055477659935
0.039706501657558096
-0.004579702750294492
-0.00685191184264413
0.0016505873393824492
0.018398109478001055
-0.013406162045486327
0.011361934813422995
0.04625022869056969
0.022440622028497014
0.0018978461026204763
0.02136622315052101
-0.0205011948829149
-0.02195636380675346
-0.01089922892915805
-0.021709005593604176
-0.039561851196793646
0.02975854040397605
0.047490340358458914
0.013965609542218333
-0.020129977882828845
-0.004186113216919577
-0.07159485281423794
-0.06936086132858979
0.0293125069775673
-0.011242236932335179
0.010455894091629404
-0.002655298846584263
0.022134149619428896
0.0408468640288778
0.04043930970275292
-0.011549675059455387
-0.008615319527360152
0.01672264186422605
-0.052797006294344334
0.0025259751949237266
-0.02304585785171637
-0.03452178372968746
0.014129948675234847
-0.004164599234746489
-0.006108238640077912
-0.01873867279312041
0.025856348540544773
-0.06751008086952952
-0.03858513505674375
0.028164929352756118
-0.005771033343477023
-0.014794940175082223
-0.09772724448437199
-0.08174258662437905
0.0064937721162125475
-0.012026587072327937
-0.003156240591664189
0.020729381946048737
0.08575228372049612
0.0012360633119540445
0.0824167685265402
0.11677173544229875
-0.04094373230300241
-0.037039456757702226
-0.022149723971171726
0.031477513282899855
-0.002684546446248863
0.024848014882173527
-0.01818951372747345
0.0001986099208531101
0.020587594274007425
0.0021953702428753937
0.01430457715729368
-0.017596089852232273
-0.10401112582233772
-0.027802019008543212
-0.015722164821023867
-0.021617145931566068
0.02568424215705858
-0.0552895097364204
0.017336799161720845
-0.05408433109108243
0.18995389463789336
0.1611729153070514
-0.0634003564342999
0.04403279477208842
-0.002792678644467894
-0.012759141034400455
-0.019003044370759017
0.021538898997542775
-0.0032690683384207333
0.01112008526427279
-0.04493975577727988
0.012044697000905411
-0.0368637984770988
-0.0003738847320777851
0.11128602533868386
0.002517856480341269
-0.023644611881380895
0.03187343363852619
-0.015315859822225011
-0.00962865787383155
-0.02715131386992832
0.01812049791498758
-0.03513911884317126
-0.051339778486233924
0.007571966782947083
0.01237301260635103
-0.012366806134495822
0.010628095773969077
-0.01185757018346164
0.036928156718607545
0.0056186896856163775
-0.030089388630992236
0.023652712498221613
0.017580341565038477
-0.06380532182621446
-0.007708109658036381
-0.04250622120523887
0.10426274966700726
0.0036350494256155662
-0.005887262997114307
0.02785299078629212
-0.020481933120597005
-0.032810091714228835
0.013068502591047661
0.04548100754757504
-0.0004434014221113942
0.00026160863369493787
0.024988833388611773
0.005505561240040534
0.018154419010791352
-0.007033106412967658
-0.021966681746608714
0.007610376364148598
0.006391117050514915
0.05552032369937512
0.01526411039430881
-0.03573914327116506
-0.12186445381927187
-0.024185546518302087
-0.0066165319380047565
-0.030167140170131074
-0.06563924277491312
-0.01566450581826206
0.03589247191698327
0.04331280976075222
-0.021851567829970622
-0.011166617523196195
0.017245429250487457
-0.038084527653955855
0.19570607110014715
0.027007736732214474
-0.05893224653252039
0.029569689151664753
-0.03777560857781484
-0.027270720991798725
-0.021751528263908266
0.005566621727102537
-0.05545591442541233
-0.008247360616427522
-0.03132466850376995
-0.015053719416318445
0.04890915176317114
0.01365222649225484
-0.008441648512514922
-0.011187587828250408
-0.004813210029695914
-0.05518089015452891
-0.030927001411961277
-0.006591601543045549
-0.0026527026872943615
0.026316688459982845
-0.02323740417586212
-0.05021270445830453
0.049728360826376335
0.09816984045280956
-0.029301166401689012
0.0049232603225995535
-0.155346186877032
-0.11722852983062448
0.11984688952999159
0.021231880577351477
0.11858500052474583
0.10544871065467588
-0.007620179519569313
0.016446211043569966
0.005235045130796883
-0.002777666946701808
0.03286933127464752
-0.015029570178518479
-0.00014841777343309537
0.0011170086785259152
0.025354685440162943
0.03272797459500739
-0.025419040290297814
0.04189373197056231
-0.08503370578558594
-0.11263439017766279
0.08606648157878659
0.03082117244347524
-0.015075720697980173
-0.04993845711132748
-0.02321051612147646
0.012034211202834554
0.03127276215490431
-0.007763325995023268
-0.02744467563799965
0.013608624399848938
0.020609053164707018
0.02585049134019473
0.0037622478476167474
-0.005893347596048278
-0.028157416919821234
0.021281926303612978
0.04076834994620241
0.009857730360136886
-0.021589530098014797
0.0008755981438355803
0.047584530044261435
-0.021099758175043705
-0.020541082744331956
0.025936166694557113
0.014426457581136249
-0.02267940640079857
-0.004819384377816544
-0.003501355599266838
0.001341507720080399
-0.04502173803605269
0.0015384209294192327
-0.009162208563232561
0.02126949477458923
-0.0018019996524726142
0.007278314378597696
-0.04647418544289317
-0.08307407911470602
0.0024703534348304123
-0.00022788941872244729
0.01112739567427803
-0.008677388330293023
0.02158794421745337
0.009054942524391435
-0.015330060947939896
-0.010906322437513355
0.02692379220295498
-0.008768573406476129
-0.009041333243027817
0.013193634733163965
0.0680833150215474
-0.048197064741645465
-0.0022463746760667067
0.11357166701973898
0.018584258043486884
-0.00417769735710297
0.06788869795575807
0.009542577173390684
0.010750382870780235
0.0038568605677669217
-0.007080447449188955
0.003418111941015195
-0.16034484504506144
-0.05827627104887222
0.032486629682326525
0.01939109334639911
-0.040659101078548025
0.01625605964066792
0.016772138602666044
0.011871153528409815
0.05102490837400708
-0.02735462710718807
-0.16292714218745016
-0.003332309321532205
0.02044092450032219
0.05294852531916291
0.021841650756968364
0.011916919942133597
0.01628706155494231
0.009989950459542516
0.015175771151312236
0.0179190754497366
-0.01718823388748007
-0.013076933513523495
0.033305885709503665
0.02364543464617675
-0.03764644223214069
-0.052865581509980684
0.010070111052439485
-0.056525377357812094
-0.027111624363324597
0.0298807234404132
3.460342374671475e-05
0.027459955033478804
0.03223739689054398
-0.014572810825627757
0.03326402151389581
0.04200334058029776
-0.028217568615105448
-0.002393907889496101
0.018499002046461342
0.00014786166109347133
-0.001505515035057258
0.00312232658674695
0.008172459016143897
0.008574128998225712
0.03979359152767388
-0.042480992395198404
-0.006122287614020174
0.016413581740482155
0.0025796075037383772
0.049713476288786286
-0.04825176950662759
-0.059025961748644384
-0.00986331751850539
-0.007212844914215775
0.011607945017704126
0.012193523275784778
-0.008516400230045656
-0.0037555273023988324
0.009591091880740128
0.13590914681105204
-0.08129793048640237
-0.2225812702364945
0.0013126137110985139
-0.054151701586136726
-0.010167866393059447
0.027002801967840558
0.06845957644954653
0.060001046948146675
-0.02665334471504524
-0.009687827200049433
0.02953241944092487
0.038833001139227115
-0.040211977854654066
-0.11918339161607538
-0.016622685873747083
-0.06969487829471568
0.0002444226164638121
-0.014904098818186974
0.15904207671998546
0.0725884969253355
0.018558988646756154
0.07740567776088182
-0.004699901276276962
-0.0141734128578928
-0.005310967316983463
-0.004498169825007569
0.032391004101355966
-0.04894847618064871
0.06465407268076281
0.1162149909004822
-0.008715550547617372
0.012302171769986152
-0.012397588340207492
-0.026711880252662107
-0.16183327612983736
-0.029821403678326995
0.008109174098885012
0.039144736778458755
0.0032506916354325933
-0.02051394261733075
-0.041608577276923804
0.017862264921586487
0.014149385543861333
-0.004390625788457556
0.013344147782715818
0.03472508969499199
-0.01806712661579728
0.07252202423641621
0.021376215852697892
-0.05781168114915015
-0.031469140748228534
0.020167193729093508
-0.01076741484850276
-0.025059426168923926
-0.008934649008208149
0.044075265006283185
-0.002991238405491434
0.01705529793754645
-0.08501147415788961
-0.07840791992694676
0.05105848493882937
0.07054255829931615
-0.087706650468592
0.08311101241437485
0.07265576801642068
-0.06276781043235531
0.09281793674509649
0.03587842822928112
0.0017462872850325906
-0.01727365172071996
-0.013858817560887068
-0.039141356061159434
-0.003916240113475076
0.0027076457129478018
0.02623438017315573
-0.01613343830738153
0.006878566044544893
0.010070644423409507
-0.02639005954807566
-0.011753700894444075
0.02636850918675789
-0.02172258718569297
-0.00747604212486753
0.00024997007188332223
-0.001898046375355121
-0.008588384115866073
0.057605243871588906
0.005256222092747068
-0.017222029412975577
0.05179710080207534
0.0666860951697507
0.006987033254877015
-0.0008446787379058665
-0.04777366415423414
0.01789665302721447
-0.03504688752656178
0.023572029778213772
-0.09468488574890066
-0.3000789870400079
0.004252310285941699
0.004797597894334694
0.009193365680997816
0.061273170549301155
0.18053866809257083
-0.017643309484145317
-0.013913204182272633
-0.022378737734801445
0.026351733034998694
-0.02304313364709513
-0.012395228759116307
-0.019098034463485375
-0.03153737020255266
0.031047141084434467
0.025350989041042285
0.007783467624422235
0.0036311689383393283
0.008498657748360977
0.0026907811100551414
-0.04681219614531494
-0.016717910433163587
-0.030147661685419807
-0.00790511677679949
-0.010706441613269738
-0.021760562057708717
-0.030112918332922615
-0.030823930585250667
-0.019590622442091317
0.014178680855070167
-0.04622964070711633
0.003978884166616562
0.2075518172336553
0.034778386625304726
-0.006591991026648075
-0.06422512786595079
0.12391075558223012
0.0585920919953418
-0.03583324515285904
-0.010660442233131036
-0.002593253927883066
-0.02898407336182125
-0.024351696233672473
-0.014192555776726611
0.03361348887912689
-0.053223268130398856
-0.0902903718388763
-0.005299725171918541
-0.0004198327507447965
0.007038899116964192
0.17125443915710592
0.09786847064491809
-0.054742904701857824
0.024718572692654303
0.06427826402864957
0.006046287411756114
-0.033969955712873
0.040122350726786715
-0.03504693080896741
-0.07273187335839708
0.09905578865775579
0.08692944717104828
-0.0560644732773869
0.03662140980872652
-0.07914716166518151
-0.18103750989583212
-0.017580009365825468
-0.05824028295523836
0.029622346398743223
0.03559266488691718
0.02328479231228592
-0.006741072556180765
-0.008690130684953818
-0.031084347446966972
-0.009927244547596756
-0.009178790873508758
0.1197022032562114
0.0025931261414822923
0.1414450985892199
-0.010253980070999444
-0.24744742645092987
0.027630707727524483
-0.016803740315838776
-0.03835771768247867
-0.010554368360679195
0.013651479769506083
0.025630201592876458
0.008173601001260977
0.07811785940380463
-0.03156039146358243
-0.013636025517152098
0.021674963495473782
0.01710975560861953
-0.0063792232936638925
-0.002538778947795741
-0.027441448532616496
0.010426852537154778
0.012861230189575093
-0.0032344381347921254
0.009138588755463445
0.00597754309972176
-0.0049151491436025315
-0.004826607819882965
0.007101496122474454
0.013907186445122935
0.025187068148529522
0.012778090957641354
-0.061168598083153725
-0.04146410459525332
0.01278709387572387
-0.04064015048311672
0.0025269116808277884
-0.005471829776339615
-0.033389815061921596
-0.0002611636833326098
0.02702550047691129
0.015296029572116608
0.022461032117362004
0.007996998980230057
0.009328581663266094
-0.014895565972936271
0.0032833795736851874
0.00525703937084593
0.028034501466439318
0.008313707902006555
-0.012628424488644378
0.010602381027699916
-0.024285187201826937
-0.013490203170433177
0.008690137489899425
0.0023784749922824214
0.0193077974617985
0.005943292189436455
-0.004181797441817382
0.005634870618234016
-0.036273390543573585
-0.01534132635020081
0.06163579123812347
0.007415796905468292
0.0013193842952907392
-0.019770959405550445
0.025368487712046476
0.014445583231679
-0.013321040695058376
0.002586403017183346
-0.01984588436204742
-0.0121634763438305
-0.0006700039669510124
0.030377545975235128
0.02537374729909874
-0.0031714937932199863
-0.00419957714701876
0.04689316666843469
-0.045011171588090884
-0.024564748241164183
-0.02702389443571956
-0.010087776246968883
-0.01880193068188996
0.029170285987432248
0.012331149277358877
0.012934898487759451
-0.022785274024334477
-0.03269855646482869
0.002964234931491307
0.07829177338545892
0.02003701463601975
-0.026321329626129406
-0.02432294851315314
-0.004318355915810283
0.04773223145275092
-0.12358294800999038
-0.14802301462575843
0.0470508075794742
0.012501078082633175
0.007097129695581523
-0.03597825706244463
0.04280733695823774
0.01989958488652845
0.0022209343483303146
-0.0219825581719995
0.003312010598006158
0.05810008420820699
0.036162186989503624
-0.026519659109375
0.019583235136935984
0.0068880078205083494
-0.004013254343517123
0.014184052008316099
-0.013737998227877688
-0.03226564373751043
-0.005930474404884956
-0.011964795868864042
0.03803642179942874
0.014643030046967535
-0.002551100493422457
-0.011458540481877083
-0.01849540740135765
-0.029817172358559043
-0.027769862735415502
0.030333982917319965
0.12076103872187535
-0.07877459041237596
0.158172388829911
0.20025814124608665
-0.05357503635593573
-0.04005556862372412
-0.07979579895918172
-0.005647791248698705
-0.03444016666115685
-0.005395405099219862
-0.004242336303275981
-0.021230795154085314
0.07008153353483779
-0.10398510372360895
-0.050155418956561684
-0.0001746931167452116
-0.010265206451008558
-0.025143967727587743
-0.030505723089821964
0.007119515089812333
0.020850855579611433
-0.0346833985994052
0.09512040220678432
0.06984689221412066
-0.03896105014345368
-0.018726186086447147
-0.03321712439544871
-0.005985998734089022
0.00739442041830603
0.030704820777728927
-0.13581668521654736
0.008021496940875268
0.041155810492594494
0.04005875082977075
-0.028224779978270737
-0.013829411265204183
0.051515187401646026
0.11310383966319212
-0.00476417512351828
-0.022716300937035833
0.012681547642547747
-0.013316409348494648
0.003385133241182638
0.04726716745952703
-0.010180806054726339
-0.04568776968333272
0.023573257285011195
0.013328344070105223
-0.020749825252777833
0.0007814016891589556
0.029809301448550905
0.019920678243413006
-0.004269543162256329
-0.012831766193997918
-0.011528769650248441
0.020707348256380532
-0.015175111688565559
-0.02644558754266795
-0.01851536658535926
-0.008328164324658903
-0.0018700059931766625
-0.01592478689564702
-0.0698642548199388
-0.029720185766088387
0.013473426453777432
0.012000493919561166
0.007649005685529558
0.0025309355880614123
-0.008332117757211514
0.01754168076186765
-0.19288053298646068
-0.1152601320604888
0.07268350961167674
-0.023801899817867754
0.015228521049580335
-0.01863521948076722
0.03406854072727582
-0.00918274376551771
0.014025242744199204
-0.0605332280731866
0.213151926635767
0.21126480939751371
0.021336076008674973
0.02321652218182931
0.0628265315504137
-0.03853745559553707
-0.023782270074023445
-0.037084775512892035
-0.10389293069771106
0.009678097741328152
-0.007830499896264493
-0.002019952452681673
0.03029654341741599
-0.001707347737985199
-0.03205282360105105
-0.016426879447534327
-0.0030494772619939305
-0.0387096113534957
-0.0004986049308489824
0.014466794723007001
0.002010054634175374
-0.03020805377754775
0.06052845529931515
-0.09760386724316998
0.030548245320155983
0.11705896880869752
-0.011896138032092827
-0.01578499209475782
0.07250812264654298
0.11105155977537624
-0.02764681044781761
0.0034890669879045254
-0.004705171758182683
-0.033460097011556326
-0.010647698481943463
-0.0034116239067860953
0.010694953782539726
-0.07857103917678879
-0.09536551688735999
0.03478294578050465
0.0007694695248741593
0.006542991884821113
0.022819634336626513
0.028141417949637232
-0.006755554249285059
-0.0002694270776408333
-0.06536985250116997
-0.017638584501926843
0.016579855676335877
-0.0016874888630306172
0.003555314045064285
0.017616615749681517
0.03851827137238456
-0.06092600759724027
-0.0956730858949532
0.028725516760259296
-0.07962723603566052
-0.027413561618089416
-0.02642110110453797
-4.7040805814233953e-05
-0.022845249882557414
0.12194679208548433
0.07189688052473928
0.08787120502094155
-0.01161647259925315
0.020072252441530266
-0.001570135540937724
-0.020882675514914423
0.006841350033611318
0.01958087146160717
0.019434715162596237
0.003185370241873565
-0.04367243719795708
-0.03369020862801107
-0.021666340740611162
0.05060259962061463
-0.10654766994537429
-0.03181381178371287
0.01744290989355021
-0.010923616256007596
-0.010503004728593616
0.009024282159252767
0.010387811990624801
0.03515642492323308
0.051023479326032746
0.0008867606698559083
-0.10505158753681614
-0.028800902085326593
0.006524918078465308
-0.0067790815189752345
0.01813055308768882
0.05024426820211279
-0.027028463486117683
0.05807556251283313
-0.01000571198827425
-0.0063744043696625525
0.02689013396120529
0.015610460615535742
0.04743667712949275
-0.00956234512263462
-0.04479287036864126
-0.03710629393092066
0.049765521786421914
0.03248678604172768
0.12497630228986888
0.020857159340502144
-0.006059282732245567
-0.0035213715485970473
-0.025289958903799127
-0.017677414118643014
0.017329506836011938
-0.0037407446329307597
0.001949062936423392
-0.00047146336820364036
0.004735459911009635
-0.0055982622432172394
-0.01531075838938424
-0.0051990819258763985
0.02276110332630014
0.01632439309925036
-0.024378777704500233
0.000990665047269658
0.004674270350036237
0.010823330026453873
0.00163442752651291
-0.003085044115730565
-0.0063546767652422715
-0.0012135247474770144
-0.019523140538551653
-0.020530740050858504
-0.010280585220842773
0.008213139603154541
-0.003397171868027367
-0.014201364651203523
-0.0856214543379846
-0.11826604772820101
-0.008542847330173301
-0.03322631495039707
-0.011303196296310927
-0.1130494815189707
-0.04636123856093026
-0.09000949502151737
-0.00018855724183524164
-0.02971864608525332
0.010444851840378865
-0.023050075385358776
0.05185078104200563
0.10321458313032662
-0.016853194866690444
-0.05902715660000234
0.203666222830728
0.12337458459190254
-0.05061798851174111
0.029561661836312685
0.017451049885033893
0.018699013887924852
0.09307017677149086
0.04931498703738067
0.012017135482750574
-0.01723931362625651
0.0018551943698585918
0.0030578148284538865
-0.02609483869291151
0.004986165700651692
0.2568589408008306
0.03699459646406585
-0.04813020695673941
0.0058130160844029576
0.004385603916737692
0.02260394806088952
-0.03898293838854067
-0.030426626881225192
-0.004507986390938303
-0.03591261737013252
-0.2407251800780056
-0.03553799678099195
0.02763073860810395
0.003108661011917006
0.020171039241252083
-0.030664009996237408
0.02390744904473299
-0.002521847525410166
-0.02027016847274965
-0.02695423981635381
-0.02105624998517291
0.00819088366359359
-0.031103960283302253
0.054893420856348026
0.02854725209286111
-0.005855959505670838
0.026515610737500906
0.014615692842695713
0.12102644065100183
-0.05825780373752994
-0.10003250405552079
0.005878640384380481
-0.01065559831727754
-0.020928287728248368
-0.024950261097690836
-0.03801902316564908
0.030636862092348626
-0.00618748295872662
-0.03495342208155015
0.00909566887575102
0.029741684568959682
0.019764832813168952
0.004864277336111601
0.018782894576576982
-0.008735578979688538
-0.05384041759048869
-0.0024355385136448147
-0.010642159449622312
0.015347400472234414
0.003241502788685272
-0.0165381563098606
-0.021264768088071834
0.06603336060274785
0.06075013654662534
0.019627759993031214
0.05600010071803516
-0.02548781025443565
0.0016769386863558955
-0.03876993956040866
-0.035733999426850085
0.00371873031387123
-0.012492054554489509
0.0003324638485526131
0.055185719430460294
0.004550001908930717
-0.01703645267393912
-0.01749766166212181
0.0191341225003858
-0.004381046045939371
-0.025591359472432313
0.01121115933030205
0.0430340540278587
-0.02213833046932593
0.020091916684237234
-0.002627021923621449
-0.09209122524195561
-0.004719008392111004
-0.03055747632785252
-0.027356673651249712
-0.03511221808368279
-0.024460845224573036
0.052587412453777606
-0.040928269223187055
0.13005173402358675
0.14638123217759916
-0.045209524124784906
0.13964559741285312
-0.032718758923663695
-0.06957370367563752
0.011303416323124506
-0.015267458466384371
-0.0016748975164459165
0.036927017382539874
-0.18672582152412634
-0.12408200875024665
0.2775239803187301
0.019592287828809656
-0.05603294894163218
-0.008227366445596889
0.05675339414336206
0.14419975062929785
-0.013400071468702776
-0.023326580142294027
0.005377308742166156
0.008634412992120095
-0.03790996018761441
0.026601612710368667
-0.08315857795687098
-0.040235794455797044
0.015526458561821048
-0.005007817654603734
-0.07022214801934966
-0.24399529301457595
-0.04054162351917809
0.00751731902044048
-0.06517387455995552
0.05017924536332324
0.1406295542270904
-0.018550387591370218
0.01006306432376561
0.00926234258278472
0.03439281014821144
-0.0004051500034845948
0.017943994684818762
0.00017808333877218548
0.07617631868127568
-0.017357201656428962
0.03264541065332839
-0.1258680164742085
-0.1445432977615599
0.051473939703158264
-0.023691230265339074
0.01763161793267239
0.20526690862618535
0.06601862752818223
-0.027962760638696987
0.014163115979798193
-0.0036696930023210612
-0.005051832156436665
-0.04390613970216134
-0.0033491605508063965
-0.08680801852549626
