0
0.04733992679333591
-0.1815832618264385
-0.1382650289669085
0.011484260460733605
0.06327001289430151
0.10839573444054731
-0.002118203498650475
0.038519154181043014
0.02642605439958645
0.0018039076485900202
-0.014340833119683294
-0.24653866694259816
-0.11132643328228807
0.058491439799774315
-0.0007492353521352562
0.024785019147482157
-0.07885274302465575
0.011169339849852902
-0.009074973697476367
0.016295019817660194
0.029643039084369657
-0.005801723978540911
-0.047205745030117485
0.006531352254852646
0.09113277503389972
0.08350580271495872
0.04205653651126514
0.04006110737117666
0.009468992040216806
0.025821780797776174
0.030225826644034847
-0.0008009064772251132
-0.026438543017232415
0.009373285404744766
0.016832833854692482
-0.06824000739581643
-0.00010984966137052844
-0.05056451891581085
-0.2142540176781938
0.01283538932856939
-0.03025528041085499
-0.013906230777957185
0.08173957447765912
0.08259219864667044
0.050424072274008094
0.009778070417935015
0.006815602972085334
-0.010553355999985928
0.028374888463850893
-0.16622062265531287
-0.18746136809658284
0.04705914164924353
-0.046277468117414906
0.0020123281213197323
0.14573004898777703
0.054539490193348805
-0.042277731486962344
0.05534582509745719
0.21144266666599357
-0.014312822780811307
-0.009748844631589247
0.03408733469580368
-0.0576821591602336
0.012358109362013574
-0.014795792204880085
-0.0035045130113515173
-0.009335703059275677
0.014615852961162397
0.0005895370983339983
0.05341524849279627
0.00974591707098229
0.025120869199197083
-0.012739886128521762
-0.057925387466812986
0.008478648572615708
-0.11052761239257043
-0.10747341478659418
0.03971135630559232
-0.05935059642436915
0.025752729013327657
-0.035699946326740964
-0.005742934208146974
-0.046081186294418486
0.02625159044931118
0.005889428375824307
-0.010778595669656577
-0.027542740106506806
0.0206628114688451
-0.04157169735395233
-0.002770750061620277
0.03539603458811807
0.04228104220836652
-0.014365815778430787
-0.00448685743885196
-0.0339546384274387
0.019426821480601868
-0.02090742711505449
0.17730463640108313
0.1632840964444324
-0.05439831829809607
0.0071087886635253575
0.08777326455233991
-0.019331889965589558
-0.01827752634258464
-0.037298229527609854
0.057259749688519636
0.18039958397543973
-0.1492585783099547
0.026447897211291448
0.10292049270207138
-0.12217727533052994
-0.1033692217541878
-0.004800077217045607
-0.019120081050751598
0.008121316059894048
-0.03392735563999667
-0.010784368546866591
0.03369843347391376
0.018969437794603496
0.010292902281857676
-0.03879856767202452
0.02505275242248416
-0.005637998858819496
0.01776343736684235
-0.0038325928450363292
0.06259215695091218
0.009593389533121575
-0.004613986783487858
-0.01501179963481987
-0.011168321189347259
0.05529051522177938
-0.022832391906547074
-0.018525216600905402
0.011735658097606115
0.018758131928389127
0.0048852446110506315
-0.05694064366591506
0.010309970838820686
-0.04146811412312784
0.0017711443077682743
-0.02335166445050275
-0.04374385906492328
-0.08920719786032205
-0.021872471617918277
0.012476003559246784
-0.008493294661998193
0.008921008480662896
0.0350863884668581
-0.0327529384238589
-0.25295372287270473
-0.012779033000286974
0.013847746070170319
-0.06002241728414434
0.05839888819387664
0.02441355375760363
0.019568344235353686
0.026331382628223987
-0.021374786007304417
-0.013662796537992072
-0.04922594021389289
-0.09508916754449462
0.03474906276542179
-0.01595756136926078
0.10507545086723181
0.0629672974042386
0.0006446390389479794
-0.08314783645984326
0.2256780640819963
0.250486063223895
-0.04498836750702401
-0.014903022883827404
-0.009685482875977971
-0.01477874183530084
0.0006081675144976054
-0.00025545276702772576
-0.005753343342709378
0.012756517502589618
0.032258227311282195
0.020760280889225866
-0.04415690391531936
0.011729667373487506
0.06971213010545642
0.047320685903565744
0.13307237129032284
-0.07483856639514481
-0.12872360174823733
0.010282223408774695
-0.03545349626346534
-0.004265135790840319
0.09689749577069387
-0.04416337872670486
-0.01628550209889333
0.036338720732642014
0.04795899766411163
-0.016136312272841794
-0.00346046133108758
-0.03091571817478012
-0.2486907922803599
-0.04978415699956925
0.01544219068602833
-0.012693877330242973
-0.012969679304156372
0.04257373530893595
-0.012367584069450937
-0.03175590812942684
-0.026308094932626654
-0.005711385823887058
0.05845138735002451
-0.0040864478745677845
0.0028912693680082473
0.008373377885385972
0.083053041623051
0.021274882279509428
-0.015918396772331415
-0.035585440629322486
-0.014363940574079925
-0.00608141061467026
-0.019240068435253325
-0.003481425464079939
0.11141382005432139
0.021177366274402684
-0.007320682889089256
-0.022395025333001507
-0.005825759611683346
-0.010992408235079134
0.020652916589156252
-0.018589713423782964
-0.033668068269881876
0.01926640942334834
-0.004709011967366683
-0.015421713225480329
0.025571453356590685
-0.026843391194297385
0.0061777460601884875
-0.018107659020904072
-0.0019792142801188027
-0.004862290094059729
0.015164161594424564
-0.018599960365622
0.04199884478349876
0.062409877118243175
0.04790370079340193
-0.011639632765572235
0.0006198503247644214
0.08985489141187121
-0.08567171837251474
-0.1329764112908265
0.018216567612186395
-0.047952764992180076
0.1724188503354005
0.09887217956104753
-0.02045763085826603
-0.009452551564678594
-0.02128573917344293
0.035244918176930894
-0.03755843379641224
-0.038685412607753336
-0.033555779895141746
-0.01844557979218367
-0.0007365930357941171
0.012199644201424244
-0.0651124232068955
-0.03243767137052426
-0.04038844567657015
0.026997142742535684
-0.13115819041673435
-0.04729415005199583
0.012492488652636467
-0.027377921824493855
0.08854187081420861
0.1162566878763473
-0.01804959241467602
-0.025183956388680293
-0.019161074704075853
-0.11624719725889757
-0.0892363726708871
0.017912619669794544
0.06706925512509597
0.030812026699489698
-0.061856999314038465
0.004948496445875068
0.035020327876627406
0.0016142455506329284
-0.029990605437043762
0.060530454111532066
0.07434514791461388
0.2182197086839331
0.01262551713148206
-0.013853789915885735
-0.018271189964091567
0.020404114629374172
0.034179385648218576
-0.01559710982515748
0.024279061007679157
0.012650640898917678
-0.003848173342365105
0.04096705790446829
0.026420626900790025
-0.018519633404480502
-0.0160908181393759
0.004560571017735587
-0.02546987331334205
-0.004985711890951612
-0.008543515659141484
-0.04797771227476929
-0.0010787454546908146
-0.006686365726783078
0.054299323196046516
-0.1400511409968245
-0.08251630076154297
0.05991180185589075
-0.09952868269454943
-0.01784250675933854
0.009686806969719537
0.17305651248485712
0.09726202789998163
-0.022529674482965868
0.00568570105157061
-0.02766312373783087
0.015540245655345545
-0.003951940125753717
-0.08974841254199219
-0.2060654646405701
0.0004462706754483827
-0.008468743558357705
0.02976323099612737
-0.002275825945732686
0.07887493509925324
-0.009869871856142057
0.02962809134833377
0.06803747440193697
0.04120294586395199
-0.030666498471036707
0.010539105242276591
-0.0219532277366959
0.029742712557812877
-0.1609468657045189
-0.1531951241530692
0.03700248890842022
0.0011105342425459207
0.03909116208013489
0.037732867880686596
0.029656781648653534
0.024699140842509057
0.009885475915984187
-0.005693654698897711
0.045764188643895934
0.09507261436560936
-0.0757547171645538
0.024955857339325625
-0.004525036029546502
-0.02244480827910788
-0.008953884052487038
0.01380463101949966
0.01837391510965687
0.020655012028927028
-0.046986921878336266
0.045886018967178456
0.0002513758088127987
-0.018724845955786388
-0.018195284545940143
-0.007322200459020083
0.03477277370724071
0.011064133204755243
-0.014539608222577974
0.006356799148343268
-0.01935099962951671
0.004561279119310903
0.0708112022633668
0.06126423825337312
0.004041142815419264
-0.005316087241392495
-0.08635845367541872
-0.16106031036470803
0.028208955514593546
-0.013531687579567546
-0.03591933883748175
0.06436635076280371
0.06123804143337152
-0.00059363132671066
0.024147167874393815
-0.019491201988279153
-0.0009231106066398232
0.0242414358069582
-0.027917985407606913
-0.025186428863256317
-0.001074494666646612
-0.015275484897424639
-0.032494702514784896
-0.011580749565109443
0.025022867850074522
-0.0026160758527184027
-0.015691722401556404
0.006195213906712901
0.025282627487954453
-0.02588321216963875
-0.017663978317046344
0.008364699583593871
0.03250209917511744
0.01685579331334902
0.002927888998536687
0.01602534688262758
-0.005419841500446509
-0.02068366744975225
-0.002793727241834148
-0.003588855319480374
-0.004137767616058306
0.10675193843407266
-0.03349893570985117
-0.010598273324328927
-0.025969324443386312
-0.013584090948166708
0.09268627626704704
-0.017295279710090337
0.1497764482443041
0.04855519347822116
-0.01250689728013521
-0.01674510909908626
0.03349930010704927
-0.031533096178411
-0.11388845272341866
-0.030204212451087998
0.02261139237579782
-0.05098876727053967
-0.08834640955165529
0.0009277124310353107
0.0306925377418952
-0.03196845906659174
-0.030927221735365017
0.06356229404905066
0.10880417921780897
-0.003703238603992531
0.031735601223924145
0.036122701237989434
-0.024867158912401415
0.02730831375280881
-0.006577180759392194
0.007481308850169641
-0.05802417957080348
0.008269653435587138
0.014767784119599977
0.022500836479472635
0.03402170873860883
-0.011643256528255926
0.01769422682844061
0.044699101753812906
-0.03815138686784202
-0.08928265656715553
0.0183488035904255
0.004765723445481805
-0.04210576775793804
-0.010727875004298849
0.0334417835732869
0.013752475730362345
-0.27579729545557496
-0.1363324475318602
0.006867888365947849
0.013182440148413847
0.010506348089159356
-0.008190920784440973
0.01788484820326669
0.010208943778864056
0.05108349026560123
-0.003824003347811072
-0.007234486676316531
0.004770656568554008
-0.014156939100900726
0.010673118310446462
0.003768446613232542
0.021153698037881908
0.017129723835173014
0.000799676136174447
0.019765061930593967
0.03902324981340942
0.05798092964655206
0.10711632139537543
-0.006490479485152591
0.014567468860688826
0.04971348972439003
0.01545861301617018
-0.006342817935300566
0.039876277968343206
0.0009694486260291042
-0.026549213210995334
-0.0877385830007735
-0.02359246991675581
0.022379640708722025
-0.015780882658186137
-0.002516323831338505
0.04036747767586928
-0.011163855532042922
-0.024688634799922726
0.011565411651823546
-0.01540169060119495
0.034649264372391124
-0.006658276103563974
-0.02388484939100706
-0.008990736115694568
-0.014007919459608142
-0.007110987218204957
-0.028164339381642315
-0.011038630449342685
-0.00591958699209276
0.03229236142710885
-0.0011379706200264777
-0.031148318448089903
-0.03140335169401672
0.008254266440381318
-0.02501014060646741
0.0005209296740931398
-0.02764958357119306
-0.00812921544256221
-0.0169314621371649
0.09452085932575166
0.07120297201393928
-0.03160943928436085
0.023769468458676432
-0.003540679853872234
-0.013155906734366795
0.038094231431188
0.006322759661501099
0.03212963731720021
0.03225602909759721
0.02229676320573149
-0.0065374365252038975
0.05619286328016966
-0.18231349394114651
-0.23006633898628873
-0.028407008469967063
0.08663710926103649
0.07272259909760058
-0.025433961496488643
-0.027779683269547446
-0.029717373554260545
0.01845755527793613
-0.004571435994102217
-0.0064719762225967335
-0.06200719055944782
0.009685966670935854
0.0774257753523661
-0.005448699151598211
0.08790304530788177
0.23285991131947
-0.07603449947478678
-0.04356404630202828
-0.019998912391144177
0.09161690469756495
0.008782441762712003
-0.012189978364441058
-0.002440586902493894
-0.0010802938349755435
-0.057191217440607435
-0.018134288813515503
-0.018282188734965805
-0.04990957098181607
0.04158461491510993
0.010783147936585595
-0.031780295881691054
0.030415215500268676
0.034385937016184594
-0.011917612986750137
0.009795731807958155
0.0407072572904553
0.0020170046478658527
0.012635787701069635
-0.07104677827196608
-0.06102153195245945
-0.025556991422199762
0.020525394074280903
0.01310595295259964
-0.03599459257401397
0.08571995270207992
0.03591791626024921
0.011786726213084131
-0.005169264825266856
0.006109751760017733
0.0183408264065013
-0.01490887250024402
0.00016368879340318858
0.0060842815873994325
-0.022256533015908048
-0.003647469548426576
-0.13758568578072958
-0.11590171630838893
0.10661569196853785
0.005570641969782562
0.024213715126459753
-0.014860573029868917
0.04163110421136225
0.034163481789332165
-0.013278684510412099
0.02331183573477643
0.06285191141335654
-0.02094832472165714
-0.026634299831476485
-0.04102170862239119
0.02497983710093626
-0.001627865794125749
0.09566879781784018
0.07506221415722052
0.04328655755820036
-0.01566533088921394
-0.2789621253742442
-0.04951708756560921
0.015531910911983632
-0.027351013636394396
0.03532756871943949
0.08941538492247912
0.026545939310839234
0.010495450288875295
0.031074987940175876
0.11633473132068672
0.0297081953737646
-0.006475444533096977
0.008226382302180372
0.0024614171239786225
0.04822106959623802
-0.07048269186002805
-0.07584389416735682
-0.08886038655266516
-0.2379582010388541
0.05453758012501567
0.03757897987859171
0.0332238684834711
-0.017058726719067357
-0.0006885773225407711
-0.031233182604452327
0.012153266319811321
-0.013821417345920475
-0.09530556249328101
0.02716861676454891
0.020146398716843754
0.0007095993980201818
0.08091523988148612
-0.04475470264954842
-0.046360429394529716
0.013943129979306731
0.03792341086809316
0.03657541921992618
0.016859539574761537
-0.01269378140295731
-0.01022190320220232
-0.01700241830262624
-0.011513769847633241
-0.008469861377523659
0.0027224697366421014
0.0055779935813954715
0.040753870718623984
0.028888453256800912
0.06430525313286128
0.029083425177778326
0.03336410440882328
0.0031358582315950197
-0.010080400234351876
0.00917134180273549
-0.045505564013581905
0.014289555381281746
-0.009784745029573131
-0.0042959773594278446
0.03393484827281172
0.002926294909858497
0.019657001729981027
-0.0013568338768331159
-0.01357796517732581
-0.012349296327818655
-0.010508107088299535
0.02502995239801312
-0.002449664803073086
-0.04986889983360283
-0.02342145991905723
0.0029151386273325963
-0.003331728176563702
0.014098743438167692
0.004172270507224714
0.008002582229268848
-0.04284893120992444
0.01688395805717947
0.0336984626544192
0.07633026248312295
0.04149670109611493
0.006521931799073812
-0.01664750321773431
-0.048258288839356935
-0.02594176175247785
0.018312933900265616
-0.054713373342955465
-0.05010691620430154
-0.010924571625169782
-0.026508988771989206
-0.004895541354103985
-0.02941838409075524
-0.025320073260243162
0.02975240521008385
0.01721207001539056
-0.03869305587687593
-0.025704098850931133
-0.026937868233607037
0.00507976352242619
-0.018219981881114053
0.03299589663519754
-0.012662587307157398
-0.010106219665035852
-0.028742950216507312
0.06456943741827198
0.1743903336005716
-0.03376449636520949
0.035078220547813156
-0.0011213923951762651
-0.009968914844406608
-0.039764343565669366
0.16334268717386377
0.05602715436918121
-0.03639598830883423
-0.01588198141776221
-0.006526328536464221
-0.04421680093576103
-0.08583242615208027
0.00738607792528762
-0.02024610307897659
-0.0302909086709638
-0.03967832185748035
0.011647986560216435
-0.018589299725847653
-0.03458721894136738
-0.04571964221090697
0.09445251579450507
0.05275428306448745
0.041409012756445034
0.0903424067810255
-0.00352869868218914
0.02037155993611742
-0.022662478600542546
0.0234868251379237
-0.004301856208355419
-0.04340503923471709
0.01594672346450705
-0.014946706726310873
-0.002785515196152721
-0.0224362524906348
0.044688183812274185
0.02794997380870713
0.017589383128657175
-0.01822633502783486
-0.025588623091242095
-0.002070248497857995
0.007991054045547744
-0.025092400379072056
0.005896735695063532
-0.011403875244923874
-0.024534891760361444
-0.012603386088991355
0.0075511532188446764
0.02189581158935778
-0.05044842522979967
0.025374388171948044
-0.01586212586523878
-0.007082366670838331
-0.002212497152550105
-0.020083381546799152
0.10472414150080546
-0.042299593472553354
-0.20685227464783046
-5.426452557403775e-05
0.002395547246729105
0.02555471889825727
0.009901253996385325
0.030090579493070185
-0.010521058462925765
-0.020167208392377386
0.048602954025077166
-0.008655602559138671
-0.03477518296202651
-0.05297726822071133
0.010387075646981775
0.014789478538863381
0.0030082279034798175
0.012476262407861068
0.01704299401042955
-0.006944536736811808
0.018463861940339554
-0.021901922847214948
0.011339533618551306
0.004865533378634883
-0.016636738806117983
0.01023644910955601
0.014570006091453279
-0.025679527865061325
0.007425786415033518
0.0056995068120150785
0.0008994284818338177
-0.005110747521577396
0.001461240227653764
0.02150530849973464
-0.02433008078400351
-0.02066747138168641
-0.028661757701327582
0.002842919058850299
-0.012087141296226605
-0.01565768635766307
0.02646234618995484
0.11755660799402337
0.04969433090882172
0.007584456425909331
0.02820449048055667
0.02574444821747129
-0.0016424102050301309
0.026715780634855742
-0.008218601798613518
0.02966187274536817
0.007659270228075357
-0.017868797970850284
0.00472071639948065
-0.0028825239771165198
-0.06801466822466277
-0.0057037096977681345
-0.028779013376207675
0.07715148596897825
-0.002492437035701028
-0.04934630802428617
-0.0016286004071561174
0.00529463062974504
0.014954657812253655
-0.024670112926242757
0.004900469917224753
-0.0215563376485312
-0.022884060838707306
-0.01874665537444747
-0.00930519845887887
-0.037764830607043234
0.0001679858300637574
0.056050814302317904
0.03748473952418012
-0.01345439714834366
-0.012961758813282473
-0.01825950415029161
-0.02176528555783191
-0.006909383124547371
0.026350792115618412
-0.01600022131322141
-0.019274750926456485
0.006728681297396175
0.004421575373241203
8.303879547819568e-05
0.006913611045485153
0.03801878709302264
0.007825049126855136
-0.03835991008976238
-0.007905692504103353
0.02181506416630662
-0.12831745360564092
-0.056679071729367
0.024071249526794795
0.018331861414284223
-0.03142733949627194
-0.0023478370104212105
-0.025913085626777146
0.0071580603472265955
0.07686085022690588
-0.009887329645832015
-0.03892778646357622
-0.024445098889507147
-0.011253652779795884
0.011422079184107465
0.04954111937802586
-0.07087709503932552
0.020749150601167905
0.10155237261226974
0.1339673492219142
0.08510062630797784
0.16882890337657355
0.08039392359267136
-0.033495166558497
-0.02818404115842429
0.0007769246598970153
0.013095081774019343
-0.04502567237920443
-0.13313493578831423
-0.0773082403506862
0.01897836187754782
0.020644787565522727
-0.03308377095511388
-0.007787487581990826
0.01613020517576792
0.053120670338468796
0.015529126571786721
-0.016579770317958806
0.007932538909291848
0.004726416558894789
-0.056976002491274505
-0.035669760278850195
-0.022095421303801762
-0.005367095551133203
-0.025697351978520397
-0.0063070581832280264
-0.01443542015519834
0.010808805930482524
0.015115853891107305
0.02003669731621506
-0.018688384349944673
0.0062212330451163166
0.02415628138071693
-0.008820222608030686
0.008360442731923916
-0.05469393771161968
-0.010803329042505212
0.004009465698762456
-0.03084940955926631
0.023261528053362467
-0.04106752875619412
-0.04113554350264956
-0.015016119300611258
0.09756167024652196
0.015529205950522902
-0.06546429094314066
-0.0424566698653757
0.004232120331056703
0.0019334272943254784
0.01538473699491672
0.00015658945767551153
0.04075494647270517
0.018887562044236195
-0.016567170535989717
-0.04481745823219362
-0.0173851913681008
-0.002511703348342323
-0.027919961955391193
0.000937354101367284
0.17795724031599702
0.05992323400547465
-0.03306667349613904
0.021303156499314142
-0.009062751942619561
0.014806448292220855
0.005330006941361415
0.016936955359422266
-0.000920442368774912
-0.001508243063558204
-0.03496311253652985
-0.05434625659982457
0.023639593445275057
-0.01410479892274618
-0.023093210504452143
-0.05272483243495511
0.030566465872569285
-0.01698382800298336
-0.0016317131990705143
0.015930661779590086
0.0005694838724094301
-0.06658171130957374
-0.02923983656978869
0.06241449350060725
0.021976595681839944
-0.011145297212064456
-0.015961195988051072
-0.034501951305819796
0.08386565736718059
0.08179602313839106
-0.09729579173190485
-0.004151978341484416
0.03208520974687768
-0.006556642395195858
-0.0026447162747821563
0.013566993119236094
0.0013230309898970983
-0.00017167715073486571
-0.006097082376755544
0.002561769676804587
0.020880254810494242
0.003755914078184872
0.013913070505503623
-0.01279501006585876
-0.018299484967408006
-0.0010024464974381616
-0.004393351222702635
0.0011461902684599859
0.07022928573952689
0.10254733279292381
-0.023427076452255034
-0.00016190704882054473
-0.013656016589911908
-0.040094437026951465
-0.04025741841502101
-0.029071363279805168
-0.0047457040224893185
0.03220984164267094
-0.024630762992171495
-0.14792187823843847
0.08924461771310084
0.07136552464553642
-0.041178729975285454
0.033335318464510134
0.09341381447453052
-0.1941818217733714
-0.1126570421192583
0.04366118631162717
-0.0008338085201970575
-0.033301332620313866
-0.02580037623064264
0.024765225299629295
-0.026788349489777357
-0.0036670294740018036
-0.032470854676505234
0.21836898633304386
0.09283212335530609
-0.04078513911986736
0.018628548827742408
-0.02696880582199262
0.051139187247715864
0.09697230764044575
-0.009411645882255433
-0.04821701701226985
-0.03098970003556327
-0.02578240164577774
-0.052392775186413464
-0.007088536364322784
-0.032839642687917475
0.019938012201455815
-0.002870891619642455
-0.0538851003766117
-0.03007703100973353
0.012684493228659445
-0.0027837070434059284
-0.010876968163985194
-0.00988052181639196
0.04753573574961713
0.022791057019836233
-0.011134665424896923
-0.031790528742034835
-0.0349014336681433
-0.022644194474475292
0.0232521508881526
-0.002127819016594994
0.012103195551603947
-0.004443832597507791
0.015418225319913064
-0.01427163602493736
0.05844230215179146
0.10511705865728412
-0.014967751391817996
-0.021598775261927664
-0.034404581983141315
-0.035277622602433896
0.004092426358908685
0.0010611057710513626
0.0016372762341045225
0.020340052049915555
0.086616928670192
0.0791094792548981
0.0029889390708171663
-0.019299431341827815
-0.030790057855753714
-0.017206181624156495
-0.042127159649755046
-0.013881062393400086
0.03814458268932538
0.047882376432432656
0.01181778865352571
-0.001568272426456995
0.06269836999165693
0.0033083937808138955
0.021087563030066616
-0.011585750295493677
0.12673939983727364
-0.12747480039225625
-0.11090026268221084
0.012480282561329839
-0.17138490283929142
0.02470180459888179
-0.024811821079924162
0.01636958992417231
-0.017132431970045162
0.007028661677363121
0.004827249778762834
0.008729958332063166
0.01709488158543652
0.003037207073947258
0.006720354309905714
-0.00038545954629754995
-0.016512559019420104
-0.03354087809150365
-0.0046662964212182715
0.007183446416616027
-0.017022649860224573
-0.0061238884730028375
-0.013351311681237309
-0.0091461166935707
0.022230843986386847
0.017557225315404427
0.04728951869868183
0.029758589217316115
0.012267484448830497
0.08999386124326333
-0.03995904965963897
-0.04632156853826573
-0.002951912963515235
-0.009421235515600977
-0.046245764229940894
-0.01656944640996014
0.06371094643778515
0.027819767717883415
0.012295425054218738
-0.005213412793571312
0.01892518152310796
-0.010769125508107727
-0.02762661147454052
-0.0361700418331185
-0.01412538470775053
-0.018298019226221453
0.01842216845584666
-0.02763883810340788
-0.012894426779084917
0.02393821930209029
-0.0214071606783062
-0.005425152687681755
-0.01868694684693577
0.00197126452140369
0.03576502666453239
-0.009230446505749118
0.005379840014461919
0.017943087946657176
-0.023817089400303266
0.01844364810366686
-0.01967550455354541
0.0024637319865805926
0.013518173119353185
0.03562386442156251
0.0016980033608355427
-0.00539877181472202
0.001792503996521849
-0.014983869724664142
0.010827217426569112
0.02448619287939705
-0.0101583307980041
-0.002301048507921983
0.0003138895923083847
-0.0271112110761292
0.021279937650198977
0.14998112839815442
0.003572895232783457
-0.015644245691500518
-0.020911388276826568
-0.02356955125712654
-0.020840796058760967
0.0016603983882340838
-0.019857780412252373
-0.01452015226396068
0.004710583418380396
0.020568274228419763
0.01650868649677986
0.042521978874577836
-0.019713379818406436
0.02469823423272436
-0.050263124446666044
-0.12540740657570756
0.007970776806551968
0.025910843654976243
-0.017910500728023613
-0.018572479395818933
0.000985466755251465
0.03310018661873741
0.05119521401274115
0.01373542826826694
-0.028584062008691964
-0.01941733645572982
-0.02112348538987558
0.031915225683466504
0.025993560670004637
-0.013794228993266634
-0.0399286861795839
0.06423709745437661
0.046914989281686865
-0.030044651382934093
0.012986109523308337
0.006457208447382019
0.02870958712641614
-0.004753557300687455
-0.18583669161853683
-0.03725600117395872
0.015790146778340005
0.019919641581247528
0.0017132193892504775
-0.028088651553774057
0.055453109405496984
0.008655915326046771
0.02088837288061171
0.04249082687178658
0.02506769525621602
0.010402779762148727
0.005144762195964149
-0.011482239642139378
0.005953985169779886
0.005643590098089308
0.07647617411948988
-0.009949459358921393
-0.0070170719884558716
0.01439876037844073
0.0015606889790196572
-0.007031414042954344
0.014436056582080732
-0.052457177743397546
-0.05554918193742445
0.013217562755078845
-0.02740705096010356
-0.033966465862421455
-0.056085126696637046
-0.06473130270990028
0.19273953437148963
0.04358373821191372
-0.017781656370628028
0.02276319996658609
0.047363945115614224
0.020453095811733067
0.009239712693256696
-0.01370901082448558
0.04792125319771187
-0.04895027979176714
-0.19463975534346004
0.01939997288790457
-0.05402952167675988
-0.020947794752304155
0.00820022260510935
0.036569296012178315
-0.000781211847223633
0.02102313196841719
-0.0022331445425022006
0.011841066359543628
-0.04561355579231519
0.02728229834468424
0.010102862157321904
-0.030262439317714617
-0.004803240356045353
0.00741891546865748
0.045276575412526235
0.07389415108316379
-0.15701329252299692
-0.08199571576515557
0.020602063755225466
0.020460797862877796
-0.011387558025171178
-0.026192485559753845
-0.0010392130911992602
0.02787148344383725
0.02709101231064909
0.0035783084415120315
0.02307754288038758
0.0032755468022042005
0.013619049313436203
-0.03998771644319012
-0.02223287783748404
-0.026766708033228684
-0.0037693550477471845
0.07898400498477041
0.021440916913921523
0.005492360462180896
-0.002146542668268309
-0.024082621612853676
-0.06565903080470423
-0.010742667157092985
0.021552625654689583
0.04814396096758332
0.051806050704605054
0.005602048050209532
0.1070987349324642
0.06999742489159648
0.03235310884571952
-0.031462614759120947
-0.11312852019818978
-0.1051126638387762
0.029684058688975952
0.03985357146151632
-0.03587751987191744
-0.01106956206619745
0.015242356417990505
-0.02513320472019347
0.019195603683160537
-0.018998127584160845
0.04814808808528377
0.012948334434321702
0.013504320971194438
0.13006855529171038
0.0061995044593659565
-0.05181930056894713
-0.008621407701583475
-0.021494970519063548
0.010798373031466066
-0.017735375466090247
-0.005721377413597818
-0.010371139259573602
0.011581523788290422
0.10054620857258957
-0.01812691276105663
-0.01109096362484518
0.04007294913478613
-0.007699747955570742
-0.04051748438314093
-0.010080642621372333
0.0023064043488416203
0.0034821078727184417
0.02005739309937293
-0.0338445975522445
-0.024647033578783322
-0.026010363867841037
0.0013054350352626073
0.10730394629752525
0.019302489314689593
0.014326444263034279
-0.1312697679254751
-0.06980624318149851
0.06946904504648509
0.026914584961665808
0.06293420650092411
-0.03185669915520943
0.025174073688985395
-0.0324611324914198
-0.06289996329016907
-0.013601637263760631
0.006463484672889532
-0.03272682179547664
-0.10096636948505187
0.0005712740692535171
0.03337807785547484
0.00217272168302051
-0.009149783518823685
0.02469351674618201
0.020411335754756975
0.009185407646961566
0.010321559980581286
-0.10165727558177684
-0.07588079972780475
0.001822077536103991
-0.00640261301152033
0.012233407248447051
-0.07071052904524974
-0.0027136256657987077
0.013893696943201528
0.029144491749070245
0.012522960469838548
0.0334072008851583
0.039176203042167915
-0.015225480633033594
0.017032641232834735
0.012693851327020472
-0.06924914574205526
-0.009418588226324203
0.005264239424565454
0.028331618545681968
-0.020799913981079644
0.055855504452065316
0.194648528289729
-0.05178868098059223
-0.05086949747405883
0.07265490607600583
0.036866591521602425
0.06661243817604022
0.02438141304255093
-0.0038934382902983153
-0.023220057873130695
-0.025024487761570197
-0.008374998432933115
-0.03428917777873229
-0.18339963341891288
0.12384209147369277
0.06466089385830635
-0.030940772227666523
0.011183255247538756
-0.0017067949477898733
0.006932833264827817
0.035098062202610456
0.12584405270652643
-0.06448445546466465
-0.06823245836062086
-0.02343541765109382
-0.00878000119211445
-0.0038886198837174866
0.016228653252818574
-0.08517263995651998
0.027643905862383987
0.021460393179039767
-0.019085205964481277
0.046814827245152714
-0.017295275925679265
-0.0145476571260771
-0.022959253513245823
0.00804171809889342
0.011280246258082431
-0.025122407772161084
0.026405918350350093
-0.00436643626475414
-0.04281257005118955
-0.0468144368806408
-0.02085176537665956
-0.010487327075946214
0.014193903651891984
-0.02742140101776493
-0.017826702048032654
-0.01615819089386958
-0.0017854979187288814
0.10185102894824861
0.07011491621708778
-0.036137642248365805
0.005700159920165698
0.023978431823744137
0.1304004683718027
-0.028373225317825185
0.023258472773187766
-0.020417877262585357
-0.026293255264586233
-0.19583425088593
-0.13622163103676665
0.06769313212898669
0.002454405756059946
0.011262733556248867
0.0017956404750544747
0.060710558904591816
-0.048224116666811846
-0.020947394902717773
-0.004222123378891157
0.07668636055229021
-0.018297608483919852
-0.021495743632337888
-0.023900247787918227
-0.005172459462645105
0.0011898647462186835
0.013196255797276285
-0.013845179468522147
-0.009179534610134371
-0.018459809804691644
-0.024634696908613894
0.09236209636977837
-0.022603446592745626
-0.02863541264519619
0.23488513651830825
-0.008273561618829466
-0.028699810620907994
-0.023214638787529527
-0.003910450320610516
-0.07522003285339053
0.060274899961869445
0.14834720913285895
-0.05455466428445197
-0.0047173895585901
-0.03744925520087108
0.000970318263899419
0.016149961603885363
-0.020058733865530465
-0.019939982554616483
-0.0444266029496672
0.00026353072017541864
0.06226739520344446
-0.03234516181551447
-0.06436671858001634
-0.07163184090207869
0.011366745790315526
0.047236936453005675
0.019108913322965545
-0.024680362495310488
-0.004614495257316439
-0.0468785599193401
0.04620463712520338
0.018104355667823726
0.09143709435630727
0.00932852010293952
-0.024540653927357596
0.08148670422404458
0.14918993925709972
0.01796329981093033
0.011629577879380803
0.022129270038910177
-0.007007231140903787
-0.0031019145486653006
-0.034093481395072095
-0.007229989465761236
-0.007439976707466657
-0.0011970199941285305
-0.04499171015234279
-0.01984466568770345
-0.09440323165041105
-0.039069699643654594
0.009150811320951576
-0.017390652159911174
-0.03919583437699572
0.0015445303315592628
-0.037386649428299494
-0.005644593530588055
0.08576050108714017
-0.008190496792541692
-0.03914618400850815
-0.004111943441755963
-0.025544700629574865
-0.018638825060870074
-0.027471961241720248
0.046970902064078196
0.04008241586036454
-0.03348588979024106
-0.03393076621485763
0.006148767623746817
-0.0339046164642587
0.0036583340108830103
0.013166372247753064
-0.012143388699577177
