0
-0.02152164499548285
-0.02892107535047572
-0.003325875147507224
0.08392661006893612
-0.02932725653044096
-0.04318024920602459
0.011094037910484302
-0.029118147847511093
-0.006285562207584835
0.014417989600622636
0.024365454476439175
-0.013037326232588173
0.08176372904222191
0.0381202065714962
-0.018889127654709886
-0.019412629654714075
0.002666770671675883
0.013182548482310933
0.00458200160153154
-0.02779548632982509
0.04828918087279758
0.06331151295420993
-0.028218081388247836
-0.036442626442241395
-0.04787865964243638
0.0038895563919556296
0.00268706949382802
-0.02411777022334908
-0.037739812686449305
-0.04687306044491356
-3.428027764985529e-05
0.03480937685350879
-0.02241785763768466
-0.01741033193885905
-0.030979517242719877
0.012879236100669555
-0.02385169604477684
-0.004292210431540625
-0.0073245781781437385
0.10064943841529726
0.04424645905443666
-0.016153262249232445
-0.019477282056611683
-0.04715715898517111
-0.021838908649429906
0.009835298677112466
-0.007740334151323078
4.832475192754198e-06
0.015726591563146486
0.12628668041853874
-0.0044918105433846105
-0.0442479892266146
-0.004597121642498914
0.0005520910587017965
-0.034614817707621474
-0.015493413590234218
-0.00826021505014666
0.04672933180322303
-0.02673801443135178
0.061896265507865006
0.16675060607789224
-0.0653095082076469
0.07481756035213344
-0.005592243170986383
-0.04985224908024002
-0.035367415155080635
-0.034769573149487275
-0.017856728938467376
0.002439938629746193
0.020401632052326556
0.006547800314628735
0.01351280041920102
-0.010438890872478412
0.009212835936210802
0.017627773478300943
0.004413363464657314
-0.009262011651934597
-0.0032115278520398758
0.014375580405449423
0.040595218191696036
0.04351289065447023
-0.12240040079027813
-0.05012247361178376
0.005712012033645849
-0.030467659002397018
-0.004504953929932457
-0.006960306222325288
-0.024484130908209324
-0.007211011874181675
0.039215944324861786
-0.010267771649377814
-0.00968829084786886
-0.013485637255984341
-0.021783039624886355
-0.020542777953321212
-0.007267764408380964
0.004659752074485216
-0.0075372977907373654
0.0059283334547974315
0.014044398499257307
-0.03015382301999821
-0.04113662161881041
-0.01471111025693403
-0.022156832369523864
-0.01719454599378503
-0.015477056910845182
0.024298473155211157
-0.021104178316034793
0.10018729971378804
0.06399929618291365
-0.0281629461947814
0.006956956619835361
0.15696157258471946
0.020214727123604365
-0.016792149778499774
-0.02499458148884754
0.012294536135013863
0.014079434099053255
0.009622743073012929
0.03871548024403801
0.005712736376402156
-0.029840658409673194
0.0155385838944104
-0.004550001230736155
-0.03164497802144507
-0.1147106319248807
0.011650939284106663
-0.016934533714176067
0.015576846455614602
0.016216127858881848
0.006254836676383354
0.01485624527430912
0.02343622588285333
-0.009863275942380845
-0.024918342883078672
-0.03813884101965043
-0.12073008480619835
-0.004837364076320355
0.052020219808130506
0.04464968882894327
0.05404233530645547
-0.009112221613218039
0.026531468182530264
-0.04551490362511284
-0.04225037566311321
-0.012769514913735684
0.09986375643014356
-0.007702892861213916
-0.03838062153983184
0.005693460481826621
-0.1144105644833555
-0.025371635332197388
0.015311624888009736
0.0485181884595359
0.0569877620192006
-0.010788426562195304
-0.0157732386531681
0.003319466491274659
0.058359109747231366
0.14190037038644673
0.001939165154614808
-0.0040505536466741085
0.007078784866452844
0.00012338538141607044
-0.005691849469594567
-0.027541212981299388
0.025551874881058773
0.03715323879913036
0.014019028298737498
-0.04817513589271316
-0.28796679053675034
0.011589433564466302
0.010797979607847891
0.01773665100427197
0.01942989646531316
0.018518740708012085
-0.014905981191091008
0.005276780856884282
0.011931368149841321
-0.011315801640498821
0.0061191847916002235
0.016466934057938313
-0.005828867927384721
-0.008293035680099925
0.008123352036520603
0.1718187292963846
-0.00841934189067568
-0.018782089032243467
0.033842696280087126
0.010929006333264395
0.01297834422782793
-0.043930538776683105
0.022545663621628943
0.04817800504798488
0.019217535776467436
0.06775669561379331
-0.017890784821351882
0.03587706483087821
-0.029948449661858178
0.009860298587229118
0.013330903614876238
-0.10772732036209451
-0.1911483206375755
-0.22017828235869147
-0.017868364848244875
-0.001074792934970467
0.01445387643403411
-0.011190128453644019
-0.0005763856684307942
0.007879187216912912
0.03451780701209946
0.012871978623717487
0.0003763195558517925
-0.02559245365060555
0.10387811922237469
0.05777397993703428
-0.017523632440175047
0.03384757787080958
-0.016069942511440383
0.019075115514183904
-0.026941946473493298
0.03009904459493784
-0.0492750318551156
-0.011321643628557256
0.031859240012981176
0.012586012612783855
-0.017639995781835754
-0.02169102917801478
-0.028636887931652664
0.014854361149910157
-0.02674159564573075
0.08667369480322012
0.05360926254154383
-0.013037730704632818
0.0692295379281915
0.00042000423825489934
0.011188283402108928
-0.06214166195429372
-0.059985635344112706
-0.003760458940108657
-0.005633589727509715
-0.022272128419022926
0.054845568947798615
0.014594393418590777
0.021968410249707353
0.027121910360119787
0.030314505592224636
-0.026843025342476977
0.0012062803258584408
-0.01648011641166825
-0.004683119165323508
0.01751105070964557
-0.02272194392034864
-0.0322223051496853
-0.038221560158032
-0.07009989216379682
-0.013382139339739332
0.014624402835386748
-0.0023841681779757247
-0.02847448060896009
0.006836843271750216
0.06252633726461988
0.01173120620875997
0.037672378713769175
0.10480182895946438
0.11334841643962032
-0.06772889531503272
0.14603646020620437
0.09075431667205337
-0.032719952926756016
0.0036486459798569953
-0.02438022075214323
-0.0030382500697495535
-0.018216679740668488
-0.017530519581257658
-0.037881632298986945
-0.0196382692827437
-0.03923891877729286
-0.030791440072977214
0.0031548758839513957
-0.005182654925914151
-0.014830807101285285
-0.031271814488218405
-0.009336157122720477
-0.04630781811904866
-0.01646160669884157
0.03471942815965294
-0.020760814025074955
-0.0007458993501869636
0.03938859370502578
0.0636745720459899
0.029348930405523242
0.0170238990184517
-0.005815825237700645
-0.001020137491664333
0.0028367269691990356
-0.09353985264863345
-0.05288928530464764
0.02268505713046029
0.006051510400417136
-0.014722333029156157
-0.05631255059056992
0.033975293676578526
0.03401967975293077
0.011026124870703214
-0.02235632374420914
0.024098997359680345
-0.08394888830647297
-0.10720807346903628
-0.06894100436607488
0.016063762597766717
0.01920857023626785
0.030058390720360147
-0.010887583712630211
0.004956446924565089
0.00023206351472576932
0.05280593328402184
0.017723063826007652
0.013764229359959175
-0.014367625787133464
0.009146871998653277
0.015888873525731134
-0.0008538020824568209
-0.031904422730406855
0.03319224645458877
-0.0536981734546057
-0.1241506336840794
0.007211903862024945
0.09149098749259245
-0.0007533206538770114
-0.03413142926322313
0.03928524540131064
0.004731437697803588
-0.017171120051947313
0.0038257646415803654
0.025146678220357266
-0.010728064814561622
0.024102108918317204
0.0033238824034410226
-0.004481016270676428
0.06084719696654633
0.04325380311328698
-0.035340531992555047
-0.027446396185329534
0.04323581585643262
0.027230953592818196
0.021489561196764175
-0.04858722485143843
8.801009505287947e-05
-0.03632787312239111
-0.014914307497982839
0.10969351373864021
-0.03966871740107873
-0.004206989952489856
-0.02525972567442901
0.025055413864000724
0.03366074025564382
0.0017456904488088564
0.00816860200530622
0.007355364433152909
0.03342741223855032
0.033716391694758145
-0.0007343483255065714
0.07929666621187313
0.11856720894713632
-0.006477592567284692
0.006519987549721777
0.020315663190312288
0.0400975993770002
-0.21515971808079717
-0.17989427778123235
0.07027663947540498
-0.014184488798152593
-0.0160068869640842
0.02388389852388144
0.00851379887594663
-0.025337486150602398
0.13285791370787373
0.0024196319809175995
-0.022035972914592968
-0.0002111835756205447
-0.020045508591033212
-0.03039174048162229
0.0017757026899650977
-0.014084087977410504
0.022857724095478756
-0.016471181456611566
-0.005642567826097112
-0.03223264954001979
0.0012172738410542647
-0.033486021702047813
-0.014254253152292722
0.011819943376634499
0.042930259911274415
0.02244439876328743
-0.3347492413985817
-0.0977527897320214
0.10003338069959569
0.07720203240829983
0.05357587620907461
0.02932083480992519
-0.05161376619412756
-0.07490166040134673
0.024678220528190166
-0.013953435998094732
-0.03221120580982824
0.01579801792560871
-0.012717063273441222
-0.0013371207497358416
0.03675755277535154
0.09355339048940983
0.07066278419768682
-0.018832580573471168
0.029546877427853432
-0.006349391455661822
0.012116026367002144
-0.009731084254702526
-0.005238353024116847
-0.023460349930374456
-0.014451931594663875
0.01515148390888217
-0.018504069606810867
-0.013678457848845391
0.014856853557608766
-0.026909247716703815
0.024427514589240668
0.03080051575758821
-0.005275944587858488
-0.001469970060018479
0.01643630719984585
0.010895937113562381
0.2677196801183971
0.01876965695480187
-0.0142824821665201
0.030452918776246563
-0.013283016888906173
-0.060505167159434554
0.0006564646615377305
0.011875513255190184
-0.026341731314028366
-0.10471663993464014
-0.04742563471384373
-0.015504986608874116
-0.012532298507486172
0.02048036405013034
0.02031290588862019
-0.007840117506202483
-0.029120234261107544
-0.007005316443085543
-0.022211468108797483
-0.01217340104920009
-0.007430204576982993
0.0053597323261709165
0.03715431324688788
-0.005656540156421975
-0.009959164099082655
0.04420589414784396
0.010684896413495617
-0.0005856804713649738
-0.017753183334088495
0.002117265296060328
-0.015543198224663528
0.07087073966039768
0.0532959182438022
-0.020418859944226996
-0.014532638275816826
-0.03886577278904239
0.002327587263726034
0.002711526606013613
-0.018826473929210417
-0.026803768430688837
-0.006773543492108196
0.0007388323822000857
-0.0019341705466178081
0.018013507734642328
0.008983093848809694
0.01184489321440571
-0.004103701764111525
0.007582927703088652
0.0031812816691090167
0.019411467811393003
0.019074594819010214
-0.023445159003655777
-0.0038642722969505316
0.005574304841311286
-0.010238194634099659
-0.0177347783954466
-0.0068659115906818165
-0.03837334231802217
-0.052507814487952234
-0.01881535624722326
-0.01625881274497983
-0.015714284746786843
-0.052514034930986365
-0.016040389878113865
0.004795099041333468
-0.014128658093189125
-0.020658144037935686
-0.026207143738277042
0.005495103731641333
-0.02295033852429382
0.0072635044134090505
-0.016660843296951115
0.15840438884235108
-0.032943782503442556
-0.11484697618290046
-0.028582496570998973
0.03957362386212866
0.2505989447047405
0.04313632588357149
0.022979968755027187
-0.031873865085980606
-0.015485127359943906
-0.0007689965371233058
-0.008170899968447729
-0.014693907172384404
-0.0045886095258799225
-0.022705310030685724
0.023127530546529766
0.019435420245695535
-0.010202721424780483
0.06599827310630703
-0.0075815526217197825
0.003323123664779798
-0.010996816200403298
-0.047030243296299006
0.002746296732009073
-0.0023229664322151167
0.013012149357893646
0.03823785753495154
-0.00991873209588382
0.040372495807512586
-0.019968178593645247
-0.002231559683069218
0.011875481209807026
-0.009035915040666694
0.0031880499556242105
-0.03445228711331177
-0.014812379793251272
0.008861453825948136
0.03384590921305411
-0.01624606300805814
0.021337012960886664
0.0059964530644801535
-0.04430476964836031
-0.027780131762623027
0.055594875471629314
-0.050005710596073935
-0.03942926857326923
0.017477461810333647
0.06261848265716793
-0.031556120053643846
-0.04819669456745663
0.013600760933880705
0.011379782098037713
-0.024339481278285967
-0.002541224625603064
0.05681601834585645
0.046900431054637
-0.018323798181414382
-0.0048479617619183015
0.006544551198379601
-0.018303595367260388
-0.005130148393603252
0.01688492173833463
-0.011607828050878368
-0.004198772908791271
-0.02324735930854505
-0.024572045962748493
-0.031062654701787512
0.07134926443083306
0.051709645755815485
-0.02815791770882064
-0.0350372035388954
-0.04099568822893397
-0.062201362151138966
0.003941567440369603
-0.04239935751010942
-0.011430927029768834
0.004167123015708515
-0.014569087309022948
-0.008529743137896456
-0.01062836753988538
0.024742927548644784
0.04015920021189679
-0.021438848350740128
-0.012668756932572408
-0.04548486667105102
-0.005277342460869606
-0.030227920613485806
-0.003879556240455308
-0.0502911838668207
0.008499115965018195
0.022671981217880995
0.0105157501529289
-0.019120511221232903
-0.03344632166641919
0.07900135769333629
-0.011923566299965355
0.08410332978498264
-0.0023694271159890173
0.001650842347827557
0.02261376409051547
0.17763045125993474
-0.018716840840528545
-0.012968984047301041
-0.027141158355303244
-0.025139411891306942
-0.03933073735882733
0.015155993295203255
0.06789124980877226
0.0016795314466669245
0.0057323524383877
0.034891901443350616
0.16728310281785286
0.005112013606785051
0.06374281673821018
-0.005954989377110813
0.020908279163292662
0.028007644854581924
-0.01894533547843152
-0.028506969041266934
0.03334639866057124
-0.16404748169634126
-0.10690239458148852
0.0549582202034035
-0.038150375483723666
-0.0193539702260445
-0.021975346018417163
0.025166701558593164
-0.02141870854868194
-0.03359728961345534
-0.02606640724310953
-0.004796115472226747
0.0048897870725761175
-0.008759309129275689
0.06681546048728093
0.037517167647084626
0.019289431245819243
-0.00571717385680732
-0.02203301972740344
-0.001569845317135433
-0.08846532448835347
-0.03167858382650567
0.005975276217013627
-0.005447942867478898
-0.012544108759006677
-0.030747851617141476
0.020825917222875506
0.03342299579682389
-0.007367877521096144
0.008563403700832972
-0.04477525847361293
-0.04230710705117692
0.006223780394088854
-0.05163573996213147
0.09180226243368736
0.026983871391759916
-0.03328657798819223
-0.004598772613769797
-0.019581966451108344
-0.02586483188786884
0.02269438167798688
0.034257519314180744
0.030465743850642768
-0.03151202899968281
-0.022918372357498835
-0.0020234388018980382
0.022603393644072014
-0.06904044805014681
0.07298581008862341
0.14110251482714004
-0.05068297610717722
0.0013263162160531833
-0.06085562706220565
-0.01756313419569575
0.033541842435352826
0.02105438595028224
0.009771272517076345
0.032090425430986905
0.02187462110080164
0.02769916583357708
-0.005412318041988094
-0.0021494720760361304
0.009440344754199203
-0.001710565110370995
-0.02114701566388725
-0.005023990393374276
0.01268707666758465
-0.0364403601243363
-0.00809717444261458
-0.03564598512856182
-0.05186969920709564
0.015533884476101765
-0.013237863309860948
-0.005618817191430056
0.0547055911060416
-0.0027296483294297117
-0.009097664728852801
0.03212467500570261
0.01070677423399729
0.00624711515368744
0.012079880697578047
-0.006558700595591282
-0.017432461333646267
-0.017589024885019584
-0.018111830088498575
-0.01954560476930199
-0.05506811181467689
-0.010861849271163716
0.01246986339025962
-0.0016768868729874354
0.004965854801207001
-0.01643152985102245
0.059054396280689696
0.034576473841414955
-0.005902733308514765
-0.022925222986276233
0.007847493284830132
-0.0069614959838479925
0.052577478186259165
-0.006747813816134077
0.038050694405244466
0.01591707687129837
-0.024473141279529917
0.019776795834409028
-0.01781344969588288
-0.020253773491693418
-0.0079972017736312
-0.011257469194278448
-0.011886268156589486
-0.008772606769046135
-0.019222939481253337
-0.01548913836316965
-0.010706601479885041
-0.019065383358378003
-0.02042134914525822
-0.006609135304910297
-0.04106861127464137
0.11102002209594805
0.1216181575528269
-0.029973057177664134
-0.013087204099927079
-0.08952644215924178
-0.029384153658217338
0.0027191698898666183
-0.006309396130475494
0.009375321725464899
0.015511405295959076
-0.0004655904204805508
-0.02402787039220418
0.03370999861284645
0.00022037955608776087
-0.01109233331565998
-0.005121110056014111
0.0003270244468845355
-0.019950772798906953
-0.028723294397599883
0.036498814939859195
0.0388525218424163
0.046583974849568485
0.024343447859475925
-0.01634141705291291
-0.03470508222542666
0.006769692171268498
0.018851264572791158
-0.012595067194492427
-7.061720535828094e-05
-0.006562090153583283
0.011836897973475147
-0.003504745100065492
0.044205016272551544
-0.030623138682712474
0.009036848414192509
0.011393702486646678
0.027800835260909436
-0.04314556006464056
0.08669010082901947
0.09818295733106089
-0.12267955148043444
0.01887872225750636
0.0035182368296631434
-0.0013032712350338567
-0.019295568734372024
0.0227204414320928
0.012404641119366901
-0.18579352944136293
-0.01420304068900225
0.02523439157950339
0.02991971781405437
0.010740242988702731
0.029466655771763297
-0.008905948971380827
0.06238958519522486
0.0425165709013831
-0.10087728980393242
0.029708408779422976
0.0208475057519299
-0.0013703213210313745
0.025218906260498573
0.045171846876062016
0.005554621816302637
0.012935187313681795
0.023933555509866936
0.005306694562486249
0.08529949926068602
0.09261921695351344
-0.03810074414639466
-0.007287439948737525
-0.12367934242949122
-0.014272045019026165
0.015027859570416028
0.015011608375566041
-0.0039575476174605485
-0.0033100750678705542
-0.03469129873339351
-0.013109052724486436
-0.2243939943731469
-0.11696945198330229
0.006835276387451783
0.0042478928751144545
0.005180366796679706
0.008041655208695484
0.050412910637855426
-0.11340006027782952
-0.011004898243352169
0.040674578933141865
-0.037975058531022565
0.005553241207992779
0.01161711365046917
-0.02051093706620568
0.02706655688640476
0.027350259276849982
0.016224265007927428
0.005273167867957523
-0.017096413596637647
-0.03426308634042245
0.04176572350044875
0.04241924433032846
0.022072764456552263
-0.018609447508465236
-0.014764658357546012
-0.007768976021130101
-0.010467297899553547
-0.008767929248910638
0.014415128136472898
0.05142711674938605
0.022250438942452915
-0.013910856465908165
0.024890648176503428
0.05798688234713886
0.01581518459899468
-0.019899985686172805
-0.1430607644983402
-0.0013827788343051069
0.01124878864850395
-0.019860893546126353
0.007007782076443204
0.071034504279709
0.06340325593857721
0.04051004884527115
0.011068171748324208
-0.00874116583093722
0.03505044632316349
0.05591558960096084
0.03793778685687873
-0.004610690493916213
-0.0076913444212347425
-0.008795971520330027
0.0031847080482212456
-0.005219566070211038
0.08439542262030685
-0.01971627324193488
-0.008000184303233385
-0.010802953252852314
-0.007461574916518412
0.07254733564224658
0.012919919605935526
-0.004578154856456226
-0.036223782977073876
-0.032947829166916236
0.02479890939178995
-0.02569556701888083
0.07600686884390317
0.015439283818686991
-0.015977000155809416
-0.01760614748356901
-0.008937854004014773
-0.04320162672727539
-0.1282529768255338
-0.06285195296598212
-0.0981073757582493
0.016130678925062317
-0.007283503297063625
0.029434668779396087
0.016109268860561635
-0.012929660957617033
0.012905982113396598
-0.03445293188985635
-0.14387083809774096
0.07791247105036436
-0.010516953009672281
-0.0022112713015526074
-0.005244072984967277
0.003973871919213421
-0.0185832968495172
0.01066161354613012
-0.021370645085316387
-0.010543523221912038
0.04468024182897746
0.07702138001061054
-0.06058312787533046
-0.013980500771843108
-0.015963022412595007
0.15347590181072016
0.10351727605036506
-0.06816236751100654
0.13377792655529522
0.02148351828128516
0.000560442235250229
0.011483365524164717
-0.029562727139657113
0.014480720295983318
0.006343264691174328
-0.019752401967294456
-0.018812696002522028
-0.003634022983908497
0.027592439569916107
-0.018049435293017935
-0.021239844055761292
-0.0181491079487607
-0.09119670812695638
0.0047365695074700455
-0.020911735370338143
-0.16379268516966014
-0.003908996200955729
0.001560804214168162
-0.03619724591938799
-0.040652185835809776
0.12825951156174062
0.06972806288467222
0.009152920619340402
0.00428915552491446
0.017707820785241687
0.037970646596038785
-0.02036160327775576
-0.01246198098770904
0.005201657091605827
-0.004593915355950172
0.04369141856595819
-0.00018559690120381283
0.04761474101828063
0.04682440453806346
-0.00040186401291733386
-0.013899620389985429
0.030177060854570458
0.0424891674947624
0.005808502891777724
0.004077363550643147
-0.0170073221494909
0.02921124739336202
0.13100109572095275
-0.014978053733891631
-0.08495392661869125
0.0020290383050720518
0.026617570423769443
-0.07642703413433029
-0.13532952959085176
0.031675242907545954
0.06320273024837739
-0.009532926134555631
0.0014526488420916542
-0.021067920096350928
-0.02355624134600086
-0.031750586298006936
-0.035949213592069804
-0.02017261604474349
0.020044332956405436
-0.012306505221063711
0.0025566595819564637
0.03302673203164516
-0.006223006265004516
-0.029923105063248887
0.04569771894193774
-0.19064072146732444
-0.12183707383653232
0.005059853913909306
-0.03281348660690041
0.009028031676031433
0.001162306272787384
0.011767194343334966
0.005024619781846412
-0.011511606542116542
-0.033389080806614284
0.012850398042005004
0.048550045715935325
-0.02070894116341575
-0.022658694747215345
-0.01796577414286232
0.11546690733396976
0.027991313379800938
-0.022339704805368753
-0.04050139514191825
0.0811062247935521
0.0978738880601848
-0.019504362169724083
-0.017710966889200295
0.007615669123547391
-0.010413219275395529
-0.01108622036616897
-0.0020516695009782553
0.011951652337334369
0.0029686452163649657
-0.024702130793489492
0.026713897924180253
0.08503873483789352
-0.02117977760869194
0.03908745401632446
0.031081735375039648
0.11165914742966228
-0.016761588721073067
-0.016235830641817054
-0.03986813620231356
-0.08310746168440157
0.038799424768951776
0.059088308571771185
-0.018889787743303976
0.008788392548061633
0.00018240852287343363
-0.016965019532021165
0.013109058561662898
0.10967356491526753
0.033122189060131514
-0.0405163676333675
-0.013762844643647801
0.045277159278245833
0.035361733838118914
0.00409413846139081
0.06062391227614905
0.01427834130962196
-0.0005706642932981066
0.021574386444574486
0.008146952557044902
0.0007765259842192711
0.014308569206486422
-0.015431021813704525
-0.05515025545257053
0.027380666580623356
-0.2422039931927711
-0.09109361986009144
0.015666031131788452
-0.0073269261687145815
-0.02094248916727232
-0.03669900530203002
0.011922422665379361
0.006487665900048455
-0.008983762406589713
0.014382430617749645
0.010192917496171527
-0.00872366242864483
-0.09333357586853025
-0.08112557100016722
0.03922685494955814
0.005663247617963483
0.01425165432578196
-0.028568784136777766
0.0005467506819359411
0.0061229729390609635
0.011353728497183883
-0.013417484479556704
0.00235942447164622
0.0007342968333296939
-0.00220187664784871
0.007674426610595778
-0.010921953403053151
-0.05628106400632429
-0.045345049174134115
0.015167300055069147
0.029194672056130466
0.01528741266078265
0.011657996525724584
0.0007010614923560468
-0.0065522134349710656
0.16077933839231381
0.12156653694851917
-0.011265255181063506
-0.028586224168373944
-0.03248634985318481
-0.013294358418715228
-0.06809866135131028
-0.013181995139517847
0.041104832605726574
0.0346809940867165
0.014887857357884381
0.014355261172329055
-0.04702533862957019
0.006900915996947319
-0.015065849184987873
0.01851288556337463
0.0515013414640218
-0.020045460488847384
-0.003911748152047759
-0.0032030010870938846
0.0085692872990493
-0.030424861188030734
-0.040644429188746216
-0.00809207472718907
0.0025056817594949184
0.0059265129420199535
-0.005343952291966999
0.03728365313728531
0.005212280663180831
-0.023157660768661707
0.06587324421070694
0.004388878168975236
0.024967869708950697
0.00022998538359306393
0.08358071121244927
-0.03166734351230339
-0.06426603246285832
0.013796714518005265
-0.009288046777857753
0.043661471701814974
-0.00228110803474971
0.058497258441821055
-0.010455118321903066
-0.007366457993751838
-0.00869744147483974
0.011869479268302775
-0.031002114835671273
0.01369832598154352
-0.002892351991389575
-0.03157009225439805
-0.02050250704609411
0.02175560116003911
-0.015287231515142953
-0.012056654730051455
-0.002743046796060165
0.005525512577676167
-0.009213959551807168
0.005016553623395109
-0.022167008746841712
0.006072045518349214
-0.0032588201589910178
0.01580659638834082
0.015184779393637665
0.03668566710734494
-0.21553223660278895
-0.09044380718456699
0.010738712489745558
0.014038526984640516
0.03557203223393705
0.029124861912116485
-0.004505126963313026
-0.005484173961604965
0.08381111052280434
0.036475394593404306
-0.0475596750117279
-0.008232619020116917
0.010720342401810114
0.00547905030512004
-0.01867662200776866
0.04428509614071716
-0.013681151911128111
0.0638995092548951
-0.012313468508334915
0.03524656151378937
0.0037254831390164255
0.016384871189623562
-0.019192357885417472
0.27790599258969806
0.00940135823859169
-0.20278319469650088
0.030876669704729284
-0.004677586832897519
-0.020118428877150964
-0.02510514492606726
-0.16969623433433134
-0.1309998372487939
0.10368459913172896
-0.03811143330030574
0.021494550194348386
-0.0031429969780082923
0.06914731472025205
-0.012270196707417108
0.13375654122894445
0.006371908436921531
0.023725883943429175
-0.03619543830742378
0.045878899967366334
0.0025848005811571688
-0.01536709228579428
0.013445797691032239
-0.06921670482586871
-0.025828852456492524
0.047242692306361585
0.008428726077902206
0.04542043498248739
-0.11763479173702135
-0.2063276258505744
0.049301033630397
0.07205181122080305
2.0450242480393656e-05
-0.006297369067521625
0.016490786516912694
0.01324411771991809
0.0321617335150551
-0.010959708191745977
-0.02324831530071974
0.04176532637700762
-0.014285908428831004
0.0005617910327001898
0.03325221959292203
-0.07791549518674253
-0.06890065986105191
-0.006498160666476331
0.0036466727983994816
0.03403192663313558
-0.01576776147116202
0.06586852345407947
-0.05423996982639575
0.09588227413395761
0.03477641451639997
0.036295818907079364
-0.15702768215861146
-0.1668437488937218
0.051342299412201704
-0.00239423407564593
0.06675448405164587
-0.001367170907635333
-0.024723996681940558
0.012647389593384377
-0.017495750427379612
0.029536070674888643
0.1345823901842829
0.002751563887921497
-0.02650978630790602
-0.006875059231877847
0.0021886710530839323
0.015090007332643152
-0.009683377407684348
0.016517139444214075
0.08560807047421935
-0.011499256893680766
0.003629255160620798
-0.03323804688312577
-0.01831759081289575
-0.012506667503674365
-0.019788891282234652
-0.02128794611810625
0.02611375954157867
-0.025865234803479215
-0.013931970249144507
-0.008188989278950136
0.030078402639177583
0.15895081227776692
0.0005126401924307887
-0.031179136904133
0.021481652017988132
-0.021577244077581676
-0.02445175799985345
-0.014646984152160645
-0.0037213956830220484
-0.015306562415387769
-0.009830753500964694
-0.013100919555550775
-0.05557660956169454
0.03350277078495698
0.014696897424562795
0.0016687695137171212
0.08713577517840616
0.02002865304671051
-0.031406972181095796
-0.0202891926064709
-0.11762624867108364
-0.015156633434569003
-0.0021034317464901273
-0.029449198550804006
0.01147294978363093
0.07793643218357435
-0.023148986193650876
0.04715178142931136
0.0002951338297817116
-0.018797639346966433
0.0016605699362514743
0.017804408774678388
-0.035038466656701
-0.02969942133780846
0.05182778362289052
0.05814410127819442
0.0002395800464308984
0.018152333028866374
-0.008537361007014353
0.0009713384798562455
-0.02262446366828142
-0.014433585796546529
0.020264775494501914
0.12311851005338553
0.01349196910359252
-0.043014168619508186
-0.021186196873792834
-0.026884217734764928
-0.012807216958796948
-0.058066834856056855
-0.03788283045146701
0.0033203790364410746
-0.029469758403456957
0.019813177602212108
-0.01173410096554256
-0.0021480195929618594
0.006237653986044177
-0.022355957449704852
-0.020266198318990743
0.030231110644520474
0.08645203955499076
-0.016367159249482732
0.008932357460328427
-0.003893646910975274
-0.005034893871667019
0.024832080848750538
0.02611797609547521
-0.0344683258301907
-0.03316094569046458
-0.06307114212123344
0.004305778686572111
-0.006286915361066118
-0.04579439266230273
0.01680974559284733
-0.010269129071864457
0.0036756396355042188
-0.038677101805247596
0.014207440687499002
-0.01857099881879138
0.06897582119811967
0.1090050643473851
-0.05798661376056312
0.008935630633186333
-0.005464811629545916
0.02439786245692736
0.020882014669386346
-0.02193435638077361
-0.035485186161674676
-0.0127848653117875
-0.052731177599979834
0.005050737888922781
-0.028430187721824585
0.06588296392279507
-0.006625022271211008
-0.029656229275703824
-0.03969320138809603
0.03713420176761179
-0.0012245761794006178
0.002810230886660332
-0.07140750983907074
-0.026636488163043415
0.004557223133580585
0.013196627340035268
0.11482393701121532
0.0041237146304198315
0.00342659844102346
-0.032598698729523576
0.0045971909049490394
-0.0036359603963420114
0.03405428990341732
-0.02136079049656499
0.07216529244207028
0.1265852782966772
-0.027405788974934432
0.004048674474412815
0.005860944246666726
-0.02993975716993826
-0.05904478098303307
-0.010712733950385236
-0.006837208614422998
0.09131736649484265
-0.027071416832213206
-0.00374947969041685
-0.0523294793641254
-0.059519776295094314
-0.011351374066804708
-0.010147770196146363
0.03522270748967242
0.008132218205791897
0.05562731109913549
0.026573727733001967
0.011887441938416711
-0.00908349939465934
0.0010571878049845556
0.02107291459363595
0.011081637471648696
0.019551167360812603
0.01522171582669927
-0.026204825113562986
-0.014926854575343889
-0.02516910850161601
-0.028019086544220785
-0.026079903619501237
-0.011054109985533602
-0.024996438609848556
-0.023921447937974637
-0.005005345162831527
-0.005461348073857333
-0.020116229908178945
-0.029473087544025174
0.010905103137020864
-0.012557170527567996
-0.016077850484197173
-0.007204039480873321
0.030403882758006134
-0.014230355584856642
0.01951198366579137
-0.02068210580623428
-0.059289633660277556
-0.007211218690807931
0.004004395365109292
0.012878954941703635
0.017866932970960713
-0.015840627216972155
0.0012558560166913986
-0.06495837184803828
0.16543855247253092
0.20755166665578587
-0.015129136935705376
0.048815394628994035
-0.05369915023610392
0.022570972579938932
0.0594044294439898
-0.028016957495861486
-0.02674317150179756
0.010414380562598
-0.017840246171791523
0.07647238194482693
0.032142392782301514
-0.04024049081185034
-0.06425849913470155
-0.008652363226106682
-0.02951960559291013
0.02304888625053685
-0.08590897936998734
-0.04523165402029989
0.019916316977569067
-0.00024475722021153874
-0.026040504394404564
-0.045024159251785975
-0.008044003058523673
-0.02367352086144256
0.0005882089145905332
0.013962214484175338
-0.013774909536870338
0.0007594384701467626
0.0027630002458718973
0.003565192992728888
0.003450389589055307
-0.0021034801477014015
-0.024516206259233012
-0.015663126710880975
-0.005134697746438677
0.03518013037610407
-0.007352589501139601
0.05122113313524296
0.03819531737881012
-0.022264585950766046
-0.014652651151393989
-0.017348146416689428
0.0028145883718240458
-0.011621790403502922
-0.022528705132969146
0.002076923192294874
0.020452862878091446
-0.00811687145978635
-0.01916508981881942
0.00834660816310417
-0.02048997088302752
-0.011288822861675554
-0.014142650487516359
-0.02326588191555249
-0.036931581899021994
-0.001049840559187332
-0.02312657700599995
0.06575044770418773
0.05333634821785287
-0.045199616999265044
0.03358202110780608
0.08941085733441151
-0.0217992942127365
-0.02606432789305245
0.11782831420392996
0.015246358225284952
-0.0023692181549830236
0.023538587336744257
0.014343374838247297
0.001294874968233745
0.011696089720091271
-0.014940140195209999
-0.01785968633954427
-0.02296228250837219
-0.03380722753321747
0.013000535182612615
-0.008822231717177685
0.014239272654752009
