0
-0.0786284515009717
0.014980143219579323
0.1204617786164029
0.04056755213835926
-0.03130722820566311
-0.028309085101104907
0.018496140717333017
0.06265428312554427
0.01197858214263398
0.07058835993253748
-0.020025428539131123
0.029167589526638903
0.03240299542350713
0.004314254288456639
-0.003399756995632677
0.032334743754557936
-0.06845083285994166
-0.012115925642707857
-0.0225261835407818
0.01888176601334596
-0.01096666806888277
-0.019256687128501263
0.04725679252498449
0.062114818674294546
0.012256514130351713
0.006731837355657775
0.04141794281144666
-0.023961742490369264
-0.03341642006462101
-0.026849081993074047
-0.026419531623659315
0.027548386513846706
0.0006608236413725699
-0.002665779622764566
-0.011445163410815617
0.03235322298236559
-0.0333719078224215
-0.027415893927586525
-0.012811100106931473
0.013520667942203001
0.02315972331313754
-0.02642328302491119
-0.043455314230461506
-0.019091146742049234
-0.023714408420065735
-0.02794338562621978
-0.03420632722297956
0.008894267162173208
-0.035159013974568776
0.06281329979059415
-0.017235874565713145
-0.0036795583318989878
0.009492778837634039
-0.0008030396542423408
0.0972336522924475
0.019242556812292543
-0.026026445074802215
-0.002076438418552094
-0.0496613266316694
-0.06242534179798249
-0.04340498489531018
0.03386101840679735
0.12182181382089989
0.01618895706467297
0.006316745953739717
0.024081354406767463
-0.0022461139980608116
0.005168618144313375
-0.016995972199641746
0.05793521391442897
0.01826694880190846
0.005328961622168273
-0.01783068591572733
-0.005888846551583441
-0.031226567970763713
-0.011845984036113078
-0.0233331582311474
-0.015414101300374388
-0.02013387275207306
0.015444567589586818
-0.058856825050858395
0.06820793650067769
0.12924917069109304
0.00947805996041799
-0.016963411676380883
0.0062267084619216815
-0.06859398806545394
-0.09684449052175972
0.11135876061481526
-0.014287979290165622
-0.009000165487969529
0.06750792349332503
0.04877023929215629
-0.006342333705999117
0.005847193879492674
0.0063081518413910685
0.00819998560381422
-0.0040532264614731245
-0.05519083202891718
-0.02710645814316773
-0.09771040799178284
0.00616225004290869
0.011858481033731662
-0.020618595028669823
-0.013618839276751124
-0.020439056257444667
0.0013613507000910898
0.034398612561332025
-0.0052581260341077775
0.006778903840804199
-0.09179480365148253
-0.030806597797312586
0.0036678653935469934
0.1221117330873763
0.13955680518841973
-0.0418769448312992
-0.0016368833853503465
0.002541456656410243
0.0025472032090926348
-0.00039517808482693843
0.013533682895744322
-0.03594498768734564
0.046577219265923044
-0.007019781942493827
-0.030737302345988485
-0.04034965504980065
-0.04706376385962097
-0.007839659071575739
0.006290318645345155
-0.031688819559142635
-0.0033858842748790362
-0.022495590144917293
-0.022000230595908058
0.023958792047107165
0.02319694291097987
0.003599290302733725
-0.0024063040529927896
-0.012713379833217553
0.04358026270437606
0.10180388035945534
-0.024679078437321856
-0.0616663760889408
-0.06773130127934433
0.012758990617866112
0.004943326969411088
0.016397419336590103
0.021084700368618554
0.00993569088378836
0.008908921310947206
-0.019260143681976385
-0.016029567834316184
-0.02096359127640338
-0.02248222680467446
0.03765806352472969
0.033132518449988976
0.05404359109261891
-0.012813646522285508
-0.021298514256910057
-0.01055888796911828
0.026562541143153602
-0.006908886474864137
-0.013173666634461989
-0.03387505508450195
-0.023634543493233552
0.0013623547018314988
-0.007085009932757227
-0.02499114553383514
-0.013593182910194753
-0.013893529753357566
0.05352611392242057
0.03250051664767715
-0.0006462254779462258
-0.0062174246624700745
0.02050490099943573
0.016246878350425355
0.05709419408389613
0.004354741136021632
-0.007076677695633532
-0.02240379022067768
-0.030895927591919618
-0.021342599052550162
0.06114331777239173
-0.027535098484980466
-0.004556331613045609
-0.042254893725872995
-0.031533850875114004
0.0161688559962111
0.002399630342071375
-0.0058254011837648185
0.019166041438545604
-0.005769788264748926
-0.017129048114171798
0.005610236396202408
0.02357652791446097
-0.018002919893522158
0.021411832142256847
0.08169611227522838
-0.013183366710474185
-0.0008547433373389059
0.0233161871890228
-0.007891679154997963
0.00653378993613913
0.0786053774935554
0.012732909656621622
-0.0017356779536017008
-0.003561006183506961
-0.024481774107835415
-0.06166586783049886
-0.002665072278441109
0.08131706938725693
-0.011947951067427697
-0.010947252921320694
-0.019424118901713635
0.053870944962835565
0.026189690646046922
0.04336303237530018
-0.05275475747862606
-0.07462914212345428
0.02873211217079089
0.01681985997748176
-0.05063644533294462
-0.05117336879869252
0.05262707712562084
-0.001344649771695729
-0.002788621932712711
-0.05248628386078587
-0.1570334062289104
-0.02060940390957024
0.015025036278240785
-0.06700390333118555
-0.04074884086243349
0.05699473565703736
-0.029520802368195563
0.012702607865125747
0.02493804923996164
0.0017639347116054846
-0.007976149574273277
0.061358640085317044
0.01125927784353027
0.02846137681947579
-0.009122029280424281
-0.031085739353653656
0.0468115898631286
-0.005964217941656869
0.01148952864468433
0.011974754409856948
0.008200394148924336
0.014624056718806339
0.03809245430406286
-0.02315457898412012
-0.07942385268570426
-0.02645621669450224
0.009442806719013675
-0.01720326189870769
0.0034898556184172745
0.00781857255518008
-0.031783266938049476
0.005153509873266243
0.019685283640923926
0.04920084635170377
0.01555215754456095
0.013702235877207458
0.0199461338622137
-0.010292706439784648
-0.0065071907296772105
-0.04121382238030395
0.05890031909484114
0.014283452447346955
0.014149866478348462
0.0032805105882629626
-0.01141667138349046
-0.0012513290111625956
0.00799326841972071
0.01892755419889467
0.0034680374932942715
-0.010043548467349913
-0.020599859690218596
-0.021707947826086677
-0.011664024408970408
0.05840853936861686
0.03952463229661463
0.06681966021059445
-0.04698309093388134
0.020704148194190555
-0.005409082272815397
-0.07496229002627122
0.028555158575278555
-0.01476955509809144
-0.027072675929386406
-0.0012694860438756464
0.001822198032678928
0.103449789144879
-0.019843474734174145
-0.005153262123879054
-0.056286325246927324
-0.017683409004235335
0.029175467373125104
-0.010372343258895167
-0.01278209754498984
0.03135338667801758
0.010601940368114501
-0.026542846395770765
0.0009743300984606189
0.009719316475312177
-0.0017709855421363116
-0.02045149025481347
-0.043332629682322016
0.012117675557251802
-0.0035764150930516895
-0.017347074999926156
0.03337419541734951
0.014177582504270599
-0.02189042102927146
0.014844089248360386
-0.0020831363599319985
0.020350652919745915
0.009164760042876455
0.018079376665487732
-0.03008289372890742
-0.15789466709831498
-0.029685228609320154
-0.044175841049820336
0.012235455429141541
0.026578621608571336
-0.018179093326013657
0.032517564515386885
-0.0017349694267650433
0.026062117576365347
0.031627412228460175
0.03489136964080646
0.1327386071443087
0.07052776555374313
-0.006423979611328334
-0.02163029077776916
-0.07801696096041892
-0.02114894385614722
-0.03485492464353045
-0.07956034152551572
0.03164011983192854
-0.022162360964637088
-0.030175850562358435
-0.0019182455492035458
0.009844584881237815
0.06734948865630798
-0.011751640904728558
0.023670611639929007
-0.0004349674525484533
-0.03429944732262362
0.07036991645227246
0.09461241635945625
-0.06703294971332414
-0.04606909788054738
0.03127038254377193
0.06315294761218224
-0.011610356737868702
0.021628803011074584
0.013423034764942785
-0.05211194615710869
-0.0028798617493512686
-0.04049296730586792
0.004997984734067284
0.03594225120586991
-0.005798904338923601
-0.017165988828534418
0.03829776325010979
0.02596096703428915
-0.011331912270629145
-0.06946520604586884
0.019072858540704795
0.023078173692970442
-0.009676417195438509
0.013585288178396401
0.017451870360927987
0.003172148405632308
-0.020766165794426052
0.005391733511886962
-0.017869516680873228
-0.03895328258662277
0.02150251337629135
-0.011959475027581544
-0.02972285816752661
-0.017692936544531444
0.013635288393269707
0.020060667803445394
0.012079240787203937
-0.0028336284217097417
0.01788459867874769
0.023822936724999296
0.020247661619667782
-0.018069061855477967
-0.017754819671579655
0.011185394715030689
-0.027808203596032567
-0.044857970200245
-0.06055051961187224
-0.009900147755714803
-0.01674047098009176
0.01876371269222658
0.019272717624925002
0.02738798135985754
-0.05221114503354346
-0.009784704849475164
-0.0022974206924424776
-0.01326360434752521
0.03417692406846775
0.026933392502701225
0.034699426591484415
0.018844061535751928
0.014512115820638797
0.004071488635536863
0.011042914571238883
0.03314820677092853
-0.02206958757572795
-0.021701358767751148
-0.010839217094212653
-0.0009451575866817077
-0.02150222521058699
0.0019547805122294443
0.019923924351962937
-0.021982675856979276
-0.024091898519767486
0.006343802665924876
-0.02089087804610452
0.018198921513194934
-0.002908014227203629
0.005640143507229495
-0.0006163609160973357
-0.023420606779124435
-0.09582056063040868
0.10475352241509321
0.017010649173233534
-0.041134496048712256
0.006614104749754111
0.024167668543117884
0.016955407723850045
0.022337185760257807
-0.0064630504937355235
-0.003603132617221893
-0.0015436041090442377
-0.007482441699262282
0.005743455016726508
-0.019646160203093753
-0.0240236109291301
0.0031367563302809854
0.02592568256878412
0.04952890621568504
0.0067561367809686225
-0.01568005511223301
-0.07260650915152778
0.02278728931653027
-0.05630627741334868
-0.08555952592221207
0.06224678711692561
0.07155773408875155
0.015647414727285897
0.021510221493382334
0.02405116949127429
0.007894597385467616
0.010145821862108263
0.018733926633025758
-0.023674698860059983
0.013181966904615565
-0.0367859488551629
0.05037152502823073
0.07073456515348231
0.011579869193295586
-0.0005649643470724542
0.0070087221678535845
-0.0037391536475436765
-0.05167077450595982
0.019150802894402498
-0.03415103229792648
0.013073079204955387
-0.014764115577950584
-0.027498743599756813
-0.03666485380505018
0.025121729137165115
-0.0003194886750294316
0.035087766521394156
-0.014033909110337849
-0.014139094308277825
-0.017032517321988915
-0.0038322729496092604
0.0035958060232159227
0.0599867242237026
0.05942012079933487
-0.024058614724473956
-0.017513673391177244
-0.0007772337671390084
-0.04004531675752204
-0.005218239249809137
-0.008889599168629131
-0.019415502000818916
-6.124652646860865e-05
-0.00926383166361201
-0.005052102794894685
-0.000358086118569278
-0.038828262737777265
-0.025301208745453697
-0.034522326096349996
0.0355691527690276
0.03208777818454608
0.004054758200548636
0.018960997096695614
0.029984429402595623
0.013223049667205784
-0.0011665480989791251
-0.01687880434641307
0.015002039421173024
0.018543487673111862
-0.0007550494183234913
-0.09789701623552698
0.018241465308817997
0.017841742925565878
-0.040066238365777065
-0.03308978696055893
0.0018816590444642085
0.03384486775202074
-0.0021917533836908576
-0.01668532091422688
0.007859540956498809
0.004250233887315128
-0.009695134501108966
-0.004058737191316619
0.0065090005791246346
-0.0020434234426003526
0.013853987198523718
0.02417180911326367
-0.025874012215988788
-0.0021375085950959528
0.00789653579061323
0.0307962746222735
0.005585452685582656
0.028948013928276336
0.04638475196291831
-0.005715872197426914
-0.009583101214237612
-0.04724971554138466
-0.057730168152151484
0.017223622085552743
-0.008762380275496522
-0.016759307794308776
0.0884255926996807
0.008584804172726116
-0.04913389967957414
-0.02998179675324271
0.047005025084429816
0.022873088255878197
0.007617854881309459
0.012674018352179822
-0.06342295869354082
0.013101305132416467
0.003262698128526669
-0.03154665097305742
-0.035147389531993964
-0.03022692805687193
0.005530368222410187
-0.011082073986186838
-0.015385055639875352
-0.07237760801620474
0.012283122873583711
0.0330686781837188
-0.03746411473797297
0.1398966112827233
0.08479079682138263
-0.02070435540898163
0.016099672474518423
0.004457354917174971
0.00447269368245989
-0.0003559620117997632
0.007186322803696459
-0.008278989563598281
0.0006729504447854713
-0.01233681296778018
-0.008746359156420549
0.014803334177335517
0.01965942210711614
-0.006084283052468808
-0.001615109535605208
-0.030907507615008392
-0.011309938453218125
-0.0036342152551144475
-0.015241344399906872
-0.0009401707118739804
0.002812299932977978
0.025903318838880505
0.012045430435607794
0.0015654079704154659
0.04326696108229733
-0.03297411295868908
-0.01635985051398484
-0.013770260630857371
0.0018107620208419285
0.006079656431341052
-0.05206783162698752
-0.015623572810610175
0.0011217652525799555
-0.06252093901939862
0.011902211419218125
-0.016666564914910226
0.025871722089830098
0.10016649537309932
0.038040384149235024
0.006363137939732332
0.0009889885732493687
-0.023669136379738265
0.008797746820222737
-0.005762374165834251
0.01886679371621121
-0.020127794320778977
-0.035160744347749726
-0.026651076269675566
-0.0010916454177797973
0.048228605542663464
0.007445439061650746
-0.01023793762450283
0.012633682502035027
0.00930788340056525
0.007866400799718282
-0.0013707336953517233
0.006542237097049498
-0.033045993519363395
-0.07354919443109807
0.02402822630546817
0.03579234904773511
-0.0021520715806519573
0.003376497010022573
0.020354015890070774
0.019042919015145536
-0.013435518994136047
-0.044922767681449295
0.01700286210754217
0.02419406966133572
-0.005868624274532125
-0.0026915075475568563
-0.006812638453422213
-0.015500694640557129
0.012775348493311977
0.005750505101590359
-0.000347704045440051
0.004047291905958568
-0.12305139927476826
-0.017498087806754263
-0.06020918420678682
-0.03733681715254477
0.10021705013968421
0.0725264422329366
-0.021860567752688513
0.08790051390858855
0.04999868092902068
0.03922617997243903
0.007804093615173448
-0.004862916348949796
0.017457976967952423
0.015819733362520655
-0.046742076784371304
-0.04359779421595353
-0.009517832315224968
-0.0003501569660529889
0.0004969306646498527
-0.0689995064493214
-0.02384576031259563
0.008641528662030091
0.01140742288253223
-0.019403672486834243
0.022040313026884837
0.01768712055487171
0.0005093815016869901
0.03730607512111747
0.061832142062811554
0.05571506655515019
0.02843087864475902
-0.11241676757949673
-0.024279476880126293
0.043536376811996645
-0.030687927195720194
0.01572961931788604
-0.014610866370368628
0.008873610314651899
-0.006989207735257315
-0.03911690862776947
-0.0608109437386314
0.003341996674732018
-0.0668397056881635
0.0016479917998934077
0.01279574026939233
0.03120878913646967
-0.04744064756764391
-0.0756420387617967
0.002827351189106168
0.05760711260797923
0.030866118777403046
0.01610522660775028
-0.003453331648989198
0.022079137865080815
-0.0031841376945584065
-0.03262405523835217
-0.025792122825379737
0.0018294394086687386
0.0021247237765449145
-0.012378144851044078
0.00738132885313979
0.013566675127995273
-0.011118189521330403
-0.02566196794477768
-0.055746732639742086
-0.06224068580346472
-0.03436647137064667
0.20794177555318696
0.017299492069289827
0.018024348421648052
0.06026843563353502
-0.041504081132390874
0.04207922339046743
0.0007269379028353925
0.006005162207563729
0.012849930859810484
0.00016702072085532631
-1.871516784406888e-05
0.0016148831490460935
0.02952856162957659
0.007829693599768036
-0.03663467609923084
-0.0021571990204218103
-0.03647181422991955
0.007402025254322922
0.036061128112631485
-0.027962003245634956
0.0508838080922329
-0.008982347622340504
-0.012267619331536236
-0.028635112091459854
-0.010438724767393586
-0.03897015647101645
0.020775049008359366
-0.02865098730071754
0.00381546804401672
-0.05820894115083973
0.12625087265286442
0.11450465501468583
-0.03290156583224979
0.00693324110493068
0.0066187303517610116
0.006181318857638168
0.003145296181414162
0.024010696431986903
0.01173398613012295
-0.021984068273533875
-0.008273228537174927
0.0021055342257097166
-0.01679786080345183
-0.019054243444462715
-0.023712591103647755
0.013286827226397452
-0.0433181090490334
-0.039586666402058386
0.02702880629110543
0.006734161689541974
-0.012511616182359934
-0.005163639548722452
-0.0007640682238996762
-0.008557571407899598
-0.02730138387761826
0.036544906924025025
0.013746937514726512
-0.02245833749672419
-0.01896837726852105
-0.02489047585105557
-0.017836184050518344
-0.015494715649444506
0.06811291723131492
0.022664819668570306
-0.10628307076554798
-0.004860125716137797
0.0327860237453211
-0.026149715786304834
0.005244147543604139
-0.05512584524658268
0.029850511533703522
0.07098837630932552
-0.0004925604494935389
-0.019790079223351936
-0.012136116164260307
0.009134703437925397
0.015315973237546673
-0.02306991537525498
-0.008393421979587246
0.0018554542369153073
-0.01404487470914019
0.012688351859409419
0.04511364920176883
0.01896467021842322
-0.031055024870883578
0.016614656868345706
-0.0022626017447113242
0.0024859094745611847
-0.01730104296977545
-0.0003663292151902171
0.028610358034969554
0.05575077224137984
0.003915690584219099
0.062372619916616544
-0.03773466123504153
-0.039799134868546325
-0.0036906624170818542
-0.023977608103300626
-0.006401080643008926
-0.030155478005132293
-0.011610980079227645
0.059642291537016244
0.04039230005663051
0.022053064070778946
-0.012528989252906469
-0.06315851226415486
0.006626506611691063
-0.007693330281501423
-0.001475197232617598
0.003291599547559563
0.06573067928700065
0.053621098095298136
-0.026644732052839872
-0.05187632198599486
-0.007084327349692881
-0.040035722931995206
-0.0016349782412496843
0.02496566693312992
-0.03242941259376683
-0.0654888584219666
0.05075609540852328
0.04113772370101836
0.07464608948263837
-0.04225397317890964
-0.013702786042844441
0.0036875498556032385
-0.03317239117691102
-0.028240309061240306
-0.014263277147524789
-0.01642961839504488
-0.014068528822600321
-0.01329411588689312
-0.00046954090760988634
-0.026670417920725407
0.02378361806541954
0.003998163226330296
1.237485723851755e-05
0.03018318090144343
0.01902677961322354
0.01905938698555717
0.006940152571729015
0.03825910053756163
-0.013149110237203025
-0.04432992584464619
0.0004289815490439149
0.0028459563382522046
-0.11895691420361715
0.0166724763737276
0.010860983185979932
0.010568127850743163
0.006075959098578953
0.02388881341431901
0.04434379418183047
-0.008493801999154789
-0.003945518113969991
0.003841494199684815
0.001508687801187827
-0.004882145643748876
0.006429947027718467
0.04105230907041106
-0.025488160925061672
-0.04742810074958745
0.005775864195041087
-0.016699614500709857
0.03455565182652682
0.07664900713793847
-0.0056907862491144875
0.019352773042644666
-0.023883110354866215
-0.08072170092475191
0.05125783591741073
0.05798216776516025
0.03668085160153835
-0.007365632530973442
0.021884950504885144
-0.021015213792860494
0.006726312064649464
-0.07495916625843212
-0.06265768361170872
0.005359995777401425
-0.010407534129428098
-0.10983305337255019
0.0900399100466334
0.008246546650561517
-0.025547913220580663
0.0009735714337076934
-0.002226003656645785
-0.03766408203394407
0.003928406009470996
0.006608682313261818
0.005845052657298657
0.01697574221749279
0.02035054182053162
0.03988857509059572
-0.012727026250191564
0.003048886179611591
0.03182598703737102
0.004422909851411583
-0.008152402936639233
-0.022883436981766918
-0.000531827343865745
0.027524483698885546
0.10716803464366634
0.07538893423256686
-0.04105879134702907
-0.007784239319252546
-0.01541513911534679
0.01513216257532048
-0.031026314381925702
0.03613994473463333
-0.008019180737193968
0.021225706753859232
0.059309625648174415
-0.010380077333934163
-0.03290798009226482
0.0036964706925537265
-0.1420448696051139
0.01665115451202751
-0.04622053493599633
-0.025710406364320704
0.012922031092012759
-0.0005120750040592262
0.005595480897755276
0.01567431883350082
-0.016323691607355435
-0.027945507547654617
-0.018634756806495862
-0.10556182623168126
-0.016871522609273222
0.02652847250044193
0.007281998902275155
0.023499199997793808
0.02318662918025385
0.0073699099971528785
-0.015964071796744313
0.033691590847073336
0.05587079637093915
-0.003831318722892172
0.035677986884544974
-0.011000202175355328
0.0029439661891032714
0.0451404172131218
0.02169507579442692
0.006865116834083882
-0.00012177283758198276
-0.025658957937043973
0.003986178624711951
-0.027502503702559324
0.0006316114333668892
-0.001474220057546657
-0.02640144781581652
-0.0068520869508929974
-0.026734127096847648
0.016337792419179105
0.029956727511131393
0.023484301717621666
0.06970090956599705
-0.053079918712115766
-0.03695216488251927
0.034491673430070056
0.019454315602117838
0.01986326798163888
-0.004399734953901462
0.06914563233214178
0.028876498994551646
-0.1818623376176836
0.06271399395612877
0.0004070477185414622
0.018558899167503598
0.0075486627644660974
0.025320277567649013
-0.06034251825034734
-0.027934893733751527
-0.0338903149271805
-0.01792930575584058
0.00856628983516632
0.032913611838552875
0.05584445272784509
0.003686570071533558
-0.03054383688001993
-0.1418497959105821
0.028541548464764678
-0.12692142785962948
0.03100317631903717
0.052090542938063505
-0.0025036307604953925
0.017634961560872218
-0.047592452293679116
0.039281262554593216
0.08474120126795973
-0.07527420446130058
-0.006404799737814058
-0.002850017893094645
-0.00874374049164374
0.005703869332422613
-0.036913250868665086
0.04819822293943627
-0.06833415784556934
-0.01582841540600043
-0.011840094053762898
-0.021005462447456175
0.14095580817259828
-0.0031904234460668488
-0.007972725630294032
-0.014177446332254462
0.058266805237326226
0.13718761723431688
-0.007514467409353158
-0.03585690648460639
-0.03648685088389503
-0.00461039641987827
-0.015807251340189538
-0.009081043281282042
0.039985942871535965
-0.044284006513238335
-0.043987131405607345
-0.008485818133551265
0.004872939341444914
-0.010437058228612512
-0.03147622248118296
0.011360967852383913
0.04035309200153228
0.042245696187780034
-0.023329417142763813
0.006132866883638922
-0.005278393580149363
0.039894913577751163
-0.03240343612006552
0.001245079593486696
-0.015428281832401691
-0.00183902307528816
0.001631699803520835
0.09138765525912673
-0.04068876360240412
0.034820077215365806
0.04561719046208373
0.021634570007052604
-0.009077638545532955
0.07548543544169867
0.1168979624184809
-0.03450617841737199
0.0074224220681701
0.017301357559637465
-0.14276717113471754
-0.10007350209478486
-0.003341241293716817
-0.01228978951423881
0.007678709487197617
0.014706049293878901
0.010887961255672374
0.04334997955756026
-0.013482315210513735
0.06554431909421488
-0.049809971710693686
-0.10885529113408875
0.02048084135270426
-0.008270550383234704
0.05904519742877833
0.051156551988266255
0.04547315750265156
0.010921447669344215
-0.042643079147937336
-0.010722646165954815
0.03279156329952766
-0.07256869622281584
0.05282134634111065
-0.09404866271911792
-0.08862881991917283
0.03729620630572833
-0.024531487816059364
-0.033506710334146005
-0.0068148862158995595
-0.006167908653383541
-0.01504811230668348
0.010902650339605779
-0.016979388179705193
-0.047393195856506684
0.00932885883490622
-0.0237317707742949
-0.023379129119359385
-0.02127443718204908
-0.03000041063704666
-0.022273725282884935
0.020590127013980747
-0.003627024584222734
0.05106055250380627
0.056762464813740955
-0.00853472788075501
0.0064502694999802115
-0.004334137418484049
-0.0498941172270453
0.01433066415420724
-0.02732184344806069
0.03388895256428153
-0.00519874492189797
0.007654921606793835
0.0640839062375253
0.01710394743755826
-0.019162854101169722
0.13346643991314383
0.07163844714447228
-0.007918198288615771
0.01053902220077196
-0.0006502510708167406
-0.056213385334765324
0.051303014103119146
0.09186270201214679
0.0027282494190015113
-0.0007120972504434611
-0.02509486704130909
-0.023982382647580958
-0.02647311963212051
-0.0004668340733708896
0.016532209940084367
0.014676463559766524
-0.03179059161228945
0.020887900581158955
-0.028292921410433585
0.026344343537289414
0.031001618675409653
-0.013726410601683902
-0.03457624708100063
-0.010722386386583287
-0.008118379983692537
0.0020451159096500217
-0.025121265864577545
0.02674770628381098
-0.01499892166031433
-0.055702314250502934
-0.10558995822807334
-0.01543559208948853
-0.005772061985155444
0.031363346000563355
0.008080191355189172
-0.02131307942922325
-0.007632089024810174
0.020356065337728144
0.0044435265922788065
0.023928173235147312
0.024401851120225807
-0.05204603658469392
-0.011270748723220435
-0.007782756054252168
0.010767876350245467
-0.02177976179021881
0.026029609030709066
0.07574473171123994
-0.051524433236863676
-0.009475978406518417
-0.004777378578086013
0.029546162310077242
-0.023462189674812794
-0.027219309456577124
-0.032670338098128686
-0.010331401227821314
-0.022254498649883086
0.00813023081000136
0.00019899143568612618
-0.012462830355748085
-0.03165753745842328
0.005889435935307816
0.022935160441440287
0.019329089150581104
0.007269725108921723
-0.03563897711756221
0.027090761717108558
0.0336935942999108
0.0132872796269248
0.16147782983204537
0.030666008202789273
-0.006899886336253629
0.044120307177022706
0.034653702633361635
-0.01223792115430126
0.021495106269681614
0.007406904395734398
-0.009503321450494479
0.021338854704225432
0.032743195311717536
0.010821071775622509
-0.07567331516760716
-0.05058487322055113
0.0061549356478378435
-0.029803890563905602
-0.01663397243919764
0.009758615230902108
0.004366576305413557
-0.011577018232288344
0.015934709471905506
-0.02882786936487573
-0.0003403977779828674
0.0029070443162478262
0.06407153507480264
-0.05414079928346122
-0.019668763139477883
-0.07303671436582357
-0.12529874178383105
0.011464610065209947
-0.008684812907103904
0.013079140616198139
0.05955666668717001
0.05304478413679404
0.04493671271593863
-0.02284589199594471
-0.03386153320537261
0.016091761940101316
0.036582105478775655
-0.03918451747030378
-0.09220487693093196
-0.004917971999289651
0.011889776288735844
0.011968682201524479
0.011524839857291067
0.018318280512122816
-0.020001324786732375
0.07510262034035563
0.015787632707381517
-0.054294768183454814
-0.012252864096699234
-0.038457130259465455
-0.055999604135295804
-0.004585042320511522
0.0617662351207663
0.02850515978106479
-0.006606430697975409
0.020041600215290747
0.09447082300029615
-0.018483299364286016
-0.008681407858795025
0.006808916433758267
-0.031972585089836254
-0.015729895615044166
0.004456522414824695
-0.017903486308638736
0.006610346604059011
-0.04771900774382635
0.03111547377128026
0.04745459172744816
-0.030262313246410367
0.013171502440515816
0.017661402789344045
0.011691565200325547
-0.020714793659295096
0.027030552036799303
0.013815706796786174
-0.019883372037904686
-0.013691398859319996
-0.009051593787179872
-0.013211056995168866
-0.01311386801593522
0.004530941390034123
-0.005216300310567356
0.023246798614162737
0.006082603798908501
0.011860982702498562
-0.013652495726981805
0.033762331546090686
0.16002214246051788
-0.021394278319285386
-0.009128021035058
-0.0755963920341107
-0.06372956511599244
-0.018269275085526726
-0.01407356515345335
0.0018661713816790024
-0.018568200276461045
-9.17090379632192e-05
0.008087983904712725
0.009649814372225712
-0.007028276261504455
0.009566896764138886
0.06240281855184553
0.013820067176374207
-0.027603448193635187
-0.03504651162115332
0.0030691817458405176
-0.028007489818429408
-0.08185053945396943
-0.008998244688448483
-0.04177314301273623
-0.03842010912722949
-0.019046098171908606
-0.04743976901976412
0.06727814196726781
0.08259356653402439
0.0009096964406831651
-0.015081376774268698
-0.0075225720462171915
-0.0038668843269455263
0.04566776094389428
0.008912415346932623
0.038608562285443654
0.012780187542124006
0.03145560038108857
0.023285335158591304
0.004788797860050942
0.03036727427100105
-0.05700099887236444
-0.04988696612339995
-0.06899557930933031
-0.032196577110262053
-0.02073601878658184
0.00827051766662482
0.08227837559580901
0.004047165580257504
-0.021153376178876332
-0.02448989519998089
-0.03033990704504963
0.0031110367673515596
-0.029199485345096605
-0.025454666860012513
0.004601878327694274
0.1229423010787619
0.1421570686777177
0.027080332703593914
-0.02332357430972866
0.07361656455065917
0.028216021216117694
-0.005277766351563727
-0.02460075786240807
0.014881674272121892
0.11493354436659384
0.012116907898515149
0.02718420534693905
-0.02860862488231205
-0.022539951508202444
-0.032169344631071545
0.009195315400689071
-0.04719647292457138
-0.13072023189644597
-0.006182387177602913
0.013592930282843588
-0.02992458096922065
-0.02382509671657586
-0.07759179546991499
-0.018583858947788655
0.06424450734991476
0.052026148045112325
0.0014395985076044507
0.009874926333830893
-0.030168280696028373
-0.01564954833720775
0.0309141780728339
0.008928768239573016
0.05409672129224716
-0.00785133642190847
-0.021639766661653792
-0.014751766792138066
-0.014741140795659673
0.007257073651283757
-0.009755121475259707
-0.0034750930216956217
-0.019998808829252847
0.0003002829530600693
0.007313615188186435
0.051636593505670986
-0.01656696551875183
0.03501308640149009
-0.11061865297172821
-0.08801039668452654
-0.012179679526781863
0.0013870913561967466
0.03582582084460599
-0.021897976093193917
0.014892106394709986
0.02531580465812059
-0.03111645136418895
-0.01525603653388052
-0.0011887674873254609
0.04552971798490627
0.009661807838649325
0.023390001823450773
-0.007710339902307773
0.0029173911839980543
-0.0008269906935143103
-0.015211074767756216
0.002283786393024989
-0.013967671404626762
0.008914078071505514
-0.002903637470115217
-0.0002233355392027047
-0.00550184625859587
0.0059743247505614095
0.015018413892404828
-0.012118621023941895
-0.07746357572717467
-0.020803186536071504
0.02257576119437145
0.0547915927952666
0.064403676485769
0.02840581922088997
-0.03503068828498633
0.012984577356435512
-0.009783443673049265
0.007218192911906102
0.0004375908648732122
-0.003310996143095452
-0.014532338443374877
-0.026427543092278457
-0.055384045864807156
-0.0013996452843026707
0.0031641333879881928
0.08077316871281968
0.02089734001826694
-0.012394111951312568
-0.02244320706744743
0.0116794171991882
0.004244858424262496
0.0055730851180440895
0.030110816901237274
0.020325292598064124
0.052891464810568556
-0.028352327975088385
-0.05989369404174977
-0.0157427231303369
-0.0028784525688368705
-0.027879065911491505
0.0313271344373456
0.003333231133887076
0.012800788685341832
0.0014980233449734097
0.004651950898095325
-0.014184098742944956
0.013843604393507096
0.030506563869728564
-0.01986878555369056
-0.02135252000832534
-0.03595546587825213
-0.0518722338970443
0.030640100097002156
-0.012507175617004235
-0.026486227507940142
0.03120226980740442
0.04333853977078327
0.0078074957606345105
0.10024453664608816
0.021729042570619143
0.003385534258352899
-0.009203252533874018
-0.041766674642156866
0.006352221394673773
0.025514940568194838
0.08406109903741289
0.06520709330931762
-0.07835908323285154
0.0013297581561175285
0.04610062234704313
0.006082077008356704
0.0038607002820263154
0.023991547149783663
-0.08598890942634597
-0.07412266254728912
-0.024891272629238025
-0.10267749204273192
0.03054896784507189
-0.020861113384180667
0.0042897184248401315
0.021440046902999024
0.018314698903093625
-0.028185923595284608
-0.011578846331308826
-0.028956091452048995
0.007274935851680869
-0.032581357959325034
-0.048432951982860656
-0.013599320886181345
-0.04506629597676917
0.00966086366444547
-0.021802283835768373
0.010230474786207889
0.10108227469670662
0.029012064680481692
0.0018438123498400454
0.010851298399946384
-0.0034239361921115457
-0.003763060910502555
0.0026541125008294683
0.02197226559111741
0.0020729285352707365
-0.012051258701130853
0.0067374037236861
0.006565038453806594
0.009027368585353437
-0.005141084571551979
0.020710260896223333
0.009603814767303882
0.023331580310446715
0.01880109452137871
0.001326064552931684
0.030745655022749115
0.06987311220597543
0.05880218404775206
