0
-0.021585434443082457
-0.010850634442523833
0.05413587484225875
0.04190652233200447
0.027100927390924377
0.04231895944160772
-0.03149108263332685
-0.005873697831522434
0.001216548110227665
-0.013983500315776732
-0.03145441343944104
-0.0774272851217248
-0.03421262873668035
0.01961306755483404
-0.025589103027671468
0.040888176521634144
0.10297663434339799
0.05547381701953073
0.020230468371389313
-0.022546984134106197
0.019868837986894088
0.002654555051326619
0.024857051102728206
0.027625353650798254
-0.022265736185016403
-0.012506706397303089
0.01966981851522804
-0.022222979197400988
0.0911793383203717
0.0002825245233492889
0.0021159529571228683
-0.02526099028665773
-0.03002663677144961
-0.03970972802899565
0.004538646481589168
-0.009106553882906558
-0.009755727958241965
-0.0735635995595314
-0.01874803142040776
-0.010169672105756748
0.012438513728087791
0.02836640497711423
-0.01549211651396313
-0.002094076524271722
-0.024328999665787623
-0.013212154535552164
0.045148535486980924
-0.013138172529846445
-0.016754538608763466
0.00882524481176175
-0.02567391255362092
-0.0246555242501987
-0.03148751967614756
0.04134732980854236
-0.01717202680938309
-0.017241722212469647
-0.035276970270197355
-0.02785081354069622
-0.013289783321957935
0.003338622400179908
0.010564891700494062
-0.004612579147704005
0.05904883517863626
0.04202967781620308
-0.0024394618281847903
0.013168735878337414
0.003614084602581385
-0.03021487911451601
0.020310009055249257
0.05721377326126973
0.06581269627960246
0.008874851148118656
0.03502306567905345
0.015409814759167568
-0.013112132241534
-0.05339753333859673
-0.01977956917238977
0.005879728059903938
-0.026935476118300817
-0.02053825970457336
-0.019813328736627583
0.04872649071637727
0.0027208164613419057
-0.02233600805784366
-0.0068107340151678936
0.0076363152575575416
-0.01971491899037707
-0.03173973525310481
0.012446560717370755
-0.0168176460001359
-0.015735165730374215
0.02530705757666777
0.011727647910416599
-0.024356632391146566
-0.027266120001827168
-0.011981564359050572
-0.05041527878957478
-0.12660010786763679
0.05504315372869206
0.019452074610158066
0.004342936704747006
-0.027188198211000426
-0.006763352055521121
0.043363922027292015
-0.04936003004145956
0.009151568328201286
0.03950200679355928
-0.01670257405149457
0.04155554861340806
-0.01904767238544536
0.052944323818076885
0.14250466970534942
-0.023392763795287354
0.009379904798405577
-0.013718560568630009
-0.02211228848303936
0.019534935621190866
0.0018272717055104035
-0.037278229527833516
-0.012810681617609326
0.02343415194380867
0.00010448526590571218
0.003896094988776548
-0.03363085367156556
0.009900329951154663
-0.014279589346785582
0.05507285371146332
0.07339725665035682
-0.02278669296495553
0.04133290595580819
-0.05017510529692202
0.08618874708694306
0.07485362269947707
0.014795074234689079
0.004838502341839592
-0.046553886907219
-0.038585550255162776
-0.0031105207688959568
-0.04026828957894517
-0.005049618723163317
0.009139615639699197
-0.15502449365018692
-0.01882770626902184
0.0025669313381731693
0.09045351438899456
0.03291871609213194
-0.021185560419476644
0.021626680637530257
-0.004892365885157454
0.014017927670881095
-0.01134307213161481
0.020180633457355917
0.0008710122866255822
-0.023950162493993985
-0.0012374527191106397
-0.03356603553263597
-0.07031372865810141
-0.03146363206882272
-0.0021204046348914933
-0.019510205271118835
0.016795224453280716
-0.0007998996647345994
-0.0021404946359837337
-0.024826840198284256
-0.05778818724360202
0.003785403944329947
0.012243440400881224
0.08848929780824895
0.0032533450225599985
0.006076939172945199
0.06273644015547644
0.015346165840596946
0.016943082004984702
-0.03501725984435311
0.0019228421294311896
0.03478972082561911
0.015297667776826928
0.0324563786162861
0.0052224723400886
-0.02041111839166849
-0.033093681312231955
-0.02927447426957532
0.025776207623502616
0.0021529088286959736
0.008223305933037542
-0.08766301444254013
0.055025300925699495
0.1544120375250074
-0.011305110163742874
0.018104437314970075
-0.023268741481415108
-0.06025534973507371
0.016747506996461187
-0.01135141852885188
0.054286751309287146
-0.008838394708565046
-0.13124336784979315
0.026484606039205796
-0.005346964912600059
0.00020590742800247273
0.007884931806319065
-0.009763309346135687
-0.034009818855690425
0.017365837970300377
0.010011590745326723
-0.011544805306258166
0.026546654615886144
-0.08678348668891359
-0.020354628501791535
0.05086410501588429
0.02104536634888635
-0.00483027221147503
0.0037611408967981336
0.0034042022768892835
0.002667349349906885
-0.014241021031976255
-0.09543741683921776
-0.0067651629336663455
-0.0026021750196937904
0.011944713908577738
-0.01191643470537683
-0.00802847797398401
0.003100631622847721
0.0028812022121028832
0.006158918447025581
-0.00969548532205437
-0.008559443009907707
-0.059814649564293845
-0.054263579483541394
0.012145670543484182
0.014575860581136598
0.01770981211325438
0.02093438320827572
0.006254122360230336
0.0039025824483596826
-0.0027511944208741352
0.022325333910188608
0.09644511175473879
0.014149100230710246
-0.03635991974155921
-0.02505664678377482
0.02230713078650708
-0.01753071487704617
0.02047096582733128
0.037175289011437636
0.0021029914998376446
-0.011228612041799743
0.028926217923290115
0.06332546715025486
-0.03642677026535844
-0.01990748813106227
0.005408946622965843
0.018973760802180988
-0.021605996942920213
0.016266113404309206
-0.002797314562589989
0.015986562360997977
-0.030488499026303243
0.013710063601249113
0.030190654282296135
0.1425945873691028
0.08464380830620843
-0.05485044614441282
0.0012652189403567701
-0.000891499772686039
-0.04931699715795154
-0.07360673884869302
-0.009691187504351627
-0.0021878265176215883
0.09335561756031067
-0.05407565230611973
-0.05172096676540936
0.00724246879963543
-0.0034503717430467745
-0.02035489228240924
0.014879127381629813
0.004771028359135149
-0.032698457798108066
-0.00098960734289729
-0.03419305575950326
0.006659282775848311
0.030467721885731908
-0.07714759907789347
-0.0443830155144608
-0.0010584353584647617
-0.0813325498098322
-0.03963889532105279
0.022230643656216416
-0.022712200850393854
-0.01781152741851389
0.07144422774920231
-0.002236701897603936
-0.029488267265274204
0.08973409957299482
-0.007430444500878975
0.2500363585042351
0.006856751976110234
-0.07177598904174305
-0.001712272474617269
0.024379994519828644
-0.006780030864252747
-0.016751190676585013
-0.01180039761952676
0.0073530002632524
-0.03081237320271429
-0.00395557225910707
-0.0027025165966387296
0.057199549460601004
0.05500976448824732
-0.02217767562607098
0.005452915324809668
-0.02824960925061109
0.0008212588459826035
-0.004167142987129788
-0.05951430515420231
-0.002504460138116579
0.0037210052711153002
-0.10131368306779645
-0.02111941611679934
0.0034619593054581034
-0.015773487584497287
-0.009155221591887277
0.012034072264187835
0.0683018258593688
0.032867891949931616
-0.006901585286377161
0.026395563150823503
-0.0024869176575477423
-0.006798431007873695
-0.021119647777630715
-0.08411678984589499
-0.0006434010987994315
-0.032996794398012154
-0.0066073566607026376
0.03410883897851278
-0.0017022778557006142
-2.570439708214469e-05
0.0008911068132635589
-0.012126798958279799
0.11129277204485256
0.030333741238988698
-0.02245220497081427
0.028855765534394406
0.04832331899469991
-0.01803150046098215
-0.0032348905650206204
-0.021612920658186863
-0.04718738086402622
-0.007228335133430828
0.012393153691910946
0.003922576988156013
-0.050345265698417956
-0.04896622158641652
-0.011060408383622313
0.004669274791659876
0.04271839749823312
-0.037561600620715924
0.01382675011709731
0.027858728844541575
0.02916912010635469
-0.006540635426346181
-0.04023892131714453
-0.01602642909266596
-0.00172539159993563
-0.010539024677358311
0.009655982898842673
-0.017257967745584926
-0.03455251565681534
-0.017766629764172332
0.014166956869404066
0.00034073050637917283
0.027286293877662997
0.03964523484388219
-0.009427159496949594
-0.057299903465957334
0.01421397651578118
0.05039413124639817
0.07332140733082082
0.010660383373712728
0.10483419570350191
0.011784751072879808
-0.059146466586985996
-0.020204784457785868
0.013311815534925428
0.02733913392910822
-0.0011278994862467097
0.011416211980623925
-0.009972750170569337
0.027495530681951357
-0.029117989621599297
-0.008164665617321074
-0.019261137363861595
0.010845849516393682
-0.051217750245451936
0.02399390741315733
0.054683947402092765
-0.035229510097969124
-0.01226231641015305
-0.011313420809879007
-0.029348654559428602
-0.027213209574643342
-0.016950572277341043
-0.0007874556131354263
-0.012389235910926931
0.0012516258682307756
0.008968104830773817
0.03746420684481496
0.03710076303887781
0.008200519377910543
0.010478231282591077
-0.05259314853330738
-0.12998322596850462
-0.0371450743930352
0.09567897336034387
0.06920675841117813
-0.057800766706637766
-0.021088520240076385
-0.025467268524735753
0.04051767282535109
-0.0035915349812674223
0.007493987857091602
0.0032467365949133344
0.02459146131870846
-0.0028662979149254105
0.08130034273975088
0.04193360858003412
-0.036157764766926864
0.02595365177534598
-0.04076198510899499
-0.03274304080895145
-0.0101611229803584
0.034351748163626385
0.02784843832321684
-0.06928508336285316
0.022484976870854993
-0.06279333361332666
0.04053368985890119
0.05034099824112877
-0.010543997642358072
-0.0025059014174662994
0.017800829465670884
-0.02127784683509127
-0.003756051625209418
0.00932239065321401
0.008678122052493877
0.024409087052720956
0.04301485792786245
0.005903787407079756
0.008213770801095801
-0.023988851890408256
-0.03464338721042674
-0.035641723567511246
0.007312785211088137
-0.02948573588167035
-0.005397386608509793
0.010284353320234443
0.02383740952684445
0.01592169378897918
0.01728056913785098
-0.0013660982708270353
0.06696191578645984
0.07347232562629516
-0.04683761789496251
0.021528729077249842
0.029280588088399586
-0.06035719928451783
-0.14724898674388068
-0.08924972854108687
0.03244776136990017
-0.010523730848806244
0.024208305767031642
0.0017915516589598554
0.00440910061049148
0.011613518031408414
-0.02321320306326367
-0.005215197795103712
-0.12872590409264664
-0.07609418218176546
0.03160546963779191
-0.018612739717647535
0.044150483721664066
0.03666124087668391
0.036029935774494974
0.01574107393052072
0.054861513395689974
0.0707695813214224
0.000529272516234213
0.006228591516402746
0.016578367238023462
0.00028908819193524825
-0.0021668685751785473
-0.011959917872726638
-0.009170290557020514
-0.020352753072935884
0.011240201975567722
-0.07654622467369254
-0.03238170993775042
0.036048197505350175
-0.0451310296661353
-0.032652594456583965
0.02110557911126902
0.03469448059754464
0.02352246917078532
0.031320665290918134
-0.014124175692317222
0.015124622164739029
0.044009600344936325
0.016579874130888076
-0.015379639846962664
-0.00968408885682289
0.011530410092357363
-0.02122715817796209
-0.02956996283282397
-0.05218712599927102
-0.03307588752109531
-0.010881828497898427
0.02699669413242748
0.013016074771026526
0.017099295104992016
-0.061259813444256246
-0.009163229838405774
-0.011348412699728182
0.034476102288014156
0.0929798730823343
-0.02113817441025173
-0.020294629179315227
0.03644747027466177
0.05095966105100366
-0.02918692461782304
-0.012853818257326675
0.005786832465698423
0.0016623618212788997
0.00388897666352195
-0.04149622057584489
-0.0018779047639799701
0.05072054474308463
0.07559217726525227
0.0692314467521909
0.0008674195681431089
-0.03504993038082507
0.003599575054502354
-0.08305552602800295
-0.018888717131596323
-0.09236915193978877
-0.049740875771453204
0.023448691241953347
-0.011626143177387567
-0.05013998869799372
0.18205044459900663
0.15073604884826988
-0.046756470327775836
-0.001123762254996481
-0.014270890097308432
-0.003960622750223363
0.029830953016332425
0.0435768949617161
-0.03205937859929992
0.019933487846044522
-0.021574302262278175
-0.023451665301924024
0.0003247853838440137
0.03849983454707156
0.029065959945318576
0.02123024417255297
-0.07100655034301044
-0.12201031911707239
0.045933477531771995
-0.018163499631728194
-0.029402024392294713
-0.011076545756169674
0.022049670931576247
-0.06341737683670408
-0.057870380432473036
0.018918101998997183
0.001381302301812715
0.008401583401248565
-0.0046448447236085814
0.06200515082027276
0.1024944791795206
0.01238881632965503
0.047889723057227905
-0.017730281006312996
0.04534605499574651
0.05935433202076958
-0.013825853508536344
-0.197422089485737
-0.04792452003224296
0.018531266259484
0.025319184670678282
0.043225298521835334
0.014733693258513264
0.016249878511989245
0.027991189242221822
-0.014814383464478982
-0.047318195721924076
-0.05378088699188662
-0.008411544510599611
-0.005097753028958986
-0.009897207187801552
0.01776997551563149
-0.04371474385356973
-0.05700578869104453
-0.00041898746280744385
0.026757965635323424
-0.03421577508364977
-0.06921769303920286
0.02118499149102486
0.05358022166116633
0.002103978199323907
-0.05692302308955635
-0.006674696610733702
0.023961487945245257
0.018019291506065342
-0.03677480669090278
-0.017309148695370563
0.02750291645431065
0.04302436795427423
-0.03486305190096986
-0.022928799193959543
-0.005016649362504403
0.023089939309646028
0.011162202904913508
0.055298546191674826
-0.013614705956403064
-0.02390407634634736
-0.0075785591872573185
0.03867415668698453
-0.003853378214906699
0.08162267120517745
0.06912955144603503
0.026891218902298838
0.020178925203149026
0.13916264721829383
0.03045877338299574
0.019097119553172025
0.011563024546410887
-0.00410903549595629
0.01570809443610297
0.0048275902140428
-0.16553900811653238
-0.003853806393915165
-0.08018966292473369
-0.04463706037153316
0.036490361102904316
0.0388767717978065
-0.012660571893635942
-0.08107391830961423
0.0031286549027556097
-0.08728270332676658
-0.021423167456204616
0.020498821018987267
0.024295208284880517
0.018983233535082626
-0.009675746733361244
-0.021185462955900826
0.018451406146727307
0.04026685856420098
0.03841244752865456
-0.10761803542052799
0.029270855399283164
0.013949183888860843
-0.005806882945503871
-0.027807577549063153
-0.041594774024948475
-0.0014848704994880344
-0.013100364820317352
0.039674170419080286
0.013720320533282867
-0.005900101669951216
-0.0139949577458125
-0.01064506952119152
-0.0036219797482405646
-0.012929191829519043
-0.03461650245985863
0.024123363116637646
0.018009090086593495
-0.0009000209106716469
0.01620240937202157
0.009529493286648568
-0.024879349122472683
0.016428936418200167
-0.015829093370894085
-0.02306356447622525
0.06007977018209351
0.09873868293225843
0.06884726136277947
0.02827972304717602
-0.006006314838007791
0.006742130111104844
-0.03137783307259339
-0.026657481733409483
0.016776086315605475
-0.022861022416465166
-0.003644444580330295
0.0022751465156815713
1.7357282504282114e-05
-0.04660445220992836
0.026568874560010742
0.07970034215038074
0.03419671971066478
-0.009349269275027128
-0.0858576988491029
-0.012581847644870152
-0.025344555631315657
-0.016527175477258876
-0.020500274597382358
-0.0164239266945796
0.011234165634912485
-0.003080000380078156
-0.2140773051113536
-0.022106531049312438
0.11276568691099628
0.011362458633723952
-0.017588466899549803
0.02435448540363429
0.042391372659515696
-0.01872447381101168
0.047231131243275166
0.09491261650816549
0.05464184887371847
0.004968333163397324
-0.005958910474224398
-0.02342334817294272
-0.006504413953653659
-0.0003611180852903676
0.008993517399771162
-0.0016493797470755133
-0.05001908142101429
-0.09297916674044031
0.008991867196362299
0.020770913331456167
0.023339553115172405
0.0005740716056733965
-0.04422569791034118
-0.024610380474978745
0.0077198902190425776
0.08039740337096869
0.08798090481668512
-0.015783807975695008
-0.025710037307599107
0.034460423920330614
0.05243796472310249
-0.016565401527679383
-0.0025945140700449057
-0.007961439668689865
0.024376550290289265
0.03578101271402165
-0.05637137650192586
-0.023369255994905132
-0.012181469817547247
-0.06209546425486335
-0.014353573458738113
0.0195277239002242
-0.004820758511326904
-0.07095508066570719
-0.08388233445013435
0.06447397480513797
0.01728849915059748
0.0727462930983007
0.07699312924236237
0.0014819466253777635
0.0029678954710698337
-0.0026462607483483777
-0.0018793178000023356
0.023232283613565077
0.01338343186499458
0.0493064768109349
-0.0733525066745091
-0.16698605555897572
0.048574998503340266
0.039789207589907304
0.01309795720385842
-0.001718364301177602
-0.017004196982501
-0.01776874057707802
-0.05838507917185222
0.008618588020831144
0.05311602124650406
-0.03539705102021307
-0.02819976568820884
0.01805482430142694
-0.051881726496965236
-0.08728199766433903
0.03013387556657616
0.038070593232821894
0.010058921697703118
-0.013197505422010248
0.029596778971578665
0.057223903045612264
0.0005700756882707401
0.0371018838841349
-0.013467695857409437
-0.012446679235496043
0.02087795694798985
-0.005725704996866783
0.0002925744032312179
-0.017334409433026523
-0.020417879139087828
-0.024447782109209008
0.002859794536977483
0.04018904639249466
0.004149786586319483
0.04322327801344231
0.028846176390545385
-0.012430075057029028
-0.09477106664488982
-0.0369473511987731
0.004375713476780849
-0.001064144528477928
-0.02009190021856265
0.042224491478113524
0.017268141758311106
0.017682867159006035
0.12696092310775664
0.04615780169950746
-0.02646131135777011
-0.032934243354241034
-0.0251988075750462
0.03070645748274619
-0.01804076173793393
-0.0063728682699589435
0.009060824018706934
0.028807640026067182
0.025988702831660965
0.017982422326853344
0.0021803376273138927
-0.012668604257965113
0.039453411048996107
0.012355882123207209
0.012366361097218614
-0.0287038407557964
-0.17304789016091612
0.0020972154661868256
0.005624516673761298
-0.041052298582817996
-0.014840095972980086
-0.015763788190628843
0.0036539819514603343
0.03495512335222447
-0.04617183809188576
-0.009163179283750364
-0.031446489962903404
-0.033204024223783504
-0.0010080307392529256
0.019848975271307894
0.005731952338082346
0.02465649293897644
0.07252837137628895
0.01358234074934685
-0.010210018919103466
0.016118765559055042
0.02383558085791919
-0.0019991555945511456
-0.005934660712881416
-0.004795476635878679
-0.014859306806632116
-0.018646340708665873
-0.023436815206331438
-0.01601947152115135
-0.011159587160708199
0.008577636143112941
-0.0018154270207034768
-0.0016368985839251885
-0.0117020365868701
-0.012421347355805782
0.011534094154822712
0.011188828703010125
-0.0026615998098104333
-0.016279972959787094
-0.02737223375186291
-0.00440293570807289
-0.008412155412044714
0.022500538933931287
0.0010535404926467218
-0.004290420546230413
-0.04521664731513191
0.0197942253685371
0.2548080388762748
0.10324014776529958
-0.1468391931363452
-0.07017926490728894
0.022415041657227623
-0.005309998668967367
-0.018211832859365052
0.08477981830858929
0.04046058368069065
-0.03657394195005648
0.003709521874956507
-0.026742688894606136
0.016223214252201582
0.012062605260630369
-0.026745179391866613
-0.07566574401810154
0.05350590322759696
0.010558800634810383
-0.023093698945378573
-0.007121772475955448
0.0031445731820429084
-0.01072384671785667
-0.03404288240425845
-0.03753053598134693
-0.021189164446807515
0.0058917103525753835
-0.013855061401707926
-0.07847897625321273
0.0565195825891543
-0.01547554287431763
-0.02898564184435235
0.018867742883651555
0.04622932819374736
0.017864768718210904
0.025417605682911484
0.005597163213587201
0.04733227785560999
0.018296397506043064
0.07405859676023785
0.0374462917916945
-0.010746697766613727
0.0015414974076868582
-0.01070973591235991
0.01895159189057593
0.01286680482506229
-0.003015768364467949
-0.03847490879546339
-0.023121324167094618
-0.016102828213234676
0.007475271079493321
0.10438014979096069
-0.021171670240671965
-0.004861317466463457
0.029258685835844216
-0.029145468181219242
-0.024691211514195822
-0.011735373557533218
0.02088093390656675
0.014639632297388825
-0.0076308439314700304
0.01227972214349682
-0.005295037576602274
-0.017756834702823975
0.003969032827434729
-0.13482088674123208
-0.023229015275210513
0.023543062210155334
0.009632760451823406
0.009960965709784785
-0.034056704501459735
0.02147209324881229
0.029033789353699945
-0.05222842969056364
-0.1973639386164734
-0.026131781449417153
0.013574907199029934
0.003929003588953083
0.016248462735833944
0.02350266702392167
-0.01823995582107576
0.026284792486340847
0.04532318789852052
0.04832937415935831
-0.008954760712823811
-0.005795665992804376
-0.007030435677253072
0.0008820730517736673
-0.015282146585065376
-0.006817087576499432
-0.05304933661616896
0.022466281870937962
0.010099280892934662
0.017887814447367766
0.06485472942974568
0.04881556187839148
-0.008378926870873575
-0.02656518737165969
-0.00369283885486094
-0.005022742980738759
0.07009389881957284
0.01266160101070887
-0.032292398967451084
-0.008963314053232741
-0.023629032779246717
-0.02264309275926606
-0.03291703725433881
-0.05884607978930234
0.00613986555164898
-0.014329102266952255
-0.019206578269313317
-0.04832724767028849
0.02842693041449815
0.1420635403336003
-0.03821137964444373
-0.006396417331643527
0.022022614021643884
0.03882139520327368
-0.03592757654090546
0.05028889404697871
-0.025479244542811943
0.10050126206146773
0.12745060223673943
-0.002679676192915007
0.0018135176855648423
-0.027233066644101675
0.0513594319433394
0.037495619772997715
0.025524327757540665
-0.043742871109511125
-0.038548142370301894
-0.05094397578945898
-0.08030022496209163
0.002517655077707798
0.042631901340633556
-0.03756383489859963
-0.03140863579365195
0.004099157684762562
-0.030545211907786664
-0.006614135561651865
0.0004023726895299357
-0.0167312384008701
0.007265256388967307
-0.012757793504965228
-0.08274625766174686
-0.0321076838741324
0.00781799473309916
-0.008201011379981256
-0.004068740032682538
0.03161860904035964
0.02078150097868927
-0.014867711251335262
0.08186641154527755
0.05253565942838371
-0.027560104388748573
-0.0032444899839845645
-0.010159560860616186
0.024809590443074993
0.027219937801947012
0.013376553587736793
-0.012734902035330613
-0.027385624425921462
-0.0393890905956315
-0.008057834540544267
0.006634905315800248
0.07656581799862651
0.023006382123545558
-0.004160748456216707
0.005701664698990466
-0.014741973352922318
-0.006911371024522671
0.023029884824416244
-0.006837459390450401
-0.04461564440289058
0.019082018069405408
0.052191217595345764
-0.004672783145468817
0.012622289348673644
-0.024121341428238293
-0.12459017715847386
-0.0051570078393185035
0.084702289726742
-0.00461289672573722
0.02738615484728253
0.16814782103354314
-0.043966107206628385
-0.08965484014796991
-0.004970442488782133
-0.014910977508716797
-0.019737500505959633
-0.019469635254430528
-0.008956932471633275
-0.005529803586185987
0.007370560851044371
0.005345053422623833
-0.00387517096720445
0.0002839252277248401
-0.06948949176854428
-0.012187308692431575
-0.017658933955722843
-0.0553268342448932
-0.00977810700614929
0.009334790336749405
0.04636720128922455
0.0013895338605776778
0.03209898084709868
-0.0069071901694700965
0.0698594184215427
0.013915377067286731
-0.005599286174233897
0.007421673485058
0.004425090714008132
0.03484278988621518
-0.004414184222026326
-0.044518044574704256
0.012137265061331677
-0.02353547555182494
0.04795147926570625
-0.004052256204570974
0.003944910251098014
-0.03161563172211374
-0.041365872690577975
-0.01584587266586188
0.013211807704883756
-0.021651467050922357
0.09100575560777863
0.03234530784986495
-0.07063532570360014
-0.010001846227534757
-0.031897629802005785
-0.031073361019639985
-0.000598186297665325
-0.0012395480719057611
-0.02090039143470082
0.00024134576498136283
0.040258138038696975
-0.0034431979210434445
-0.00041292288022554136
-0.10767538308509356
0.0057135925632615615
0.055134432383521836
-0.007415815009796706
-0.04601039506573472
0.00776767539969638
-0.007648774700857148
0.017330394561885322
-0.027812631500428037
-0.0187468728830563
0.020909554896868934
-0.00046316192386633784
-0.0021860398152365327
0.03534006960206152
-0.013425834928484426
0.09762726946256997
0.02363481561689428
0.062479780196110356
0.021741564476845245
0.015809259032176972
0.008447564054447397
-0.009654786460209588
-0.05178005833709351
0.11387175679995822
0.0344611657455343
-0.05982599356455082
0.01259522526855067
-0.028398383385702466
0.016970829540565082
-0.011305653537805565
-0.011919265763033888
0.02446209032638873
-0.03017038641161796
-0.07322341125960376
-0.02007133726904316
-0.028724257633718202
0.011226780288267518
-0.02715310402121071
0.00645994984089573
-0.015964632216333315
0.04643321053853681
-0.004784027330114987
-0.05390790354582477
0.033029085752963115
-0.007635834379753481
-0.01935195155986952
-0.00035181160999032485
0.04158562753851783
0.004369270570625625
0.007786667105043672
0.02063378037589079
0.028456740213012834
0.024544057661018946
0.0017510928264508915
-0.0028265954543206548
0.005954344873009049
-0.02174516718813357
-0.011698544130514275
-0.010844045059727012
0.010629296746995465
0.09326854799088058
-0.004588834624896505
-0.03849040047809174
-0.07582520781910056
0.0040938895854142785
-0.0395889504668558
0.007604127680153078
-0.007678557077684024
0.04410537699799875
0.004144327464237538
-0.01965773276810321
-0.0035991142617284064
-0.012877288741341808
-0.057640493655114144
0.04172265214268935
0.028435729181514578
0.021532906712486904
-0.016516469385798222
-0.04162642188313959
-0.030529354730290545
-0.025950130344139895
-0.024423419477365253
0.01706854825998582
-0.005033444962872154
0.0003293603739985442
-0.00824493481229567
0.02886323864599337
0.09144009408301101
-0.018874872963858758
-0.005456681580644331
0.020737729574388034
0.043259984696196296
-0.0028291863380571786
-0.02116946149307993
-0.02269452469945344
-0.028276689663259007
0.032505700377291946
0.06755049115929974
-0.0006353071294821616
-0.008860564041763096
-0.023770923302888883
-0.026829571981691096
-0.06977763657714357
-0.03987054686584907
-0.008432584350230837
-0.006642386166836773
0.034787239345971624
0.017586799213937816
-0.024499856220533557
-0.016671788113360293
0.04025571093984591
0.005603883625280409
-0.017045631067305174
-0.010726928984291452
-0.021193099511930127
-0.004922633606235135
-0.030884721100348067
0.08839997638889947
0.018139463987666818
0.00705968955473331
-0.020125497435496586
0.09493167614573347
-0.03721509386712419
-0.07561476597933858
0.03654923806421101
-0.01095402838742689
-0.01445298362986699
0.037978888418174504
0.06246793397989311
-0.037458784416102425
0.0026192346896175625
0.032688544431150934
0.008131044579007736
0.06517698983419563
0.04591622948123468
0.012901395865260267
0.019053144829441596
0.003295998515961397
-0.04889007776240527
-0.009166244258815943
0.018855454911011302
0.0007812895035260694
-0.006906768514904595
0.02018947427989498
0.006381252320636391
0.019327519651405462
-0.03217525821927409
-0.09244342696000038
0.06244902930198883
-0.0033193565341790017
-0.010239761578405402
-0.040080189904389815
-0.04603181739122173
-0.04920674249263724
-0.028520405975374523
-0.05763125688018064
0.002426843902018448
-0.017562370122803903
0.028071563750027152
-0.04341097793252526
0.021653788337487743
0.04880748646883492
-0.03255409300777989
0.02145723897494136
0.023756114307602143
0.042786151880939184
0.018242832776286473
-0.0381267716498983
0.018577146015227006
-0.00963904042336616
-0.049562041583325826
0.0217088641933371
0.007305197226826445
0.02985253465122162
-0.01008470816894799
-0.029317978225510306
-0.01401737561779954
-0.06006513438728685
-0.038869766994409895
-0.010107130874576679
0.023412047743950434
-0.0013339737933124218
-0.0652370801095749
0.06976571478097186
0.13087606433285695
-0.004801875219639726
0.0239137188354294
0.0017627489961461098
-0.01781447387735991
-0.0077151496339169555
0.018525860027213435
-0.00340885650254019
-0.020552719720851993
0.0028050499288548992
-0.013169056201094665
-0.03203818237260315
0.08619288350545672
0.025375743337600492
-0.018368614453133255
-0.03424192197777412
-0.023811431845992
0.027489188619788794
0.002345544643419077
0.019626005656153675
0.030933141522557665
0.011119358309703054
-0.016712751889858227
-0.02237466886492308
0.022545062029145302
-0.005014714472088936
0.004791596241090152
-0.023342063014356547
-0.018376753376230126
-0.04194277440659451
-0.04044302379738862
-0.008803549384542796
0.03687229351412916
-0.007079214032009567
-0.03770076813889072
0.0011325198897935485
-0.005271491360268908
0.02122672538414779
-0.02355842260317736
0.01195754190941142
0.09315273136787401
-0.012452094305395501
-0.007062200021530334
-0.020155939874325374
0.08378987012946217
0.09675160516545898
-0.05998270399456354
0.05920860765110684
-0.025689211093107907
-0.12823008164171243
0.03525197893187237
-0.016916533480735477
-0.013204399258985932
0.027929317842840518
0.031097748880615617
-0.026292719219349794
-0.006475205206330498
-0.02598884932784372
-0.02439711430738399
0.019067759071909746
-0.0005698989407784794
-0.029520054395446207
0.014203547070252523
0.06552150156097038
0.028824928446205315
0.035775192230770116
-0.007917775845908831
-0.021628430442122745
-0.007295227831174557
0.01454391612432659
-0.0031979251113975855
-0.01214261867220707
-0.05947299622306252
0.004771567561703814
0.005441916634500755
0.04610978906513053
0.024898557955288256
0.02571864865315163
0.06395641215349293
-0.05330760611167886
0.07834411717123284
0.02649910707766824
-0.03716676507300531
-0.005945808223046005
0.026966464807486323
-0.1720963925320096
-0.22644915326240606
0.022990913925625772
-0.020887386736872637
-0.0024354503905860336
0.05314552607268448
-0.011686397511213257
0.007994242365181863
-0.032946359697736245
-0.06729052459941554
0.011555428264191736
-0.0019613667016946277
0.06346331884937206
0.0014855953709703791
0.008771009925752951
0.050298651190279056
-0.02295824721256365
-0.013690874825265282
-0.005661680058912645
-0.014479695347198522
0.0112741199788342
0.09298477866998242
0.09276599207588974
-0.016162980765470226
0.03327847959205218
0.001779939066158334
-0.019925332868083415
0.04507701157428556
0.030955995728509128
-0.047274985712277666
-0.13751827992802132
0.0003567283667671085
-0.002146147344411948
-0.012048628058219017
0.0006984914555192254
-0.015312201995689001
-0.0055594115159553455
-0.0499670826860519
0.050625440886824885
0.1187461544351068
0.012955029056606497
0.03484478843366463
-0.008959298481629267
-0.005887277679079967
-0.05846658492120088
0.03673084300869827
0.009625621413976734
0.014207444041919922
-0.0036779309449378127
0.0012939115393043096
0.0038873222477502863
0.019499597441389325
-0.034642510948401664
-0.03079019164495239
-0.018002348338985303
0.06431371029752676
-0.02268588828614456
-0.014101259296420697
0.009545128033675142
-0.010155452674198488
-0.0042583446967093316
-0.0004299959586084863
-0.010366308575935396
-0.0032235552616447427
-0.011773629449934092
0.05988638523334703
0.0033340094057257618
-0.015686960629818187
0.10971854893845946
0.05870802828635837
-0.048448756391885416
0.0289256587785851
-0.03506734757230867
0.021453441614770148
0.043769110458649785
-0.14733832665305704
-0.0250169374663086
0.06090368017475809
-0.0020876566171803344
0.01872880575535036
-0.032579584189845336
-0.0041591338216483515
-0.028496271303427554
-0.016769213013012183
-0.07773753196810507
-0.04019364199550009
0.002476535401411358
0.04924348676085732
-0.03866970585620587
-0.07086456961501698
-0.00687357525472134
0.056532208581750024
-0.09097929022540367
-0.05325019361939535
0.012687262436827242
-0.025289424935261713
0.039857028137729705
-0.007505824288035511
0.04283768337378111
0.061343446067775156
0.025984591912943878
-0.0335160447949113
0.043187316415808794
-0.043896096982883104
-0.07588814962372097
0.06734238610745998
0.1770154720833095
0.07899271730152763
-0.04376415168082754
-0.11020049615737869
-0.043882191669995116
0.005145111331848153
-0.024695952958524153
0.062284041560015775
0.054150331191388394
-0.04966674106579758
-0.0177585727297694
