0
0.008490946998512714
-0.0042081684878076
0.00956781251396393
-0.015752159633280628
-0.0065770957791053825
-0.05053378886871972
-0.0030975001004368246
0.0021065024782057325
0.05502348295908138
0.047942099821654226
0.014905005154454927
-0.039163128791307185
-0.012387213446716559
-0.009925862841372927
-0.013649544280396388
-0.015106992252331405
0.0057287233368658545
0.029649848214181027
0.006071297876003277
-0.023895392013063548
-0.01102874516829555
-0.007956587156667905
-0.0160855472168144
0.017047760622485093
0.05667476648559897
0.04600446365704442
-0.0810076724993555
0.04958956315593813
-0.0027998778497296383
0.03471736234221159
-0.030299874219894198
-0.04303703006769516
-0.007389404196663057
-0.013396127473773868
0.05079733168249585
-0.005354659185433662
-0.03162153202905527
-0.026460963373566765
-0.04352846529287842
0.10234714721996134
0.11517369266770605
0.10048880620966888
-0.0006903715204473524
-0.08381085286669798
-0.0279023207348206
0.015078708874905495
-0.015248164241258773
-0.025497666449277877
0.022625224058904634
-0.01670571966681924
-0.01653887139198128
-0.012178201098366398
0.00028188508445201456
0.07487023210429156
0.033907430289778114
0.005356250170091841
0.005478040233938858
0.029813868255173872
0.005814445839768023
-0.040475939969167936
-0.010698549516935708
-0.020124208522097543
-0.00113825639229938
0.021679910388808562
-0.06936520275910135
-0.03805979999630673
-0.03572272910450989
-0.01658208624749321
0.04528616535050868
-0.0052322022933847575
-0.0052651868917468056
-0.031238946136166696
0.006328064091226936
-0.00219867563251941
0.011146883801693734
-0.0035230679447591294
-0.030350132246248267
-0.005490348833541511
0.06982313062492282
-0.016666413680401778
0.0026325268893066848
-0.016803504489171454
0.013404064562173997
-0.030482730071743194
0.020908264135164282
0.042976658505784394
0.026799504956655427
-0.025288229558569915
-0.012411742760183033
0.03194930466472815
-0.014785754281666124
-0.01704658217632172
0.07204345129955757
0.007120299268640306
0.02484334742245285
0.02256737885377601
0.044385659326669095
-0.16338377319994424
-0.06081310585828148
0.03531955522855497
-0.011081724813153355
-0.011783550987907959
-0.005122943526081847
0.019241312659422017
0.041289291419028
-0.07261771823680327
-0.012430959332402035
0.014877965076375786
-0.015524321437171444
-0.06458405702141573
-0.0029354180953344703
0.02304276999812861
0.01284647182163153
0.03857165641688155
-0.0014446572419986297
-0.003756050414691354
-0.02489802269560659
-0.03838977794763608
0.10066824442730385
0.1047912958862443
-0.0445654290309704
0.01045944560864759
0.015174558469365926
-0.002188848856055198
0.005055085688682916
-0.04035732047893104
-0.17494124756932797
0.0026947148706182563
-0.0058697852440084105
-0.0019249035162194723
0.014140359654813448
0.0039067341834169746
0.0032586608727731177
0.015562469463026583
-0.005288269848774882
0.03308515000051992
0.037011964434895066
-6.693722576179074e-05
0.016314056225947067
-0.003473675760181861
-0.002152480542072471
-0.012456454277501828
0.020240511446183357
-0.0061900223001901174
0.022135458298235867
-0.01873647508544274
-0.00032029169947588867
0.02664720914131251
-0.0018171472430772416
-0.03512746497561046
-0.005108845937004212
-0.022801440223597855
0.002260942732141172
0.051783123329217834
0.027306601523317278
0.00841868724122858
0.0313327587630772
-0.01120862261743318
0.0019875769005201467
0.004492209684133297
-0.0034428092152596623
0.0010157205999714195
-0.0036217687422507522
0.045088882062446205
0.05330264158884246
-0.023421126468676445
0.024097153683068803
0.0024946238916139624
-0.016118923219437455
0.006154009938727916
-0.0068370853747413505
0.012972421640000379
0.0010646397979646853
-0.036194785535931306
-0.0351480093434824
0.07258544650473574
-0.04209048666308945
-0.1620275802120616
0.03480660875274517
-0.014401465740145319
-0.12101892177503723
-0.01424816945838932
0.030085981324364637
0.08746129842982678
0.002019073097647176
0.014445012552070424
0.016956338549384126
0.013031712412030662
0.035186683355585675
0.0007281874306954125
-0.0024249953703015734
0.028601779474071765
-0.013917702716939801
-0.03623076435542045
0.008321770061965234
0.025773372952518074
0.02652454059111815
-0.000264133919788182
0.024171183340675802
0.0370691955661391
-0.0946442833167929
-0.029078295147656044
-0.015352171402645361
-0.028211819593277444
-0.01779452261922167
0.02137827411265774
0.008426067290979658
0.07652122084559382
0.1443648703796736
-0.16727439708937036
-0.04345638990312117
-0.07050625284108811
-0.07613650247946424
0.0021529331040493504
0.017567917408372387
0.015153958874618768
-0.061660358659077916
0.055344189832012315
0.03789037658135892
0.05085658761452848
-0.0031302244590331995
0.013807490505719017
-0.005932181127755085
0.011566627006322727
0.005024577479400053
0.0086004650989718
-0.002464824925878068
-0.016835583570821665
-0.010761971151383942
-0.026964243612705427
0.1086807225113324
0.05972089338438018
-0.03320518278553154
-0.003690489738538133
-0.017657075627286415
0.0085937261978473
-0.0025748786793286997
-0.0016400577191004724
-0.0446235687449824
0.007130253876766528
0.0336648930083213
-0.009249378640522148
-0.0013154025652268482
-0.010876242731272225
-0.0135765876572056
-0.013665730630686757
-0.09372786819976493
0.010966106070684703
-0.012555289729533979
0.014582727468096298
0.013552456084075199
0.10358467619595725
0.09222448188375419
-0.00321357572600683
0.011448933942731767
-0.037297921405451025
0.009099292764250358
0.002144658804087623
-0.015089605783135932
-0.0214558677182058
0.0008631794003733994
-0.02090180235348671
-0.024422219123619925
0.025200500254964675
-0.023254461316321688
-0.03036062005839144
-0.020000310233580405
-0.01488570191018176
0.013253013451797952
0.006110467252083791
-0.0028809409041804066
-0.034087560896703735
-0.016176468710816336
-0.07055485270572733
0.1664713621620387
0.04488478649567516
0.02556184099779969
0.011512349124055174
-0.08182201793297947
-0.03492364732467452
0.008389047173229948
0.025275429570454557
-0.017559710290498395
-0.010476516458061193
0.010845599713798776
0.0018952491356572373
0.01284815378461301
0.05531854359001263
0.01478710966859521
-0.012464248651082662
0.006735847643152616
-0.009890325471314272
-0.016053211719514786
-0.030048378651501503
-0.08384869321931188
-0.009691543432580363
0.022069653084637222
-0.02292742013231799
0.02531114080391203
-0.008618722992498327
-0.03685504798393391
0.0045665834318109316
0.01834531762111598
-0.015406975683037637
0.01971750779559196
0.03442895807623068
0.07471201529306921
0.05189192429347805
-0.047727254038500644
0.07835309698378619
0.019365861993640845
-0.015046426322430124
-0.05705574488062357
-0.06132604706404405
-0.17808390904993962
-0.018369365292162636
0.04531202375497923
0.012697822323314848
-0.0034202114655138257
0.16184068191843162
0.031503319406689996
0.006835194191337336
-0.012359012866443963
-0.011341235844435464
-0.01222750488890424
-0.010963559197010909
-0.007371847683424807
0.0052413982711068015
0.07616787050855972
0.032874798637242734
0.01839630682772985
-0.0028287471073817597
-0.11075070897147803
0.0076485261467237955
0.005999854243645403
0.029973979073346063
0.041301928340310226
0.004309637675631706
-0.009181045001983135
0.03758180827091493
-0.008687001168646276
-0.011922715175996293
-0.004929972257047475
0.026699565550779274
-0.02618765110393632
-0.03481711074530836
0.009932873712099733
0.01702364278148189
-0.023390281712391617
-0.09705330478146572
-0.014473111575012087
0.009413174663471179
-0.08664315844081062
-0.05570387694639826
0.022038845033872777
0.0065149228971350765
-0.00220140720358699
-0.015430746673078906
0.009861934729174914
0.02203362522518268
-0.021134538379915593
-0.015579907910764062
0.006450446241867046
0.005144829469462804
-0.01622778636658044
-0.03082182271355723
-0.0526813415126737
0.03486640305338823
0.03252898858661718
0.0016331038054215256
0.01988734005039258
-0.013327566641982275
-0.012534782530116024
0.014726538354522669
0.0009011287791620935
0.002781472592750861
0.1421086598989493
0.027298263587478763
-0.02218550605026245
0.00506077744852701
0.020030106729861295
-0.019366461668151536
0.0013792069200678533
0.0029766247847688577
0.010814356797196742
-0.006586976659987342
-0.012290833436173087
0.01823553304843544
0.038450495925166264
-0.0845396741892522
-0.025580503832317962
-0.010169500450621271
-0.012947768153743135
-0.029332457154850448
0.006317089992518919
0.05928854047266545
0.020736749896944632
-0.05017770992907515
-0.05097929418616394
0.12395003099188413
0.03509736395540301
-0.029704646612427377
-0.04512743364529597
0.06449105283542299
0.0685992146875895
-0.06031612008351236
-0.036614570121324685
-0.00206372315039158
0.0478884068483691
-0.04782005880956811
-0.01267819626157988
0.00807920513878968
0.03446660486372857
-0.005753129162720949
0.008912410702717624
-0.04094339036077995
0.005064896328122604
0.0190744714815385
0.05572573418384376
-0.05650820249344265
0.10585477005449793
0.061968839622209726
-0.03879204378024241
0.03239790857246764
0.01905928313844051
-0.012652053743639584
0.015234748776906256
0.04121100981121327
0.037191616878080855
0.010217281292826143
0.0019579879582569087
-0.1228283964232296
-0.07340069894626021
-0.006999785061195584
0.036547667707883875
0.01729982137309955
0.03878163709090005
0.0016066274145658031
-0.014335472749807288
-0.060872788483296185
-0.08241498463275845
0.09012353762905158
-0.034104654139940294
-0.0542116215971048
0.021139533876222465
-0.1542051114522794
-0.10938770763706533
0.0458839778209704
0.035430713429081155
0.06973889377636602
0.015267744489786043
-0.037933750434353236
-0.0013314166611769229
-0.12152247311638054
-0.10354563282956675
0.051044429055726544
-0.023620390765565418
0.07219739871787785
0.1007171577411414
0.0030653074264757898
0.010014700996935421
0.019600150729872555
0.011885356187975848
0.022345765784449148
-0.00448091504216909
-0.03458878445851051
0.10406969870655429
0.09514789552641606
-0.014156580073454788
-0.0058254726134326805
-0.07048674790118066
0.01133203466518255
0.016474316220487874
0.03601713740945417
0.007667304138455898
-0.03236400606226139
-0.022740288095785436
0.016170295482824573
-0.040705402887596935
-0.04726496758197104
-0.011810412288427826
0.018127341692334684
0.006776274527474145
-0.010507386521001657
-0.0025858073854980153
-0.021195757783950584
0.11063820655526109
0.01732534730253563
0.042914991206997134
0.05064495189951097
-0.045968951715729206
-0.009730665243015102
-0.015953134458389712
-0.007947582903899738
-0.007030603382737316
0.03670207168152116
-0.021153079354479378
0.007048019205261693
0.010812888504697893
-0.026016883675055422
-0.01799789443823917
0.005356290859644907
0.0146500562294664
0.028844831305146562
-0.01044965230401435
-0.07050936930445667
-0.04978886101863174
-0.09139622789020967
0.011794853609691893
0.024934713763019117
-0.018253429067361437
-0.010632526927760575
0.025221760360996458
0.04368865211749839
-0.029006285716631566
-0.004415634713292148
-0.010365017923390289
0.0065780286114933174
0.0030466108935237684
-0.004098390939033765
0.026703994535483208
0.02378400885902539
-0.00664154350145813
-0.02583923189588735
-0.048817431396691036
0.00934947408612567
-0.027328379272362657
-0.01655580102327064
0.00351086114483071
0.028834060916421805
0.06064305387296164
-0.014017393947833686
-0.01257739372549023
-0.03464631220263607
-0.011327811415259568
-0.007080920909760941
-0.0180869461168107
-0.017166309731538095
0.022773436598212866
-0.012856928292234745
-0.010639970087132081
0.013799935435993711
0.03490536470201507
0.05227370799953599
0.023652965853188924
-0.007392041434194358
-0.03992704002167343
0.056297098194016855
-0.029701587490874756
0.025975334728405578
0.15471117810817797
-0.004402436312368228
-0.041231184592820234
-0.02683754015960828
0.002834441713499002
0.00020437376063423067
-0.024696210094701375
-0.004548891843570187
0.006880162393102502
-0.025698498496996538
0.008193127607912578
-0.043270118356297314
0.031593268987543104
0.14409319898602754
-0.00990110845173486
-0.046141286489547614
-0.019767467129338943
-0.002886113077537328
-0.011798313360628837
0.004439484367126649
-0.054351920537533176
-0.007961802061092033
0.02369836706448597
-0.03332857889946135
0.033556738812527805
-0.030469094926272887
-0.08580130916795059
0.009985769440945477
-0.02993255173342025
0.08240294679329396
0.1335319242505758
-0.03833582792466589
0.043686421170233844
0.04697005043079024
0.002290700286975092
-0.002141225097156819
-0.013193745306586544
-0.03064276215967165
0.05177710606314603
-0.1231996309250287
-0.049131442963733146
0.0329349227476614
-0.004974673707660003
0.01723990603372094
-0.028038069484354677
-0.027948982027956464
-0.022598097648965126
0.021600538518968766
0.02866430094455431
-0.001529137161485074
0.04623094326822042
0.01841143813390669
0.01915023024006228
0.022307215500347144
-0.004338685881854777
-0.017094050600428255
0.0070380214901603734
0.009557782732690983
0.04373442333555701
0.004911244317155685
0.07254684027471964
0.015470861842064036
0.0076234471447966575
-0.14396724262056126
-0.007069552795548427
0.04077622986381486
0.0023364230093514643
0.052106219157467645
0.005590445607220508
-0.25673951194431527
-0.02958766518956827
-0.010596648732984982
0.002612513629294805
0.03397184921844577
-0.033609354072828786
-0.008516045485940938
0.03864208384284709
-0.06673506060254819
-0.13628241364781507
0.028169520857867548
-0.008298583360978792
0.04882128005650373
0.006837907476415358
0.02990877940083314
0.012251846063833593
-0.028110607639729644
-0.035639112909618374
0.040572897359238795
0.02446611052650934
0.009624341630075138
0.03380765110597911
0.01937708991745686
-0.042744859451100264
0.009515499155588433
-0.016363445599976413
-0.024196303921341505
-0.00571847227956095
-0.0011309589789579176
0.05946046347289622
0.1416700282659079
-0.055987011048987276
0.007917484597154531
0.006970363825435274
0.005319438493199258
0.004145107998250206
0.0251130434243027
0.06672045083403533
0.04163493588253209
0.00919275865260937
-0.1303708482035843
-0.10568624111308901
0.007879612254887447
-0.0007025184715809514
0.02744186543969532
-0.01174053569942815
0.023546316423194626
-0.000521810886850048
0.04103393618503997
0.06353978481789134
0.007352945537556282
-0.006163984762358091
0.052579908285532065
0.01932353299516216
-0.06816084714029878
-0.01075140720566875
-0.04765113856270389
-0.05207939693518007
0.043069715026992264
-0.007583961601954029
-0.016877387022726165
-0.014283474198412237
0.0006813509836715414
0.04559293566296362
0.018675778036303582
-0.014487515951226536
-0.025958977590130286
-0.03465901914249934
0.0015594595695401926
0.010010445138471014
0.001794135035911352
0.003162656850561259
0.07188483786920068
0.031053464457040884
-0.01721795780528179
-0.05888153768866315
-0.01675907546854098
-0.02567157325895359
0.049204160280558226
0.025053371973438238
-0.017678142165070312
-0.01685134998114161
-0.014870600989438806
-0.030732208873996688
0.03268112815174891
0.033209296536567075
0.006409233328743889
0.05915407471455215
0.04400284308380083
-0.034525972014213285
0.00997709013244304
-0.005910291960174035
-0.0307709000357055
-0.037478050092776855
-0.007036593506503728
-0.030270831467052266
-0.04134020915992621
-0.02646788140285668
-0.001821525742488936
0.004374099881727259
0.03860857267870787
0.04120467811559113
-0.06812600239379536
-0.006121904155622222
0.04218684793302019
-0.0010861835469139474
0.03871380428328284
0.0775024764012286
0.02241849050176419
0.0023338411242227143
0.027108702957332902
0.05540310361682311
0.00199089146550729
-0.07479198220777984
0.04598347757197964
0.062469636622614226
-0.19398360338010256
-0.04483384169937807
0.019708333601279566
0.013154723585284474
-0.08628613709599037
-0.09549410349549005
0.03207847207964051
-0.01242152764251059
0.012598747122577181
-0.018564631701028986
0.10930243785372037
0.15134833706714299
0.002193145100463412
-0.008117280478270839
0.005842235955061985
0.003799255711290316
-0.017987053707575595
-0.0503755457591734
-0.03125639227201326
0.012027929642006913
-0.041050151463570425
-0.00784657860425735
0.008587432748011823
-0.03685328189286222
0.01786424768775897
0.0401660285074756
-0.009664640111811736
-0.03466433490964835
0.0006736862436643333
-0.01944355407704573
-0.004109421912783315
-0.03982340220636567
-0.03932340970742398
0.033684569472321874
0.016003099345130906
0.07579767290218767
0.00906013250400799
-0.010219667822991881
0.0023763535506332936
0.009361270563126035
0.0125945146730791
-0.015351145904944581
-3.7744361540300166e-06
-0.006288725212278075
-0.03773933569416806
0.029644974948130256
0.045544444069161756
-0.0470993220117789
-0.015522847153550987
-0.020298062930606434
-0.028236366063036925
0.04014809422522542
0.03179601327964109
-0.05968950192418149
-0.013600009321016062
0.026108036888532967
0.017492923221421722
-0.005174949169296774
-0.03919173763714012
0.0059943893599562524
0.020387892043907833
0.009615186514210318
-0.025299212864461348
0.05929825296512875
0.132380120097294
-0.06767146866936624
0.006029253711972258
-0.02097980007029317
0.0208403613283028
-0.01724398836003138
-0.025897266734991733
0.022727229372523167
0.021445615216899156
-0.024953450178784566
-0.01824984915197032
-0.026654883766783266
0.050596407338781305
0.02305932152964352
-7.558021802342637e-05
0.013569392922821012
-0.019977562541550378
0.009494385390448744
-0.009158920482035714
-0.023699824080735527
-0.0017480960157598476
-0.0003731873659128886
0.004350870196505888
-0.04642257980260423
0.012054082620782872
0.032790289814512506
-0.0028043100648988102
-0.03695100425278531
-0.06567197619288577
-0.006295202248459538
0.0457034914342488
0.04481688436703228
-0.05488056664041783
-0.013889253051695272
-0.04532912404937783
0.0218173419787451
0.023950389454071335
0.0044328892869710266
0.02345728281513353
-0.02901509254023412
-0.03103947367800897
-0.02561098965897003
-0.0879750502929831
0.0831487244061297
-0.014924313433961273
-0.0387209893803193
0.09153586091548911
0.0036504193706116067
-0.026574348861486363
-0.024969486268238583
0.03754753318652098
0.0498778033650207
-0.002107518317036415
0.035153101752636515
0.02979886732894166
-0.022904563770655174
0.005155326658813929
-0.00859536063642492
0.04875202489963595
-0.02746117362869367
0.006031176032646945
0.04315137018305257
-0.022547587119382033
-0.01197269251856356
0.03625261524615684
0.031090987026893925
0.09277958535348592
-0.020238816058802515
-0.007692617309101728
0.06531922461298889
0.024090717115161978
-0.04586543290454967
-0.04168402785385561
-0.018487518342569884
-0.009748136958821962
-0.01725082849997534
-0.002698727683044539
-0.0034503128506451937
-0.012588712672782497
-0.022687791223508398
0.03369669239884799
-0.037977542130172404
-0.039231285950198265
0.03357971203779794
0.059173502939862156
-0.02496967674772256
-0.05503424967166489
-0.01289510245361509
-0.015932743913359075
-0.00581624701890277
0.010544096619591934
-0.01149955744794574
0.03982983819954261
-0.09175846250974078
-0.12392119164621997
-0.08135611841341123
-0.005246527511945986
0.004475048128557227
-0.011323648291089557
-0.036746532531850416
-0.007736619981374744
0.027897938132175597
0.05701261411095416
-0.004636365009729341
-0.0008669199567910316
0.038549452117397624
-0.00778344729372839
0.003511586793942818
0.011938808611381581
0.13658914718974532
0.08539349106508273
-0.032013813575183625
0.023129259688973603
-0.013784223009068624
-0.014774962271236381
0.0025664840254279076
0.10960217927791771
0.038230173088197664
0.009961248797121
0.05586021528690786
-0.03614411304524322
-0.04820643212197943
-0.01740166635444821
-0.013058087777338955
-0.014161992841265767
0.015308170080687184
-0.015603368690928656
-0.014357142965669726
-0.019007366162320585
-0.02896405319551244
0.04792033491014187
0.05178752057876086
-0.0202298582664099
-0.006360232208784098
-0.010401574730252442
0.006213447362341754
0.008296268063267649
-0.012138861058361072
-0.005079884661604076
0.006555307774874344
-0.005195271761423446
-0.02677972936900456
-0.002031655757610835
-0.07718103062462398
-0.02319856667539513
0.056814300254892806
-0.03997762052050006
-0.10162899333051496
-0.03179123734317674
-0.08693205102465924
-0.04508948400566173
0.09068094571271491
0.0053615143532342235
0.043615872004454125
-0.0019556029421501637
0.02545801704732233
-0.03235352671704713
0.051874243525356155
0.13652847443025168
-0.024764637009501485
0.01272136860622837
0.08848266030189421
0.0569115345147761
-0.0007192195715372061
-0.0025844434619474096
0.004926057077208338
0.012649083329093105
0.0052912083420645455
-0.08415563750213222
-0.018992774319344322
-0.029629151730635888
-0.08724385593698163
-0.012511803530433546
-0.010752076473823846
-0.02041941144010352
-0.015081398205372874
0.024638457370421817
-0.06739112241490208
-0.015292076660070755
0.06780147792664988
0.12150238561131942
0.0015814932594649517
-0.03204898541733441
0.018345911281164928
-0.000975711077189331
-0.014818538570522118
-0.03448654518473228
0.00475300754732875
0.02561603537633226
0.05632960782888168
-0.06667541150090928
-0.0787834728049073
0.00335698265772052
-0.025076740949905058
0.009891492072181478
-0.005532676877192559
-0.01393627857662784
-0.013550556878119235
-0.016530295990264884
0.010244593030744167
0.008398744051610951
-0.0326651498438202
0.014686453028832725
-0.025834920744730278
-0.03729924153738542
-0.07693077216087023
0.13045004264447183
0.055955562357746
0.0032895323232413638
0.0030958752980117838
-0.015010788340051845
0.011850412271257733
0.03533098552412082
0.10539021168185134
-0.00330826404618198
0.023467805091125536
-0.02833703499950336
0.00037499088301718087
-0.007372566455118944
0.03274549485261149
-0.010442796412938172
0.019113551308116466
0.02564767124832243
-0.010726256316726251
0.07055529331829014
-0.013503871591911491
0.02645451005121238
0.0008536864596652412
-0.04582663412990877
-0.01661979717841649
0.013495419959785197
0.0080621398497069
-0.042207926959633484
-0.01490995164278723
0.04550669101903156
-0.0006314196276686975
-0.023683256365095773
-0.012562047765725415
0.0029594242663164546
-0.026717972721761924
-0.06997545594536755
0.01677440343944092
-0.031281681281009485
-0.031695810135916366
0.05306931601984987
-0.07604272623940878
-0.018644951626512547
0.0032492854922651178
-0.03232027652159651
0.13508699150524942
0.10820460515370045
-0.010272811496261828
-0.0004534596489408291
-0.030877879407060597
0.024140751687198335
0.017186041501043213
0.030806164607189233
-0.005387934821705697
-0.0037479293116279267
-0.0674813796604265
-0.20048817757090898
-0.023570720053638486
0.011996188114095281
-3.2819356291382626e-05
0.007065491554887011
0.020030529807081875
-0.009837399789409909
0.028912392906881777
0.035451341384738565
-0.015360660589698026
0.0067645232146776825
0.019173709160667324
0.016047265332082304
0.016371221730973592
0.02122827414463729
-0.016290987810088878
0.020176776568839976
0.027461353173535687
0.015161904874779423
0.01312849977737108
-0.039188371295484255
-0.02556615147790455
0.04677988029121613
0.04206733185944175
-0.011079843083914069
-0.045142635841922726
0.02078647676181846
-0.024813937707056786
-0.025550242890410538
0.007268793024000704
0.004656898445843444
0.035585138486973186
-0.014503615174617296
-0.008050371387320645
0.017450984974218837
0.020483907614226263
-0.0017271640139291879
-0.03813830792167831
0.012915922763854268
0.006692622949862448
-0.018846900202474415
-0.04082441890414029
0.04232502521480943
0.016511553474828595
0.002993692793515924
0.023203403577818436
-0.03357829042458845
-0.03708458569173885
-0.04666526492018428
0.015304759977197727
-0.02004040516042149
0.0028685663975880965
0.029709603934511428
-0.004051715631259831
0.038017661297011694
0.02415027305210989
-0.005185877748105193
-0.023085500772385983
0.015422121278675649
-0.053168663649028836
-0.11184351302856668
0.0413661969612502
-0.016075909641461
-0.0015289276129251284
0.024660309987687763
0.03413456153787119
0.008950507877142843
-0.0006992035871164479
-0.017490171063441497
0.003558285075447631
0.026919098391772856
-0.04714317902024819
-0.045432345592988914
0.06979644183447652
0.039632921718986684
-0.00317720066034025
0.004795714027135433
-0.008796243880078311
0.010671095291784475
0.015278212887273209
0.045491793266248345
0.0026494729040488925
0.014372414589927884
0.04330730276486355
0.03426696594972419
0.020924025591810336
0.02225975091247206
-0.05437668036467472
-0.10424650345276545
0.000593774089025603
-0.05962822892499586
-0.016045418683638252
-0.019019345682597156
0.04366462435591956
0.025845872288553024
0.019213003408161747
-0.09664514905642346
-0.041732426933421954
-0.0011365675683608634
0.017192576323253727
0.017541553644849325
-0.03789205550734028
-0.04401577300710417
-0.013724695786284952
0.04171811566265211
0.0014002462831134578
-0.009883844204080203
-0.005733982272279298
-0.01711161791689998
0.12818881750653366
0.02931726783801116
-0.0433801329345679
0.0007275640065453386
-0.029978551294249527
-0.003280545228821973
0.00445238154284746
-0.06170251530558627
0.14847155354107192
0.04388678956998742
-0.02354755805524274
-0.022984175733607996
-0.02373671344686111
0.016324075485577915
-0.011249494402505819
0.03182396068181964
-0.005883381788590463
-0.0460013548407439
0.03845395271669189
0.032805323134699305
0.0266426888204851
-0.04458241285103748
0.06661271589186954
0.0016793285837196764
-0.02432176771817811
0.00648771757746112
0.046056433859010856
0.005743935386737189
-0.07090813009860218
-0.018635546917690503
-0.020748118922162457
0.004219718159098058
-0.03014584098677156
0.001322552363511476
-0.02042114887085704
0.08581982278615981
0.03827725179520545
-0.021113335398468703
-0.008958159730949818
0.03606524508443397
-0.010575286500963382
-0.03378577508323597
-0.03348038167722835
-0.010285161917352065
0.04654973167132459
0.04909201779430373
0.0051442329300418095
0.006560821890165508
-0.0016678291782189123
-0.009979283460103495
-0.018686161850614648
-0.016921981382363113
0.010519889056304297
-0.022459965922315923
0.04874574632677846
0.02681381495721343
-0.1828286484415963
0.01214397102324209
0.027945708892793537
0.015742157070984454
0.005433408590949074
-0.0009845821883118528
0.013799450360579349
0.05570093981005828
0.01757706504843348
-0.11081527524817066
-0.0010526207861540084
0.025340140032873795
0.00571583507313716
0.015116276856012615
0.00011796121534639424
-0.01039075125875107
-0.030639821698472215
0.015812903698711186
0.025560535952482904
0.016525693331725228
-0.0019873028518477007
-0.0382957327644165
-0.016692889821174405
-0.024088386166209865
-0.033753760922920865
-0.0019088841791275832
-0.01918792702914589
-0.0032940439714997565
-0.01104208202481956
0.01872052807292105
0.013516548613048525
0.02339872832628843
-0.04776122866165887
-0.009344521903825885
-0.015470346636672322
0.03583174023857766
0.022895144026268164
0.002700633548126919
0.010501975845656882
0.07062908067801629
0.11944899202820435
-0.012234217356469176
0.07168208819478326
-0.009365167111401874
0.014744353716730895
-0.08023140890598028
-0.15033799531730252
-0.06172367492868796
0.0057618565097001025
0.020871682317258628
0.0006595664571657278
0.06410906699713402
0.0020394442149665255
0.01744687249007972
0.04969087653507498
-0.0071380148312376965
0.005810051163952382
0.027302459520406126
-0.01858263202520497
0.01983336622027078
-0.03654147934346285
0.06127612148501935
-0.005804225013004853
-0.1477216513251696
-0.032372160316192555
-0.02968233803492273
-0.010168370365403735
0.002139922432097403
0.012996281619223274
-0.006630313089884765
0.0013369572194954205
0.009534568212872737
0.004230747719461788
-0.0009868926456677598
0.0038101786840030803
-0.009063607429714546
0.011502260630809981
0.016095959922311026
0.011554534031907539
-0.032354210194655834
-0.013700748113932982
-0.0632494256627276
-0.012266188908366967
0.011580660458430304
0.04521451819133827
0.11135342457639208
0.04047356226261794
0.08910243974052671
-0.002993294914396312
-0.01675065256192568
-0.02115513132601921
-0.052826833713845514
-0.025652722272318854
-0.008667148585096353
0.002491933494306777
0.010514353461862518
0.006153028234385371
-0.01704626620728033
-0.06045620705056577
-0.059484603349996876
-0.004210914686223866
-0.03268107977008642
-0.010341273980030838
0.1297705122756633
0.09847082263838498
0.05936642619067368
-0.011825946905238728
-0.09633931511615765
0.03573137730145363
0.09852815881908389
-0.008358352272923815
-0.047497466222035045
-0.0345159550854376
-0.0507010085949471
0.02535433894250936
0.05971783813568202
-0.00886108957382284
-0.00690496886790926
-0.03794439702126844
-0.012012254303196723
0.0037573120826267727
-0.015105988727633283
-0.06327832467120284
0.008491131900198779
-0.01853586073536144
-0.0185297142457773
-0.02231499811506371
-0.0002595077346932356
-0.04411950013586669
-0.00733068299053574
0.018971638547025382
0.017528799833929805
-0.07904414259752839
-0.014764728185104891
0.09263283594663614
-0.0021304439253047743
-0.014516526989649227
-0.008220632900426036
0.042042146222136006
0.047046541507180364
-0.028787217692434412
0.013389227042756323
0.02426161555152653
0.01071939681395114
-0.0073270679431588345
-0.006529395179309374
0.08657288323303274
0.0666095793841088
0.01297499026430541
0.06151030413346851
-0.022818386748128344
0.008283624135227338
0.02091069489749091
-0.00354345275537864
-0.002522272430218542
-0.019979945035296407
-0.019089331061953627
-0.020540109764502875
0.0017331471123626693
0.008488073602251426
0.022358117305142214
0.03473632437842768
-0.02223276810247978
0.017075563295012974
-0.02471910392264502
-0.07815888548791056
-0.06650050026004228
0.013278286703113679
-0.15315913520974322
-0.12454468001457893
0.09401605392054098
0.028362814816084363
-0.02053031480742026
0.03752985814594377
0.043169476506788
-0.012971899284225511
-0.0016744254157375989
-0.02378751897414033
-0.031681843524823776
-0.005632542768696952
0.031761539630744254
-0.007753878658691017
-0.012320235255245757
-0.03269741229308962
0.005721868517530015
0.0088424624186247
0.022919863123774885
0.03317842397462705
0.04494586205502629
0.054881933997518735
0.035976539326823924
0.029991949179072976
0.046234901984996316
0.01888422835364139
-0.01951739856611308
-0.012829003160415558
-0.010408568936755071
-0.022237387806699267
-0.010094526384924253
0.0010942960547839845
0.005273986989246454
0.0011296854190348134
0.0715481765774346
0.004433352683251146
-0.042203948110059605
-0.00699319810345614
-0.016839828259371435
-0.01890790329033364
0.048526534438713596
0.014817462721004645
0.005748092730888087
0.0067457777267940595
-0.0038312412580378376
-0.09433382321265602
-0.05708176364801035
-0.009438545290590497
-0.03637574216923045
0.004955498972531597
0.01375782355476083
0.042017185659059014
-0.019462211082125605
0.021907413148788586
-0.008656073209298063
-0.012321358770080849
-0.01468103963658414
0.011767040853656855
-0.04247963764386133
-0.01432917560683744
0.020884961387674147
-0.030777525625734898
0.008382458647690577
-0.00582279995732057
-0.012266757170812754
-0.011667253940164591
-0.04862136014173788
-0.007590930221915322
0.013351811078652721
0.002560154115393046
0.019972897018037724
-0.0020292388769219565
-0.02150778301631196
0.05143100182847178
0.06337549372607935
0.012738584720991158
0.0029240167531152175
-0.04532555575856298
-0.007313726698618884
0.04621522612561428
-0.017887446150266297
0.002543176859186149
-0.009594114763191648
0.10954003593629459
0.0031915918354166006
0.10168668734791604
0.004602718773877911
-0.026634132365757374
0.05547907665994903
0.007698236751001066
-0.0026197406328488707
-0.019863782424151055
-0.0026760174126556767
0.008450382701861927
-0.0176090543693268
-0.007902651783152772
-0.011654797253968001
0.026080524539688968
-0.008431025073893468
-0.07182724383886582
-0.11939590485022149
-0.0017580681351509685
-0.03902195536901312
-0.002284410423582285
-0.08372685053161517
-0.0313691919512413
0.017158364347220057
-0.021466966111030036
