0
-0.005064594889752634
-0.0003964507675970138
-0.01866780210645037
-0.010684633703187696
0.0753732386936292
-7.224106394634529e-05
-0.013568168547330766
0.011093113371709562
-0.01526552684547238
-0.004937725757193747
0.026014610433011485
-0.0071550895882268395
-0.008182178384942094
-0.003915186828619054
-0.005571478715033575
-0.022858200858276414
0.006700422809057449
0.011735433599876957
0.008322626542312271
0.017513347942595445
-0.00321174685644099
0.029134626532086323
0.021011626383626213
0.0036889008587446264
-0.07805902673987113
0.04695286945184737
0.12240059725194867
-0.02677291431954106
0.007963231776974543
-0.02977117543547401
0.006286562701837008
-0.01182942943639213
-0.04145005675096396
-0.016789236503401188
-0.015158130984190414
0.012115261934330426
-0.04561855700712971
-0.09941730924949171
0.0078952705667967
-0.0028704272932582723
-0.04707598016094703
0.03648805050487652
0.1826098773843781
-0.004348903137286775
-0.01835149814309605
-0.035566459280477546
-0.042273566929165104
0.05075248071618826
0.1538367881317098
-0.044248125658783374
-0.02421458117302872
-0.011472277101450507
-0.025516121525986674
-0.029918046186968434
0.005982658980586922
0.02750598683172956
-0.02279105128312236
-0.044478807035258375
0.019970167603036524
0.017733360631139637
0.0036075448996247734
0.013895942511048889
-0.0034064601077919295
-0.007243918764908758
0.043484937958989535
-0.09004092401145562
-0.06962959879309487
-0.025716461221138447
0.12205885010590357
0.1257761342168645
-0.003932410956188374
0.007372138467152095
-0.01147543460779847
0.04407776168603272
0.021084534024320964
-0.0369137184948227
0.013487793790167294
0.03332171693844448
-0.005538287306470155
0.003999470339451714
0.010686828475081006
0.005234881082038127
-0.012441675134374086
-0.011598303064790389
-0.007704585650070325
-0.0030255396909500045
-0.011511690437233235
-0.11013061305127024
0.00925448049854916
-0.13378932921735265
0.08488954337408974
0.061144094663481224
-0.030713286055104518
0.005830451265865073
0.025244738290760252
-0.01343258345240142
-0.00972582606007491
-0.14670737575764004
-0.04029100736304014
0.036717807652530896
0.00846209971879094
-0.0040518363035148604
-0.0322393633356642
-0.0009427860802750124
0.017574142958723706
0.009267276574705361
-0.0033600737411628922
-0.009655948278571013
0.0032120678008051044
0.02884431681427295
0.02373586529037846
0.018265881470200845
-0.010525596117351122
-0.011366646329592656
-0.006449269520235469
0.014246541025402322
0.012749500181714446
-0.002143809941502088
0.043726637655108876
-0.02216984291814397
-0.047945062556753154
0.022984510531102943
-0.026992202845637324
0.022166437293387315
0.019377943393490474
0.022392488227928276
0.005476537840934379
0.013626847103145712
0.0466077619252781
0.006410346346294636
-0.110275194439654
0.015310735730228413
-0.0021061428891109256
-0.017673634363149122
-0.0018125738592497313
-0.00812672913011065
0.03566447536856773
0.0024314944130806614
-0.028554214337313834
-0.026829462423125033
0.011328820835247637
0.04454063751262753
-0.0033088110775905968
0.012668128571561748
0.012511555826407157
-0.012785736758113618
-0.03809465229199069
0.016169006755690735
0.033375956371032967
0.02771772801701539
0.033366289829509906
-0.010444290964028657
0.0561493629497525
-0.003197866387498425
0.017117217974785503
0.0007212692249803919
0.009566397251244172
-0.03945979331275883
-0.11133450195443333
0.046534631061932966
0.03673332987216834
0.03646562197255251
0.030424723313138318
-0.007263223453211717
0.006314115324479847
-0.048794082510301144
-0.0530632462011603
0.042422347456967664
-0.013881151318362508
-0.013898310847592958
-0.005129716586019538
-0.01111706449442139
-0.008442047460907483
0.006362526220874417
0.022748286615822056
0.011630448085405958
0.004143812640618675
-0.012531217993538383
0.0035000689919232933
-0.008923924343955421
0.040702415486889576
0.054738241508936206
0.006647746066629854
-0.0040878786073241195
-0.017246079062321937
0.0025517879302952816
-0.04545525119958447
0.03500009371579745
-0.06857328612569247
-0.13655938139194326
0.015494106783527297
0.031252848817545795
0.00571102472516539
0.004937722694767573
0.013399383348020436
-0.015702764474201047
0.0037429876020476467
-0.07656112589147873
-0.05944618025613019
0.04650873441987066
0.05561354918723615
0.1810803979788834
-0.0007230368251908866
0.031340049837373096
0.04316539392823453
0.07397885755674116
-0.04574101997830374
-0.053244134491576826
0.01728056426057673
-0.022051635630260146
-0.015519817683842892
0.014907928192915901
0.008764066444006468
0.01652854386473557
-0.002351265136083667
0.01598850363963612
-0.02581719961000251
0.005306654966575032
-0.1644042210830119
-0.10961483995005987
0.006443142000850669
0.03854657966563233
0.036459107886421586
0.024610996860843087
-0.00657541573489537
0.016240629536191858
0.033815847750605935
-0.02471824293259077
-0.10593904437710491
-0.013537724683898923
-0.0025384356286936665
-0.021664450758014958
-0.014177587776391793
-0.017613429441557745
-0.004297597309307933
0.015288650190070812
0.01885399925312732
0.0005422015021696162
-0.12435206173471261
0.005505154863975921
0.00759082684661373
-0.02475699650016191
0.06324803814148834
-0.0025311760143966835
-0.07173585123182671
-0.033230077612742284
0.016029920251965323
-0.011323878575001122
0.05197608975651516
0.024023188807893
-0.0015154747133368056
0.06478945368356354
0.04193255898435861
0.005073088995569905
0.03094287414942102
0.0022546591575887606
0.08301444398650955
0.06263884575831248
0.021753035602798513
0.009462909011468254
-0.024762472273916415
0.10313305076345355
0.11766488357335296
-0.050830088945038106
0.005972975258488429
-0.005016999020304798
0.015977458996948305
-0.08777128206633578
0.007521549556935038
-0.002172918275946683
0.025151821680775878
-0.033379070051532435
-0.12390775394666316
-0.030220569922989216
0.037238337327723574
0.05592885824257771
0.005840532879281847
-0.011166697069226364
-0.040533209098542765
-0.005643407003020693
-0.060648571670682175
-0.016355254204220994
0.010544757681392878
-0.0010761511756366131
0.005386551627777827
-0.017532686126708195
-0.000743576804784917
0.015749810709559338
0.02356119669056279
-0.024825754298359065
-0.006038431402875981
0.00029370098314305214
-0.017773248360346276
-0.004346748073549358
-0.02764045640028742
0.020347260066636813
0.041497771070952906
0.013191402198085624
0.0035158615287085313
-0.014884020880326235
-0.019993436652056225
0.0033196701109498503
-0.029746720364453735
-0.000580671504220702
0.12492066486390772
-0.0251793101974315
-0.009902332539413965
-0.027163656162195352
0.043312180810735366
-0.026009899150253837
0.004353348265554829
-0.004042634795474705
0.028424550429999938
0.04270841541222551
-0.006573289379884279
-0.0065187003971557845
-0.025415974401636978
0.007262215404707647
0.014752098903751178
0.022937259989207464
-0.011682385567730132
-0.03937235583440207
0.05092348700922983
0.09201957240197384
-0.12877391920075087
-0.1389850808844413
-0.01020168896101977
-0.01841787291942996
0.015608469978318334
0.0008908685125139123
0.016925360497502883
0.060681783040534024
-0.01028516587466142
-0.008365273137762353
0.06836612393030109
-0.005908725008558789
0.011806506016474809
0.03187737377709597
-0.011188943403794106
0.053281184978576646
-0.003526445066760886
0.0008111711232790307
0.0265486333664468
-0.03919292273829215
0.02431353540644543
-0.009044659041872754
-0.15481454795075555
-0.0068198354867974615
-0.06986105897056698
-0.021651908655466727
0.04153213827605229
-0.015636120040327488
0.01576083050367247
0.0072946812745496295
0.004925844006561999
-0.01031099378077101
0.014303051160534022
0.0016549679913003112
0.007675697755452149
-0.028574134516605922
0.16844579682905725
0.006921865853590245
-0.005000204679556752
0.028237773230804602
-0.039661962889663456
0.030749960186031954
-0.0020917491101968074
0.028386240361782545
0.018373813355801922
0.012682860256618135
0.00962211999646574
-0.16251844680927433
-0.05114704712319466
0.004882307168659321
-0.03140760335554469
0.004188703491591468
-0.02091295704797459
-0.0037108464402315516
0.01077554208512815
-0.0010691518926271393
-0.02494268802307208
0.029208556796320374
0.012443219034190179
0.02951992651900713
0.02650717788206909
-0.015383149756281337
0.061133489847817635
0.033021898993345164
-0.015418259041442395
-0.0859148407858008
-0.03282786810613651
-0.018915266808878055
0.0008363438773511054
0.03856152279962954
0.011511273604253167
0.016870080947174335
-0.007508134675035789
-0.009412968618051408
-0.009460421304582283
0.028614921201947186
-0.02293539744330577
0.0325238770493084
0.004932974193827961
-0.1535582693082561
-0.025870083786111654
-0.04464094096791715
0.032281281180378034
0.10110186278016041
0.030970332602472204
-0.044035477861333897
0.04128655112849573
0.0992253773703976
0.0009080164713766469
0.038118846914872634
-0.003922595163071464
0.004139879876902737
0.0054498387139176084
0.06230978113783413
-0.007474758676819292
-0.0026203833351145056
-0.004943778287787141
0.004588056448367653
-0.04159959914787113
-0.030711723408426504
-0.027740570017798644
0.011699789240889847
0.011294394092859839
-0.019229277495319462
-0.022170968544135927
-0.0035162440613796036
0.0006954114765592287
0.0012758696656455855
0.0014939497156149872
0.015909071111349277
0.09476035962641885
-0.0017258497647185751
-0.08161987952987744
-0.010809642946950748
-0.01967633730658873
-0.01751129605143848
-0.03249160975107595
-0.004503401989815201
0.004640688248256392
-0.001624595012353507
-1.813988355556053e-05
-0.013917116956145784
-0.026170474819585548
-0.019129438443451476
0.02637803479745136
0.010758441651706205
-0.008936792588674452
-0.0019352811707056548
-0.009289110216347929
-0.013130990757306815
0.025655694684609
0.0016845689326081396
0.005312147024211928
-0.00859621422686424
0.05389828757683557
0.10677815579367286
-0.03556714266366994
-0.029785992422998196
0.01000665175641178
0.004344667829028987
-0.013808425632770033
-0.0006724585451735435
-0.0042211690841691156
0.016749460013436204
-0.012073739149395574
0.015771799181649938
0.009009834439160282
0.01163303929988197
0.041381563572646704
0.03229303470911207
-0.03626654777109162
0.007238438450497536
0.0034098554998775094
-0.027626511356934624
-0.005696010899496695
-0.009433863839717484
0.019740870597155062
-0.002351283030991842
-0.04184346492271029
0.011757612208731694
-0.036948586734123934
-0.017294452739612245
0.015729856736830042
0.04070416539174236
-0.03775325736176172
-0.010062900636895427
0.11361595239663824
0.056455162802012106
-0.008355181015257396
-0.0691149471639339
-0.031542632721051
-0.1618046681308896
-0.08423505502498
0.034015807299100746
0.020191582994283745
0.023495755799560154
-0.0009286295671528073
0.07551813571834684
0.0020161432796676673
0.05268642552394529
-0.00220516032171927
0.004636399725071351
0.0031827222269069128
-0.007620208559670121
0.0156399015604129
0.0012579313526958126
-0.006775953731939972
-0.01876615870968933
-0.008458205880687797
-0.0144925633731122
0.01009052995162856
-0.004329864817624531
-0.05164920501463631
0.01195568238772842
-0.036747673677223584
0.0998486734779845
0.08367163024106249
0.006296124545076231
-0.09203029608115099
0.02399819498914158
-0.03238771386199392
-0.06507150889816656
0.019125031323334173
-0.05329844933914268
0.04252736931744368
0.0006822868593984457
0.03282866653855375
0.03165295098358642
0.003983180765997264
-0.00867625327290436
-0.03429037584074018
0.005679063944621295
-0.028145887546254314
0.011461488712405515
-0.03477010094030416
-0.027270243060562874
0.016795055305015637
0.03384697706793142
0.05178582909660482
-0.02188913664933941
0.02923708441293565
-0.031693969903656555
-0.02602443975670428
0.009460009892112365
-0.009109051949902785
0.005121796049326636
-0.027521555970417607
-0.011401847782642426
0.013435819438443087
-0.015169655414334139
0.035279059433158004
0.007033482156065291
0.05891624910109905
-0.029949095785589363
-0.04209329981945668
-0.0060714866074567855
0.04750455045608675
0.007343957322471604
0.0449698579735091
0.03023865872157335
-0.0011943517345561695
0.03828684576956474
-0.046196584283339906
-0.004589218976855055
0.012938583305462364
-0.008700471946793832
0.010512545550831642
-0.02232160160541465
-0.036882657344878736
0.033891119745880924
-0.028180508162215692
0.0312428496327268
0.14834271753314698
0.06475383302180222
-0.003468214482173283
-0.10018817389461585
-0.0235964133785297
-0.02402736990311668
-0.060969730463303125
-0.013558164116772181
-0.0008441744413104455
0.029139392415328258
-0.018831669158690577
-0.008589641472050028
-0.029516560132904577
-0.004945054580692382
-0.09442296144450628
0.0014271853362336573
0.03283876530365578
-0.018621874941873354
-0.019395179019100994
0.01264727806718703
0.010644312600456623
-0.007277888724799682
-0.02659749560394055
0.007411460853648634
-0.03721640859982599
-0.028163301193970685
-0.05971814492486901
-0.06811776460892782
0.04231474127197021
-0.009486517172088505
-0.010162486747368594
0.10934611492633715
0.07902568557795012
0.019783837742815488
0.0515572123830179
0.018235650948679297
-0.006028414901254684
-0.015935108719527104
-0.00907716998622149
0.0012531668192687976
0.014079686607028142
-0.069856535284849
-0.0358546601164105
0.0675664490075703
0.0057096534056595575
0.06769821829004888
0.03354229406177843
-0.059362003218264806
0.02903264366809668
0.0074264725682567255
-0.016369194976505064
0.030259300461300726
-0.007983159697138495
0.03711594150297818
0.01028377926413723
-0.008752967086007469
0.027938577956438393
-0.015007476923727827
0.022114296514499313
0.02750624122296241
0.01238774060996715
-0.027364187825653526
-0.021987706839051803
-0.022321547094065846
-0.0007866952719651276
-0.0022717126322731344
-0.1301263363581795
0.019102772395009987
0.009932786761431573
-0.018296278646757966
-0.014034257276412
-0.026686902214673732
0.001300836394583039
-0.011619376970298235
0.008497779900771375
0.02787885495402442
0.021239103509331714
0.021535906276245534
0.12470225773699181
-0.012051006772926542
0.01360046974014016
0.023591681523407508
-0.014968360766960932
-0.06361832809521618
-0.13608149799707817
0.024729142441169534
-0.028649642614450712
0.006706995602232384
-0.007101670458968722
0.06625160257946405
0.01938742438604942
0.03528374725886571
0.05544220150014496
-0.019327307981481332
-0.06360595827834392
-0.09012148553936805
-0.0010353980044121036
-0.0012902115657727816
0.004714734225522314
0.038896190393931565
-0.000796710887457579
0.008972714335690721
0.02284190051897499
0.009012154064093622
0.016567282710575323
-0.02352094350113801
-0.022673248668456446
-0.07350949934135281
-0.004291878758050283
0.050744412042830624
-0.000800622822502765
-0.017244399778926143
-0.007008226668211879
0.046129906626285515
0.018580780736942817
-0.021976086812438737
0.02222953380817955
0.01638681128700079
0.01988884700065809
-0.04099571886236627
-0.00794860208274473
0.04065365633504745
0.05095037287178642
0.03938925007829896
-0.01522151165062436
-0.03080364611735788
-0.009314758589087415
0.009874040438757123
-0.02706689489796092
-0.016257864610624912
-0.033440987798164526
0.013001730833535485
-0.0026053313265930744
0.011994264093359408
0.011365096697497062
-0.013295417505088789
0.019186001520006553
0.006644785172017683
0.026520193875755674
-0.08651352137361294
-0.046526893060654204
0.037728587439045155
0.032191963733714295
-0.008810173987218561
-0.01748009593230711
-0.0121432305524547
0.030000316308515098
-0.007246312373146675
0.008542008135730752
-0.13688663684447852
-0.1019895704523838
0.2011509755636913
0.057124924680959706
-0.00238714314259771
-0.01825948614767205
-0.0078082594109079645
-0.01931623497948211
-0.017916132334330957
-0.006956494225853297
-0.05294770461393637
-0.020573741168884965
-0.0314881500962015
0.0018566452207340158
0.15393717080679747
-0.007684311947819488
-0.05775142549470649
-0.029658289840331486
0.008949081936544508
0.05699011702601894
-0.004781412365302871
-0.016082003280935214
0.02309921131203806
-0.01872561498696607
0.028769866573027405
0.06135240269805264
0.00967806671405857
0.014910477258993873
0.010416965854978264
-0.03694545275712743
-0.0024706152529400554
0.0022961427452218514
-0.018948639140910398
-0.04958503847247106
0.03906295136932956
0.004896304251360387
-0.059899834641302864
-0.05180485634322949
0.11858285423959793
0.16968104148525676
0.03764699397763555
0.012422039239844973
-0.039311329471953003
0.04570056724539182
-0.027796959110446336
-0.05875557706476073
-0.04214203953199034
0.017923007788794347
-0.10746669672572336
0.019093874750402657
0.1317284308519077
-0.03242800001274568
0.015570734925997877
0.031032930805662454
-0.06813649735385371
-0.008849820477646826
-0.02136922635958475
0.03394617739282331
-0.08006123025337351
-0.06349881054446307
-0.007887308812794638
-0.056438989821404204
0.027929275728929635
-0.0016296683701047512
0.0056513963738257
0.025488344016470574
0.017797198615621457
-0.0007441292886415943
-0.0040713283940676534
-0.022581335921914508
-0.049667386722987865
0.0031837424295826345
0.0017112490070618886
-0.02075127794239514
0.010383361752770019
0.005548238534930965
-0.018537092006017213
0.0013536222490424536
0.10585097708063179
-0.009733578238210668
0.007361692174265393
-0.03867159454408993
0.00249047774605242
0.010826269873307598
0.009404116305083608
-0.02647752885023059
-0.005242953695407434
-0.016674356663343208
-0.014060581927503025
-0.013119354472318927
-0.01372434241348036
0.010266146030259955
0.006804389920527806
0.014828741003741057
0.017762867530666582
0.0042692607711541765
0.03672047503283449
-0.016577425436273083
-0.04228156018860459
-0.012630697370706509
0.006637172328847726
0.00816036802621362
0.017326740607804227
0.005932763028029113
0.0031226126669807314
0.008285162863319005
0.004794705862016337
-0.012587607193651162
0.0071383478145757824
0.06092596253629917
-0.005041221579204322
-0.037396666822549676
0.019942806914509448
-0.013198363109956973
-0.014920047748520881
-0.0069778676828146065
0.024195827503749313
0.027637326711159666
-0.003951358913796178
-0.002668383990294919
0.03028745988797714
0.0678937790689357
-0.0025351460894633003
0.0490755175107877
-0.0037169340049594203
-0.021733357609211034
-0.004953919010130239
-0.023317499819481044
-0.028447007471178447
0.012171451784334248
-0.003810817456680162
-0.0014536994776802377
0.014718937537164955
-0.017191121403837415
-0.04414303037783522
-0.008363855723298999
0.007007874272875527
-0.010353694959752713
0.0047701444007176115
-0.030999625582073222
0.043630440240073454
0.041554500301280516
-0.004181750683501911
0.020347015226689066
-0.025708194200978782
-0.000762858401748312
-0.014546705725877464
0.05910597202713553
0.006133239448874738
-0.03437280635231222
-0.015497932857586905
-0.050656649043760736
-0.02046572363460275
-0.019190235335644335
0.00043403564936984483
-0.0483008990899933
-0.08148783810196342
-0.028663244595153996
-0.025586272889511277
-0.023101761617195866
-0.030462994081566067
0.02634281631913793
-0.03407639149749983
0.028170042574041983
0.024089177208655325
0.02549490381136986
-0.018683305798385143
0.014259708636788942
-0.023485493355071878
0.060230298442207585
0.05531045039769371
-0.029811290126681888
-0.011452520676389825
-0.0021090859728774675
-0.01265477326470834
-0.04542516979331039
0.015733304772449882
0.04974777835060174
0.04613678770467007
0.017545827233342547
0.04649106583178512
-0.017669244014101502
-0.03243999076399449
-0.012480048022832682
0.05344359685102319
-0.01924374277434294
0.1348496468845993
0.049220525062456826
-0.045259287242279005
-0.0216457852970864
0.007855494893676032
0.05147787135282755
-0.03887320715755904
0.12094288003865795
0.05253062448994614
-0.03683843432885118
0.039274361122160435
0.004087042925501318
-0.03853519042384043
0.0006209158348316199
-0.029784119114128395
0.0007860920108562889
0.018837234973118077
-0.06547430171953836
-0.06720747206091629
-0.03464077821523627
0.007345181603623665
0.0013743429930155855
-0.03091808773741798
0.04225203368388835
0.025509822326643748
0.028407788455569585
-0.028876722584782844
-0.029607710706466745
-0.03783039463820926
-0.025048498444374574
-0.00621810012874327
-0.07519108361529038
-0.10853002437637464
0.004861841143753781
0.01672324841010637
-0.003704554000539633
0.008056704558086958
-0.009357565473535239
-0.021231402133220823
0.03055322759574037
0.06587548745277443
0.06615865592677117
-0.032620767963502016
0.0704572008638685
0.05700941480729197
-0.027046332836144837
0.12059494203608412
0.07333453560753443
-0.06489882390950068
0.002819825008588513
0.011101758617449421
0.037759857015353185
-0.104915291707976
-0.1341893600817203
0.017654458680552942
0.014279058208733193
0.02380522508619795
0.030178941299717973
0.047096080381381966
0.021757773393232375
-0.03389428130297567
0.016648088152158947
0.027175695745212922
0.04380540081788804
0.04756214657358382
0.037790526473746144
-0.11847679613325574
-0.18207870803277362
0.03931095345215435
-0.031756233234981744
-0.07376985769053979
-0.010827683622132638
0.0344378430710962
-0.004393922309021208
-0.00781287041322184
-0.03063672379376784
0.02199356612638519
-0.031953947253104326
-0.041688438251695915
0.03678396659444966
-0.0073419013129610855
0.035545695366888765
0.03018109725385342
0.015891231022213483
0.02580092629678451
0.02953815809675802
0.026261637354195476
-0.1195215025491076
-0.042874203650115274
0.018844567584084062
-0.026595387931912545
0.003625702861916633
0.048903129703552664
0.027066599082725594
0.0027182802464788118
0.02689864440411983
-0.007748407506648787
0.03849286680304587
0.0008360375550113954
-0.051606818604559804
0.024374273241759725
0.011386543458370188
-0.01718717024690068
0.022394241639113664
0.016401635075784095
0.012999055277169609
0.016683323850720348
0.04715898866037863
0.04784167718178271
-0.05461670973721812
-0.01080712144247106
0.009438693519059349
0.01017967866993894
-0.006574531805651781
0.010050590132806778
-0.03955516521622087
0.010469179734524665
-0.08625454752004065
-0.14374191507795603
0.026843385933095053
-0.013314957340304962
-0.025486186521441315
-0.008538453776415314
0.1628504909043652
-0.02967521013497266
-0.04583364629056822
0.002443669577259674
-0.001428215407626129
-0.039517331764082314
-0.039916530681964164
-0.05568770052662998
0.1179887993480811
0.14854514275804614
-0.04657103692764883
-0.026480840550753885
-0.017523956456333496
-0.007611849488462708
0.0261353272456696
-0.02344024298175809
0.027588156876436516
0.04423368248116525
-0.026793534089997708
-0.012882291781202695
0.01483426559933463
-0.009935743392227503
-0.004965698856825025
-0.0414367255537474
0.08430832448103662
0.05240823226287782
-0.014857349837977622
-0.0208304716429474
-0.031645991681584246
-0.01805480784587156
0.036463022141782826
0.0610870523761897
-0.006689018833387832
-0.006839274056019476
0.061851975157805786
0.04083574926859829
-0.023231268478449824
-0.006321967231118507
-0.05229094825872692
-0.007024357392825123
0.011796173070193943
0.020884233713349517
-0.025240855479849455
0.01554956386955802
-0.0022847342729587624
-0.02416486868196188
0.057549661661770606
0.08975795098319626
-0.06801359524527739
0.037587308357623826
-0.02562803928644075
-0.06219202208035717
-0.0366839755977926
-0.06789602416261674
-0.04151153212605866
0.00171331161456863
-0.005359579107109877
-0.0008469108269794205
-0.03984599076671995
0.016951907519664636
0.014573999877834523
-0.01754950670571805
-0.02651689048903362
0.016311337981891105
-0.01549788355818931
-0.01041673185817119
-0.027071274607907023
-0.0034645723794531
-0.017713982796457146
0.02012933285545313
-0.015581294052376755
-0.018683577633687692
-0.018912398491144258
0.17356392258147793
0.04225001848720639
-0.04070360038107283
-0.028952745312819474
0.06165137841592831
0.02436106035992593
-0.02288752861243029
-0.016260922621040372
0.011225689816793808
-0.02354828698026232
-0.01641754014795034
-0.01813746404270421
0.02554115484017481
-0.017484933314239212
0.03627363192870387
0.0805984170553969
0.06193100491139317
0.054260930252544005
0.07159285896265256
-0.07942522721126077
-0.036298682882227686
0.04755802843236917
0.04949832740231183
-0.021644103147932445
-0.082387600892133
0.04992001070308155
-0.05838852691948917
-0.014358905276490338
-0.014850169480065633
0.01212290661706501
0.006540147381290343
-0.009444262804312403
-0.00472366167775596
-0.09135120033506648
-0.04667592414760028
0.02140006782163353
-0.07580287268151614
-0.12342669943891442
0.06112683782125332
0.014004218706233513
-0.041112593558468954
0.01893444341555544
0.03027468005133396
0.03828048570783337
-0.021387813686172423
0.0014096612071607363
0.019863337869465966
0.009172723849139117
-0.01976824868644436
0.009244419666290629
0.009429768656077385
0.008334575156959258
-0.010384008857747814
0.03270879604247088
0.03696719046121261
0.0023723717961197832
0.03500890753012636
0.015834489394874397
0.022731750753053934
0.00023525079229177258
-0.02947410510548964
0.08524473512749267
0.04903563243195578
-0.010411362992537506
-0.034589131737405646
0.008602668636476102
-0.010159223412720297
-0.05007909052674804
0.018415865505733448
0.038629849089498944
0.019609820722583653
-0.019635266427778787
0.02920863276474348
-0.10025330300340503
-0.07016420525482271
0.03667258860824612
-0.00918083442287721
-0.00781923401432012
0.04873726512757147
-0.08306287872777149
-0.171860022153843
0.04432917595731652
-0.007268899323485093
-0.00979410128716624
-0.009855590613009798
0.002595355721019644
0.0218120186380371
0.021615367164769927
0.011240518590001122
0.04135989111704945
0.016285811197551067
-0.01709094821414118
0.016228990694900906
0.06837845075008758
0.04630689687040979
0.06029256099833834
-0.05311229975488445
-0.09529370268286687
-0.008823412767888714
-0.015674782958773215
0.0062744382492230955
0.0023262668100092923
-0.017437720876974445
0.01675896382830499
0.0101800219342262
0.004370780094797918
0.0359384768491069
0.011652543423052601
-0.013689846236279227
-0.023264327220744282
0.009884768317004024
-0.006819537405393463
-0.03845879719217659
0.037560018649580584
0.07838259163320017
0.013438457288806568
-0.03727096341451646
0.00159441963945395
0.003013222220558093
-0.005223635722785371
0.004190803493408663
0.022192841309291198
0.0041045776581128575
0.008298126602061535
-0.020203233446098586
0.0021826684284333045
-0.029280452068623352
-0.018732133800820405
-0.004985533066802145
0.056838401511972544
-0.0027308246833690226
-0.00012027405699529539
-0.07854526038839847
-0.04297846532427118
0.019971966106449062
0.037354798267077924
0.0009015697770202499
0.012299109798851411
-0.015913507770829765
0.0559780044849417
0.006754650633560147
0.004643717253484154
-0.07845738563938812
-0.09695401647867975
0.01839812726613069
-0.014504387267220786
-0.002535615762473648
-0.005274257715254073
0.036431200376146895
0.05550663998458388
-0.012584423113750859
-0.01516221310774148
0.03993596863263341
-0.018452288663958205
0.02333314655946114
0.01606121934038277
0.02735711427603931
-0.03245158257165977
-0.02353177123960254
0.029207293056067653
0.005737581817703545
0.025286825154005647
0.020888156150131197
0.018221987037282422
-0.019891405164749555
0.019973351003221222
-0.020286208409181387
-0.01963227011039457
0.08612938692276483
-0.009997064744039951
-0.023203617747039367
0.000956118943003906
-0.004140890091921238
-0.020887950192159516
-0.02481237778330243
-0.03165936383513059
0.00790409724290045
-0.01477930628977892
0.0620804046430475
0.01105960407285623
-0.005870487217026544
0.010087266975993563
-0.004611897316313306
-0.011821089430431203
-0.02139421685267072
-0.00631947754206968
-0.0041034969166143884
0.009635138377872304
0.04238527051776179
0.02520271713283101
0.017038211626153776
0.02704411039021303
-0.007856589101160685
0.013800002983906032
-0.024510767509139712
0.0451896554220126
-0.06817196910265977
-0.15328245953019792
0.022920896221189722
-0.019248399774623542
0.028994952261223984
0.0012965948709452522
-0.060966702107289765
-0.02411368560348805
0.04172712931115303
0.056527186037982353
-0.03360080697458103
-0.023797201729387416
0.010111690276073254
0.0051709229192471885
0.018015627400700406
0.009375576072521848
-0.025400760972764627
-0.01812575653133521
-0.029861612945598744
0.012707807257829403
-0.05864752572801581
0.005554333823830139
0.013664149824134048
-0.010643640923615342
0.03811089864426124
-0.008410013315620428
1.0027111408077259e-06
0.029353466938020063
0.003605770973772283
-0.0216526514644249
-0.013126219792347347
-0.018285620738995374
0.0002719053708862338
0.04504744395000298
0.001935954107600075
0.0225801936716983
0.04787885588805643
-0.00018813214796507133
-0.0059453753550153835
0.02449508295493268
0.0005467841314536089
-0.032786327769602754
0.004486148442652684
-0.004197299453281709
0.007465144289501251
0.026863067818130373
0.04952621678183254
0.030015496578974066
-0.015351843127345645
-0.007050388541156862
-0.033306427626388115
-0.029876703935145636
-0.013952360047961632
0.00541599906199258
-0.03018362885181856
-0.006766788638470155
0.015390071111666528
-0.01941334949474032
0.04307273640520636
0.04950223589358674
0.013378525749634143
0.020185873669004192
0.007134015173532894
0.008306796712354758
0.00310562060796815
-0.02128889754750475
0.009139181577722783
0.003455667004360839
0.00030416897226444073
-0.008068767964539664
-0.0005857435785218781
-0.009740888628346767
0.04750841912856922
-0.0385314211074416
-0.14241327349848962
0.032388502761184906
0.027270418991527302
0.046820774186302073
-0.007962507674283342
0.003267452552400267
0.0049129787522283475
0.027705902082143553
0.04463097847721565
0.015029411562803886
0.019713519438402497
-0.059770474543603146
0.015922275520803067
0.08715393432286334
-0.1021348623820557
-0.038955849363128535
0.021184487794459955
-0.12521605437624808
-0.0160827358034972
-0.013332002785272133
-0.01816781855591698
-0.013692845127666123
-6.602373608998438e-05
0.016257249207817962
0.002464466218988162
0.02653431903924033
0.028574033751368702
-0.027534836245757092
-0.034060090867073546
0.01997125625825669
0.023693555559797397
0.014491960862786224
-0.005296782388361273
0.003960246573308007
-0.007440683011150638
-0.023477902659648636
0.03117144796390904
0.016709085402260345
-0.044022185714637035
0.012352545151971733
0.009642541292506855
0.02234421447165814
-0.013750501573017727
0.007634346117012396
0.05883201072737299
0.03749030653989502
0.007896608204130564
0.032381475038410025
0.008606213407376453
-0.01102114146792461
0.017968668941791402
-0.14558285840579474
0.003295781224111297
0.00406188769188954
0.010806136542309922
-0.01509738361499704
-0.00801786496685522
0.036200432913145064
-0.003601962168157634
-0.015468824648601954
-0.004966105165483811
-0.008965876986185912
-0.052983824860351074
0.00253036782899899
-0.02644990722393553
-1.477545502766985e-05
-0.05214872153394612
0.019966460249063955
0.11716163105096608
-0.0006895574464941707
-0.022988777273398563
-0.017756943982256794
0.043668058879070194
-0.0018934076515184505
-0.02289290889610813
-0.023845005014165005
-0.01678113491205991
0.030449776964680767
0.05516389961334367
-0.008877544509068077
-0.016124834875691114
-0.03790827972310482
-0.04175454356967203
0.002298240962965695
-0.019013360259171233
0.038555081163064664
0.043306001303634996
-0.10298213678172204
-0.0036533600485316874
-0.03187195905105027
-0.010189905920844955
-0.016259096326089212
0.03879543991213135
0.1485294367493412
-0.027395349585302983
-0.0716553945486694
-0.02188079385754491
0.014288915092169903
0.08444431366477284
-0.021050388802663782
0.11786160451397674
0.05083600942756166
-0.0579518011494289
-0.0165318118663136
0.0036760089781411875
-0.022652696330871802
-0.010891650758547994
-0.0272172284188867
0.08504714922472917
0.05685355903160256
-0.07133502607025496
0.015181605921361599
-0.015204130264304254
-0.03763144730513043
0.021582214038641214
0.007992656631928855
-0.026049063787106627
-0.017775360587416085
0.0003424101136609049
0.01752597124203689
0.0014270942210559412
-0.010465777884598274
0.016005556340649665
