0
0.026793235455130644
0.023649882706108454
-0.08070724469241532
-0.013891373753965956
-0.013699003716054299
-0.03233745436541392
-0.012524673337123766
0.009759036116378197
0.010701117871542298
-0.031225178072793562
0.009125074062828474
0.010299633556189215
-0.009065106260582578
0.0064580523534716995
0.034798806187574985
-0.02979746233132282
0.0017949860343043449
0.010087377980568695
-0.05587219356321554
0.024059950685708847
0.008313086524829176
-0.02783511542480124
-0.003361948814483857
0.0216524245998863
-0.028982494306927353
0.05301678608529325
0.013243365441856439
-0.003979161072747362
0.014513252841872751
-0.0235045221376791
-0.008434865431833609
0.005534584113089839
0.04758200773043616
0.002770430190482216
-0.03545272671460818
0.006983634374020303
0.034194257157931944
0.0060259022476164695
-0.015237090983485206
0.026534099689737658
-0.02345841575793991
-0.001573799463641434
0.012724968338900194
-0.0066268134735865
-0.0254320394763402
0.02489221485884201
0.01613540923696005
0.004679782054889327
-0.005290630327916489
0.008137110213549185
0.009456150961669388
0.03282013799414657
-0.02588367901145436
0.016076329812695002
0.014408420552678375
0.030075256734046176
0.0010555427150353489
-0.021241451870747375
-0.05191818336718586
0.014798114663574507
-0.010664694202033425
0.11106846004278513
0.09276804946488548
-0.03751232256558683
-0.02998580464340946
-0.02702513988498719
0.001167528717872491
-0.0012190252179036434
-0.0035632018528940373
0.037454135999811816
-0.044513732824746195
-0.017318861254278405
-0.12066242764228927
-0.19315854735023558
0.02520065301113239
-0.003259222829774345
0.021255854319869885
-0.0008241023570913585
0.016207154018303454
-0.02080251690387233
-0.1053984353383498
0.004011979421221978
-0.009805551396556388
0.035202508703042944
0.0031375884798721543
-0.00033697421908701847
-0.014905233743175678
0.010744329632615396
0.031480731864621
0.03244849928695106
0.10922562629477174
-0.005591162828845975
0.025442535568804693
-0.015407499548317716
-0.01670854967520128
0.028819344730302312
0.027179382854139157
0.03774655548405485
-0.03253792034160909
-0.07331010538126459
0.006586639392775794
0.056648191802450155
0.026515398999853293
-0.0820368574285553
-0.052791400110429154
0.017892832639650184
0.04119191092391356
0.09386321196078014
-0.027688892329529435
0.01978232649659264
-0.046341757262131245
-0.030566614997274682
-0.012597030377158806
-0.047465537572046995
-0.052929471072085454
0.041748161955870285
-0.012747588033366978
-0.0018318641212489734
0.1407894024959453
0.061505982801425295
-0.003913198064813031
-0.03615318543864556
-2.4223296357097773e-06
-0.015647271294153123
-0.0036417760043164727
-0.018689649196871265
0.07496999792245373
0.07267872169239663
0.009653588232218789
-0.015761718832806883
0.009651464979347064
0.0015982838393245645
0.07114796657043497
-0.0022985895318976884
-0.03772456239273544
-0.006308495615981938
-0.05882001757403257
-0.17348275105676617
-0.005668004616685756
-0.05210752512759161
-0.02969783183129462
-0.0016587815342185492
0.016429015203930145
-0.024583126078888153
0.01552287930872156
0.022518492277705377
-0.004413825181390507
0.04179890250618084
0.06369026867459032
-0.012354133176690823
0.019883554886006946
-0.01532625624307164
0.12167702748945901
0.060117141295404214
-0.03838758505964523
0.03785534088015462
-0.004334737074824332
-0.009370115526785032
-0.029203083828335915
-0.03031601703744473
0.0019361899322462154
-0.0015143796962750168
-0.005860681445079428
-0.07999714903916301
-0.03488304669553754
0.12185917947243419
-0.0689401274222478
0.022276879544898414
-0.020489633808892124
0.011444805031052992
-0.04447019896446546
-0.018916428607408838
-0.03815568363574755
0.015293583057110661
-0.05223148598023137
-0.027784555804652562
0.03799992456945678
0.040708694115847745
0.02655241250806409
-0.026261923680507
-0.011631785359328196
0.036047734164467556
0.03306414944020578
0.03408338941247526
0.016615538579748478
-0.0013337527704532146
0.026754242111415784
0.0005814727892240031
0.008227419020073571
0.008667189598321667
0.002269840877700105
-0.032067828917435176
0.000218991994030872
-0.06311072805954578
-0.03555770026791537
-0.03649601242563238
0.007413770666870218
0.0228497447245035
0.030593964729107786
-0.021325113650628134
-0.015276633359313127
-0.010900561429971376
-0.004221330704501766
0.017459477678771953
-0.018719371025773365
-0.004951958262391158
0.024452245828508523
0.00916798928928736
-0.02485252287313792
0.030806339004337473
-0.0042677227995257545
-0.017388088108612587
-0.015953599987625605
-0.024055739349022366
0.047475548064618775
-0.031266883761029866
0.023738717361426125
0.07387653657546267
0.018419944434842354
0.0008576727755056568
0.0118086080464043
0.0038170634053320213
-0.014431477625981588
-0.011595490503738185
0.008424833719740985
-0.028720367070567285
-0.013184806218644436
0.0142618228485087
-0.009975380650608604
0.020315882278564845
0.013590669001552326
0.016852748710473993
0.009157296035639757
0.0304839087306376
0.06791834884845743
0.06804834089748493
0.005634673758460246
0.0002295335628970908
-0.015273102000359196
-0.08281694433956761
-0.002605920586500885
-0.014866435892777426
-0.012204675231502544
-0.006701377481341576
0.0022066350755027553
-0.01802953689152126
-0.018182626628706882
-0.03337854368996261
-0.07825583733435261
-0.07212734015540517
-0.17499670271147513
-0.05657785265671524
0.02840579775680531
0.013147633098591533
-0.0015319597995160407
-0.00825987286962287
0.0006612920301639261
0.031182964678844127
-0.007238023461409809
-0.009874779371402527
-0.01934601213375139
0.020757584194663566
-0.03757524599171156
0.03970656749261781
0.17396216890483532
0.05588337682526943
0.04855085146463386
-0.025089766551790342
0.0027672721159010946
-0.04522287207813973
-0.01297873900424859
-0.03551999056544415
0.029186527380004587
0.10908721404191209
0.07419295103209482
0.0007364409730599296
-0.05689003833112532
-0.0151711162641531
0.03539867519533698
0.09045508202527881
0.027062295497300503
0.04995656647929316
0.019303144265518473
-0.020120099531533105
-0.029615746868910157
0.0003787253161813274
-0.020781576216048998
-0.013671285872936067
0.023699979853497564
0.012491704131806341
-0.030274034403396106
0.012057903592113079
-0.09147509801437631
-0.042193684041645266
-0.002593804120922543
0.043620763577636744
0.021556328011219848
-0.011491616528268868
0.007797600718822205
-0.023385864013868708
-0.01617333541336424
-0.04266077757300926
-0.031934435449280735
0.009097549817720638
0.012742377335886677
0.008693737064854217
0.017254113755841235
0.047141101382846856
-0.0065824751526933735
0.007040425690447285
0.003503199608246493
0.0019311883045915565
-0.05753447009243716
-0.022640869713421868
-0.028447623127476736
0.05777793274097147
0.03263384195951285
0.0454037502445298
0.003453682823195797
0.0039021923080596434
-0.027067260883268468
-0.037105789676835484
-0.004272325677032175
-0.013001242896710547
0.0021391761160333895
-0.02480640434416716
-0.010592124031134506
-0.018247529584640914
-0.05006881010644787
-0.02529314435029543
-0.01351446218530056
0.026324019516682798
-0.024851102081140296
0.0013719696412292036
-0.028488641635729128
0.0463086580060449
0.04094194247866252
-0.0062300197517709925
0.03463229598616006
0.04906262156581499
-0.007719758673603962
-0.0309942345546282
-0.009698215389535213
0.019224363844656242
0.05671225320651334
-0.0018579730467660632
-0.014706678493493146
0.02550834385442636
0.037946513093462635
0.012308789485241157
0.0037739619017476142
0.02770188132298033
-0.04805509303546752
-0.09862587970551744
0.04695034377424562
-0.047500480326512176
-0.06996530672371705
0.004311222309932305
-0.0028849581312704064
-0.008025298691340405
-0.0031486031875314485
0.019852345542853075
0.009895435461941006
-0.00567203678309349
0.004761138830580088
0.0022005874761510287
0.013613140801041097
-0.02876979626086547
0.043288674981256735
0.06958757456155204
-0.005628320879868105
0.024709909941712432
-0.0077710494949264014
-0.00879677584500853
0.02002009474122145
0.023062124990543116
-0.15220374485565874
-0.051507795424696086
0.0420276967167089
-0.007342508078748233
-0.031742513741263786
-0.023570124812520132
0.0019856245455621294
0.005194938995091441
-0.013142809515035252
0.03506077273653309
0.043752874887033215
-0.00541076055212511
0.013460065599156622
0.024309602309499988
0.010313216421611851
0.0021112840785912235
-0.001236156491258282
-0.0310232402360764
0.011313475870751452
0.04423470411502312
0.06939283336315699
0.01390398513181637
-0.017222050890847627
-0.008902569538162918
-0.03181123370737481
0.004350073525509316
0.0097861852506971
-0.02686070831425162
-0.014961545896318432
-0.010404607632354245
-0.019025203585785987
-0.009260215359073825
-0.011442050883315402
0.03812806862989942
-0.03511215573222491
0.023414026408826137
0.03729004303201659
-0.021520488019277157
-0.011059864546903784
-0.07656023336349342
0.027452477674949557
0.011930879744265132
0.055420533131731564
-0.0027042332444089977
-0.04973479542043895
-0.03152050072297998
0.03508249549740694
0.004901333483445007
0.002417220093337654
0.12304051645290137
-0.007107117019278678
-0.02849706543727164
-0.021063101422551408
0.021717336578858354
0.02373743519552623
-0.007388470158796571
0.05665486955995094
-0.0015496305605832781
-0.021142025516130928
-0.017632314883658417
0.0422851202787452
0.07157857883458962
-0.11352231334946322
-0.1103262702599879
0.08382360909246889
-0.014295380510962645
0.0076821185138498515
-0.08122144142710458
0.02039030169772029
-0.00257455941296174
0.0024744950423702256
0.025514507333668456
0.0547745837525662
-0.008345165862324883
-0.03600198079370849
-0.07644275311064958
-0.02269650727377941
0.010765261917642896
0.0476789780374803
0.014726284130154456
0.03951224057640535
0.05696505589639925
0.018335463821595874
-0.10795946831231257
-0.03154897577212989
-0.01170515103996171
0.008436677064136153
-0.018735108138050734
0.016578064612278592
-0.015758546818678398
-0.014300952838230033
0.017233760775442107
0.007046643955807815
-0.0005584147197988357
-0.018456805843220753
0.011095650154033413
0.04265597361706916
-0.01893301112552669
-0.05067040047088081
-0.038370605783249995
0.006795523524306587
0.02449438329873298
0.019067773210215824
-0.04358480975589503
0.0038119144168996897
0.009690000265705347
-0.02832026692654265
-0.00706421788331988
0.02760862409548603
0.029639025577899335
0.0038385621358467074
-0.012745365649003013
0.03916486475873713
0.03554178168392341
0.0039964104664258334
0.016750323061383198
0.030541346045496926
0.02957750042052258
0.012652045787408445
0.007723125843918359
0.005325314888754697
0.03176560847482403
-0.04082116857851549
-0.028454080616634223
0.0009542204086852516
-0.022410232105891673
0.00025528224924626454
-0.004745942561603191
-0.005785599041668558
0.008436070634775462
0.0033637981966972786
-0.008277874862828391
-0.005026785994341757
-0.0024187510168773934
-0.02789531162383505
0.008573333302878018
0.04628647644116908
0.00446097157897907
-0.0306790690361024
-0.04443039826431107
0.01630686877041079
0.0341201533422676
-0.02782200264256175
-0.03560894912831825
0.06873584748070441
-0.028457370207549033
-0.038367171586990254
-0.021417521263526477
0.03890116191266693
-0.02850474829737855
-0.10227267755981855
-0.02026050843036846
-0.012773484976308416
-0.06555269955593682
-0.015791490699676176
-0.0033693130149260553
0.04331890550022642
0.033437347656356003
0.1252719847867535
0.019085301438370887
-0.01721352621227166
0.02054218745800116
0.09540800339409236
0.025269652080651354
-0.04653167997561159
0.030761397839390088
-0.022891584665406056
-0.012831394093436274
0.007408609154359411
-0.052853254652565886
-0.015623515123706395
0.030021858935083086
-0.06650603239077475
0.024423483138412104
-0.00811840456865555
0.005902053979376465
0.05702009297931192
-0.006185264126445217
-0.02241528200468404
-0.006627158417999157
0.004949973454279238
-0.013445149254944415
0.0094507288165834
0.04298737498240626
0.01385054244706252
-0.025928268599924854
0.056583051867255756
0.0572193616605576
-0.01077953434877591
0.00670802790779577
0.05771325925999589
-0.04030035359063256
-0.06248035670375682
-0.007760430080004261
-0.008186581774622056
0.0306195826403486
-0.055705861328897134
-0.06397794861386588
0.01156786975430862
-0.05909782795576707
-0.03332051665270666
-0.022442326088033576
0.017392755294574343
0.025137835598036264
-0.015305265921264079
-0.07150322986514944
0.057406095093201465
0.10861986809005204
0.03517107251157752
0.019157458928320267
0.009152440680351608
0.016260407126427727
-0.022650866387628144
-0.02640243490823843
0.014523818877113766
0.06890658365902075
0.04104198412299666
-0.10986636809057297
-0.12174019180567276
0.02493540177520942
-0.010808327669414948
0.12188019178212751
0.03315440982928857
-0.07174339744191928
-0.027062852838271385
-0.00504747474396775
0.03594205098872386
0.14535936529852914
0.024499283324547275
-0.03189012865774684
0.005223517284790207
0.05179266874509309
-0.015726833839703944
-0.05572928894615268
0.03182207258885059
-0.02606563696385248
-0.16900384053761675
0.004608314822921986
-0.026271224956730548
0.022329254740844663
-0.03098581268416534
-0.03178797139726186
-0.002040901369224594
-0.027759089924260728
-0.010602809811574633
-0.010576653235364029
-0.01840635856696301
0.028443567062340448
-0.029328221834406632
-0.0014241176913259571
0.06737649612281865
-0.02935487492464094
0.008218830802698683
-0.0019104262204276648
-0.01552672841440175
-0.011903426413347485
0.12531064731316952
0.03141125658970121
-0.02257414019813976
0.00016866870949880673
0.0077809088086972285
-0.05064350404733015
0.007203281811584578
0.0204307164325066
-0.038059671010099
-0.025915587011873725
-0.029525171977698206
0.020928605535686255
0.008910183594720672
0.055521566709324545
-0.0527415660253976
0.06955924425977032
0.08865672659645663
-0.0165780603486673
-0.005229780537262751
0.040848491139962764
-0.0014256009794688708
0.02041959760522804
-0.14807881032373585
-0.07776512152965458
0.10806071578981927
-0.03250353344967782
0.008856180185826075
0.0008704618998385152
0.026862233775009476
-0.04540955431421485
-0.04183155621561556
-0.030495601329682768
0.03144775773897163
-0.00019876332642572618
0.02681971690415936
0.00501424464614413
0.031547962326657325
0.14145573836255723
0.037955865094421934
-0.048925981638071346
-0.06464730979798249
0.028661138529517332
-0.001432508175403459
0.018361615133116713
-0.06541519018147161
-0.07482234881026358
-0.003928686610700803
-0.0014000767697353801
0.0062137960599302836
-0.004173113024952326
-0.013057235822363008
0.017482442997473407
0.0028829671369474583
0.006923186626807117
0.05284795762250554
0.02404993562345095
-0.0037113646015433676
-0.01443139619112705
0.004912021269760946
0.023727390712778677
0.09343237762402327
-0.017483477202958324
-4.885299135714827e-05
-0.025717839626464435
0.07785988424139442
-0.05911140846233096
-0.04843014901346103
-0.030907761137803337
0.03914868271662507
-0.14219593173678113
-0.13725255385754304
0.14867477137038057
0.06283004101228172
-0.14551587277997538
-0.0770566906298022
0.012576085242268442
-0.0020296866239848175
0.03365169425208799
0.03280432630247229
0.034671622505388355
0.02807706354336511
0.0016102053466600522
0.0529531840768071
0.10440135278417609
0.028192287128421176
0.06479559196912398
0.014595569907721333
-0.010413898275915948
-0.03455608861618697
0.0186914149045606
-0.04894224764326365
0.033129152029763326
-0.008576083066033042
-0.01991417312827272
0.03852484195701176
-0.05580636605842218
-0.16002864518694598
0.007168058066810493
-0.06766789937735106
-0.012688161262593343
0.010767860372171416
0.041879435889867936
0.05117327373336603
0.04340507693953925
-0.005220839478277608
-0.00524951982546768
-0.06531775671943062
0.024693930707255618
0.034006051255926734
-0.0017787519842195234
-0.05857798778779561
0.006178826537403265
0.06202472236732785
-0.037664505998649046
-0.011866896325460114
0.0022523705548861883
-0.013129152730212465
0.012707367702455985
0.019809841518183154
-0.008938630454325538
0.012598608815057566
0.005151760295820159
-0.01933918393738208
-0.00646178917244001
-0.033869859763400643
0.0015872819032989175
-0.02999708053576827
0.05029058805831449
0.05418307381349259
0.0598153314122445
0.03950801597691401
0.013876541829829472
0.017217011484764965
0.045909688919482855
-0.12023426256684472
-0.05621936759994168
0.010963297213555373
0.0024310876055441085
0.021964965108335486
0.016007195278466304
-0.09554675824933374
-0.06834561689704392
0.002059520345780253
-0.011701968344388136
0.00045597625635144823
0.015942825143755827
0.0015138231882891615
0.006078256885110876
0.009056671931276152
-0.02909874642415675
-0.001124986001434077
0.033723493823528475
-0.012313381090165006
0.021465288646755287
0.01883004165278009
-0.0076626703424757065
-0.0045562326494422494
-0.05426276608899433
0.028738009821819694
0.07545949387618842
-0.012500020007814083
0.03138674813615986
0.008998341953049153
-0.06487790423146286
-0.05254451712316774
0.007641427641590429
0.0344726258623368
0.007234027005860709
0.017497790952671132
-0.004056131402745503
-0.0688316509143988
0.045895202134937106
-0.009889413552990868
0.08100310018934156
0.14780637149196715
-0.01607874991036581
-0.0012084467035020936
-0.02605629101744899
0.027201972405394112
-0.010334611674747675
0.025259273315668188
0.03857991186312865
-0.020723682622523665
-0.029576987590720406
-0.0384305038802408
-0.024784010168604622
0.04091853687258536
0.040915783040415876
0.04180774401516992
-0.0008549381220147549
-0.03169657926989802
-0.008464893640397424
0.01680242677400578
0.006286185093733038
0.011787413204449659
-0.024333610921088045
-0.13285647606278148
-0.01051589110184859
-0.10909609229468131
-0.0964180313549801
-0.07174883570174585
-0.04245118122612633
0.0019546682055178615
-0.00861370454345068
0.0766704701724011
0.07785387397584942
-0.014163838957644016
0.04176056315245385
-0.012267896689362684
0.017501748283537063
-0.04821760992329069
-0.015818667323056552
-0.045122281543412905
0.009294064066049088
0.04535065193847929
0.013734374395831778
-0.019789147347199398
0.10228116728543449
0.1335141354158951
-0.011573757191050601
0.02021927290426828
-0.02033111674110329
-0.02436635207208899
-0.011759835865242794
0.01376660146524607
-0.015087101302391262
-0.025509874804121955
0.0023919584427841093
0.014427478546437538
-0.013520270292013534
0.04288714950183512
-0.0056224530668302275
-0.005745555314969353
0.03225810591076496
0.005779468333225062
-0.02609787426724289
-0.04573176096368625
0.08312429965213779
0.010766639330092963
0.004831383481948488
0.006167647487792245
-0.03178017376951705
-0.013380122167799786
0.007572055472902531
-0.002676179056267596
-0.007229421761194348
-0.03468713038148457
0.042317830205125855
-0.04563955795740544
-0.07487500187705949
0.04109881974672107
-0.02654362015647507
-0.0030794065628553676
0.010427142875216431
0.002326516748935072
0.021296243396434548
-0.02126323061925808
-0.004126376534789981
-0.008550149433953177
-0.0005046074749864614
-0.028741598324838795
-0.002866906123458669
-0.0025743686068908688
0.13117775020532393
0.06657533859597474
-0.023372878236412445
-0.004900955025012326
-0.004288578805679364
-0.030017315889445915
0.00673154933680289
-0.0806886676153028
-0.010495955005557946
0.06789263516053431
-0.018742671108512965
-0.027325316592955205
-0.029265299486543547
0.030838724733487196
-0.016758900574630888
-0.016484231618191337
-0.024513276734309995
0.010485453710237144
-0.03182137139875155
0.03655296401861544
-0.008369117939939504
-0.021568901101834376
0.011159833946503007
-0.008472239108164251
0.04997999984161611
-0.01657004439570807
-0.017907900322143448
0.001434173181957384
0.0373403000871812
0.012047580187287037
0.007612475100150391
0.005508560156706919
-0.02723981078489601
0.021939510962796605
0.004705602043199536
-0.014259354679320008
0.019501304990870025
-0.05454646706423874
-0.03732637776053796
-0.02553157279502411
0.11578809439189548
0.09394129498100294
-0.05435066550065645
0.024536058205636438
-0.021580728543355875
-0.02103610683522222
0.02651481185114172
0.0009263892096935629
-0.002313763876338
0.06047157596459247
-0.002980708713947236
0.0038425688550012362
-0.00862264879518408
-0.031044435641941665
-0.03911488253934038
-0.037229997208965644
-0.01744933419013774
-0.10307505006313594
-0.0199531977580458
-0.026331069810374877
0.10030041826246361
0.12031185665037994
-0.042199345626446
-0.04121525337334857
-0.006598732009330524
-0.0009917989465998457
0.017448931500054384
0.010823097475559207
0.002049877971459373
-0.00686269125896068
0.03312146309269674
0.04663019776672683
-0.032160677715021437
0.013424122653653133
0.030776949927957303
0.03787567311426315
0.009509719441935018
-0.017808657727588485
-0.008570664204716276
0.015950114981516356
-0.022585235657024614
-0.005455416610382696
-0.01671660458357433
0.0020514647567517062
-0.08755827683099175
0.01139039530471042
-0.002043121969704901
-0.00831559257131559
0.013987386553456719
0.06375946904658968
0.03297447208260426
-0.01940736413330561
-0.02833266958620732
0.01882411064626758
0.04509159024144996
0.06743470364621061
0.02388111969374922
-0.1722553850755284
-0.0437360109950083
0.035410046465014076
-0.029664583075469715
-0.01856402495822617
0.009329299300768016
0.013958424179739326
-0.011891660610781656
0.017122990229043077
-0.007105866326683114
-0.03835370973767952
-0.058651363554427606
-0.11856045209763746
0.010141793301377744
0.04168375892462575
-0.025544869256968677
-0.009825789001211472
0.013891012005102057
0.14887308748065228
0.02102732465637216
-0.002156812607916661
-0.0005904115326486496
0.030937140712054854
-0.0036360971464012913
0.029999073625683687
0.01365172835338002
-0.07326535895880378
0.01692542450548961
0.09076049317510401
-0.001570499513985951
-0.03710301028401788
0.01816163562828522
-0.017021588551067474
-0.02813161854948744
-0.06817113412682445
-0.027859902185285054
-0.03982541791214233
-0.03154343613232254
0.032623340803080256
-0.030239873136927057
-0.021727399220676086
-0.024411658755101675
0.14926668512687993
-0.006692390996246801
0.024426490862387212
0.05459040824405458
-0.04519149335797489
-0.03522846978178813
-0.01071285237377864
-0.011046518848416778
0.04357074216370618
-0.000694814112925947
-0.013831920895452212
0.0747402142784963
0.08464904451941273
-0.08793062285227905
-0.03360163356391458
-0.06254770334449596
0.005030464763058408
-0.02646316191445855
0.07399578110229825
0.04404089579765702
0.011332254763982854
0.015985064710649196
0.018167302504149337
0.027404783536314224
-0.018742844500521383
0.0070857551126382295
0.0348464389016066
0.0007825767270246033
0.03422449258242957
-0.0681200000338333
-0.0614242290343178
0.019369741600565076
0.018625475855052954
-0.020183828845020874
-0.016502182440282873
-0.04392549993361629
-0.009901754065638339
-0.15484454905909667
0.02828341398166206
0.1054713416220756
-0.004213469605930642
0.09194311440709141
-0.04029756971651938
-0.02132202819484719
-0.005325468228371875
0.013850076334861008
0.03896750749739581
0.04215392196168209
0.013127457558054053
0.04919600949143034
-0.02394370518349512
-0.03741652366532758
-0.007105182678868225
-0.0193276018168828
0.012315785087259692
-0.024527160318572105
-0.004973803735074159
-0.0030265457256733923
-0.03806126922202604
-0.0012645919424195008
0.040157980854116496
0.13763158987558272
-0.029672005831328938
-0.041445915498431865
-0.025889018590488345
-0.02679203529679475
-0.007092309747890701
0.03109404865182183
-0.022971896364133437
0.012165047287108646
0.037046717237931376
0.009857975645993156
0.01860649455075644
0.0287518672371719
0.05208982892312829
-0.005876272158002474
-0.09593925168906443
-0.03690812694275135
0.013525406961193035
-0.026646618939707382
-0.025460160787311132
0.03896920597828674
-0.08776119093570015
-0.03909638274211196
0.005469564894272726
0.012576931733368296
-0.09823277554126045
-0.09096480306391576
0.04010769375339466
0.06722423431739692
0.035908942467400416
-0.07620873348482832
-0.007303995019091081
-0.023507337135738906
-0.03268066720262111
-0.014711352689421808
0.04141687673579593
0.022144433136342984
0.01896773794406393
-0.01697815345872606
0.07352210689804682
0.06996808231748797
0.032113980444024644
0.012928748754821934
-0.004586787436396242
0.0018624567822185434
0.022009581101591878
-0.002732052372401777
0.019485070824085095
0.004015615521460266
-0.019887382792155347
-0.01660082239956359
-0.02736191115197303
-0.00909765701149833
0.09966345578545974
0.048760831871689586
-0.024197651170411262
0.020992800131897343
-0.008103593513602587
0.025437932886638388
0.014069225503880137
-0.03186106205835981
-0.048090358132921826
0.015095626465281675
-0.014411601081077242
-0.009685890828455659
0.005350584974363132
-0.012064831239705214
-0.03242728933949869
-0.0064437710773064885
-0.03445537875679586
-0.005252598126745596
-0.041960233687689995
0.014656216328146754
0.026297613077336315
-0.001983751159588711
-0.056221591588557614
-0.0009419929374794732
0.026966820978513155
0.00605448570965893
0.03715385624147196
-0.002584323685609813
0.013516803185296706
-0.012986364222444311
-0.04339646322724452
0.02587969711601412
-0.03362928340812971
-0.0031220986685405634
-0.0039964251345907
-0.028441339471496817
0.17734266564071866
-0.013987454064969854
-0.04267138803841976
0.021371779645796077
0.012148212700223378
-0.035887275121763304
-0.034492096808797515
0.02094173770317289
-0.04855366495579403
-0.02712310293837279
-0.0261167614300128
0.013864606289960694
0.00020552793654356145
0.018068517451551542
-0.002300193898050957
0.02919311205417501
0.025263637257316385
-0.02963855767816897
0.011670018049363762
-0.040367058898355915
-0.020897396515924038
0.0041179936136069165
0.003255548916680004
0.020383086936203103
-0.00845786831217724
0.02777789572356851
-0.019472219707462685
-0.0438689753999923
0.005982516064939613
0.006975135348908458
0.08204237065091961
0.0011898431487692845
0.015400145102327784
0.003025757428528511
0.015829618228627874
0.03434443157416559
0.031916788034258174
0.014134520962747206
0.005431810180788178
-0.020602669163267223
0.11798840808356348
0.07332295652288878
-0.01343252453495957
-0.017966184326415544
-0.009615391905816456
-0.03203173341552968
-0.020933451337447666
0.0012718646899256066
-0.013853974350331724
0.03852469405768466
0.0026624073305969325
0.04465864607954494
0.02790638652019096
-0.05682726765322611
-0.15422247705568987
-0.10806507988052969
0.029457804734516767
-0.004904098584259802
-0.011663790232175664
-0.02428944004777674
-0.016534672006298656
-0.0073858210280155975
-0.03490016253543644
0.01247559752015365
-0.015445099646105772
0.011709738245268319
0.04985856748632597
0.004530560759374132
0.04119692746002735
0.0031525370875794723
0.008513253239985565
-0.13388405384326257
-0.05038779126509952
-0.02845278601316354
0.007390313807319723
0.028787473196022376
0.06982457071448897
0.00974538684461749
0.0754962586463053
0.05448206719826502
-0.01195128545491334
0.0077981562012471774
-0.00476460770183555
-0.003992483478417198
-0.01182522261722163
-0.010627811360693074
0.03335779993602248
-0.004706881596818375
-0.02264451064408118
-0.019268584031485396
0.0034106780449325432
-0.01683561991349511
0.0067198421868741795
0.027280572582947197
0.0006398538217366542
-0.027395909017883385
0.004432157222101045
0.024156819092366447
-0.01979235174207456
-0.020727941481469073
0.01588035891816168
0.03582817215521911
-0.002894057663234361
0.02358036327091624
-0.0041830478891704366
-0.06436737415317903
-0.09101203388990727
-0.01345214015783265
0.01469046135887249
-0.01564387117130384
-0.01757419478404356
-0.03477641291123371
0.051574231747502086
0.1932862311323544
0.013951348941520171
-0.041967042305560906
0.025506180796307138
-0.0362120509635731
-0.01227079415917223
0.049351051899367344
0.017872448163735677
0.01051506219763492
-0.004218185377838931
0.01502448307711327
-0.02805190060524274
0.01354230132893468
0.03798664409311838
-0.006714406354395355
-0.06430123640772299
-0.012958639958558553
-0.0615614815918183
-0.021901216731909035
0.038676868875433014
-0.03489347405728718
-0.018411870746054652
-0.012973705967748885
-0.042803276375500854
-0.005844181348907933
0.021069477143500055
0.02078749767757857
0.03199475362542025
-0.015082259065856887
-0.02342907647296243
0.05163586288871531
0.030600750831115103
0.008893998731880832
-0.05536304598770832
0.0154465857565897
-0.011159794245718398
-0.002802281400976019
-0.01204794057324307
0.06521800008690573
-0.02059260329644573
-0.009270535330220726
0.052763457095423114
-0.0167706543471401
0.002292371885493207
-0.010304724673912462
0.02854200652105781
-0.010141217283012198
-0.03630752771229232
-0.010575528021377895
0.03485211513617818
0.022990687526291756
0.007332116035700031
0.014913324808651813
-0.007437706192262691
-0.02487922848387403
-0.05269168369480307
0.06366927018172965
0.06244385490815038
-0.05971278889215758
0.002465004487248339
-0.03251857174122608
-0.03254138814402492
0.007285495817698618
0.027818554048988486
0.04750094336356503
-0.008832581896905159
-0.08078720905686994
0.02352202209261132
-0.05000549001489025
-0.027465391662561105
-0.02795421071715675
-0.02480288083494625
-0.011601010539318708
0.027031859072834907
0.017085315614631454
-0.018546046005032346
-0.0020741776095196326
0.0410888340876763
0.010639336517216347
0.01464179351341822
0.11380839016229977
-0.0001141558598952421
-0.01424307369916409
0.0375220827338085
0.019106779425989862
-0.04029656265189389
-0.025735918263514127
0.015368772158957319
0.011061585567423086
0.01312979719444804
0.0027747335556974205
0.02734080402530853
0.015367983708132863
0.00929735726061897
0.05224911528549442
-0.06532202008926921
-0.004493865098271181
0.043960130331695345
0.03320807182170817
-0.14215205509846374
0.004889218890262202
0.01777826862741804
0.03842434931168247
0.0001723560193413078
0.019120630200856973
-0.11829533161308961
-0.06177737959287995
-0.03594960839264564
-0.1383177217094565
0.03603919936696038
0.06143447975744429
0.13181237785038585
0.0089502337821736
-0.016891431183819083
0.09878646565233024
0.13530137344276308
-0.04298522116639397
-0.10659125925475563
-0.038176511400066934
0.0184474747198843
0.008896532732300714
0.0020235648193156377
-0.06092882891415289
-0.003567382667193438
0.01031654922536775
0.025833788703610645
-0.007760497211371822
0.026480757790636737
-0.057401110035530716
0.02501687118431594
0.017185949082406816
-0.012213525864124065
-0.04598294349308486
-0.06653463254100998
0.016981647101901514
-0.009618543775948868
0.0004931424111712234
0.06484233876291443
-0.061476673944803675
-0.03605422155732258
0.08599983808664578
0.023614183538022512
-0.023815260384787453
-0.004377046954772613
-0.019683370584779425
0.0283507612840843
-0.026616217980004128
0.026475764851076
-0.06960223750621096
-0.08996614352993175
0.010389339193683128
0.0022506098728164855
0.033416994128991545
-0.004135054501358953
-0.015549485822646657
0.009559911023366268
0.07201049864600245
0.02900550297988146
0.005895591948966543
0.020987942287692483
-0.04333704125224417
0.014003758253510135
-0.007443972406580755
0.09575747142545045
0.07812307991844634
0.016889769878437745
0.011981798128900706
-0.010121976554713894
-0.0017615808679786141
0.047298240969107265
-0.03763120323804703
-0.017305685874303197
0.006105821935539092
-0.04118155336536423
-0.06457783928606854
0.022044682094224787
-0.06602738552969435
-0.1203060744620185
-0.011593259467923554
0.017544469863205004
0.018784985218895264
-0.013112547478702974
-0.00635191680551468
-0.0016865125693436205
0.00226171765953616
-0.002842994751160489
-0.005214473238641556
-0.011601917245547332
-0.010945773824012165
-0.008694350368642917
0.0041099636100630135
-0.012287996233964968
0.05959214564024872
0.0870773492431702
0.03805247333720971
-0.006299885104290001
0.004318839701896054
0.0159899136553594
0.0001639039780440054
0.00748161240907538
-0.0998893245381309
-0.01720179098788507
0.015223375648688564
