0
0.03839378980548475
0.02903998043194792
-0.009488042968439052
-0.023061552333272537
-0.036418704037757224
0.00044687419295885044
-0.047715666916920016
0.013213612236650974
0.00937627145007987
0.0032786165655963946
-0.028761193025887664
-0.027847049059216134
0.018261748927039603
0.1340928745618094
0.048213358272113205
8.344722857954394e-06
-0.015523923415002252
-0.0276712762039999
0.009323909743603781
0.0026472978366827975
-0.024799918314150984
0.018462306817786153
-0.042948104556202536
-0.016194958491741785
0.04535569996972815
-0.004494142667087986
0.005315984671940463
0.006728211126596758
-0.07882014073448182
-0.04752111552747732
0.005363402734876847
-0.011190278324408503
-0.013949657942772857
0.016501977453535245
-0.0032112171464521596
0.008416892895007168
0.039440220145376854
0.010819867830905782
-0.02926891092798435
0.008699309245346053
0.03698337695299456
0.02284696544149553
0.022134058818622866
0.09074530173033576
0.02557891554782333
0.0361908567053527
-0.006053175202071597
0.026845388887885492
-0.06875040637912122
-0.0830566292381867
-0.006268754513862554
-0.016070441159197646
-0.015143847329210734
-0.024017906619700467
-0.011020576514624209
-0.026163912796923542
-0.004634469039774901
-0.017600168338401945
0.05896407353915564
0.0367774548316176
-0.10740274528934522
-0.10344331777144507
0.01014394817505924
-0.01641114281673902
0.0015009911342974008
-0.008256359531700133
-0.10563898350267313
0.0351876861989088
0.05680818440102147
0.010288782237941104
0.06938320852302232
0.0038889337144986146
-0.022420997078338
0.011162657958526865
0.02736495941458622
-0.031305031751511656
0.043094957168940844
-0.013928456982455593
0.021651496268154557
0.02772398430845564
0.07323544062959714
-8.97255454774967e-05
-0.01843448007662888
0.01520551841797933
0.05522850289579027
0.010169749010792725
-0.06248670028045577
-0.033751432808776884
-0.01283356773128358
0.018666367119345443
0.0766217075024893
0.09001708560648307
0.023716610102487747
-0.027287895705922292
-0.029760259497509024
0.002238004656302012
-0.023749204371824
-0.012942471389239957
-0.04844604382837213
-0.041442558400028306
-0.05060083485556941
0.06028929931544536
0.06526224715193435
-0.019186043228074986
-0.042885934045888745
-0.0236211152850481
0.032048787207726664
-0.05018703664724004
0.008936059444196792
0.03494008045550428
0.01522318865261421
0.008255622686537123
0.0006142845833323196
-0.015893647660105772
-0.03779423936543021
-0.013802518617511176
0.005122462523444321
-0.04272700625471481
0.05771758090224575
0.06415228909577758
-0.14139736552076834
0.053246374820002655
0.029501955014534984
-0.0556138565445072
0.019040677844524522
-0.029124582091815527
0.03409245759057537
0.02284359259028633
0.025119258662319448
-0.02003761797317007
0.006604831196638755
0.0289275017055088
0.14629562899543988
0.036579680008967976
-0.007446844618902732
-0.002738799923864378
-0.08900462293090222
-0.027783729640377917
-0.010738441894816219
-0.012261327988573436
-0.03755115443321449
0.023450099325271253
0.025136310992370917
0.039344897565069974
-0.10964356795031453
-0.09194413074507457
0.007145097588943782
-0.026024344325233154
0.002073886102337919
0.008085256957195449
0.04395333979627987
0.021299695806806455
-0.04823789164642737
-0.009494851656764707
-0.044179883109084855
-0.00836287189535743
0.04791581227632927
0.0035061515649005394
0.04860576029833754
0.021113625225589464
-0.02670102522922681
0.06261937507056252
0.01394357960281421
-0.008245146031413254
-0.0013829158305994143
-0.016029073010497243
-0.013159853561176665
0.0013567653818076875
0.040597150675478096
-0.04064456082817177
-0.014546466097649317
-0.005732045562546882
-0.07473090032890338
-0.024275434057726246
-0.03615249496597251
0.004405722711344577
-0.0013110608281295486
0.02775954222699732
0.07177794772215439
0.07211854272918913
-0.11848110824241137
-0.052480710330331345
-0.001573122688167083
0.062233784437017305
0.07775528553188218
0.027054248074592478
0.0015846747185938714
0.022145676582550573
0.0271732414367105
0.0064184168667629935
0.0192655140115075
0.03326710598869695
-0.02420661735531886
0.024618362267335367
-0.012409796110370064
-0.04042979354588666
-0.027645388272381017
-0.07402134506693711
0.04966776135747998
-0.007237510278989799
0.004861418177216474
0.006762631173990512
0.03739845522952461
0.029892731709464444
0.009077187528218495
-0.04412238204695624
0.042595044948102755
0.023764768875747883
0.041302697105755785
0.03883133916839578
-0.0023540419413821674
0.01388196895201815
-0.04784953658843912
-0.015913532725083484
-0.027117415681368745
0.009672446054571708
-0.03776606906413289
-0.14657682336691732
0.016819716082816655
-0.037355500195845534
0.011087810828601705
-0.05611911853216955
0.011326861016196753
0.031064984204449187
0.020350857363630466
-0.018830633523509863
0.027010661206329306
-0.08924582278481179
0.012699742681119239
0.015501422636692058
0.07407965663358086
0.01025226730893056
-0.03458968335406129
0.06996659875338217
0.0244120711876834
0.014164456106277971
0.029053758272791996
0.06370320456360594
-0.02117120720494648
-0.022904644585089753
-0.012686728031192859
-0.008243807810007798
0.009147549265955693
0.03448635480697126
0.07427489143365712
-0.08959871172724342
-0.06948467573520228
0.05387336897245545
-0.059026252467952664
-0.04988341903297766
-0.03409467450700078
0.010586817133114873
0.031879998017435525
0.010567330653831482
0.007708687427018072
0.07725458366264891
-0.1297317286189627
-0.09514871940973253
0.026928769917098628
-0.00605307127115446
0.058813993270690125
0.015766647278846264
0.02213667446627333
-0.005343807759011203
0.035650119088930114
-0.08704430339959617
-0.10584503809327948
-0.0011847828847081046
0.01808050580423483
0.029256740060554925
0.022667200363175807
0.040322695801439136
0.010482253647468095
-0.04327313645717668
0.02487781865553146
0.0198104020981132
0.021557805556320576
0.01905075991109562
0.010555537757080801
0.013938155621497278
-0.014344113435200123
0.038730365250981065
0.014723963600682836
-0.0119761047684163
0.001136945969327986
0.045763991268890185
0.014403815908823966
-0.07915402528198748
-0.04389210663043202
-0.017859699631604834
0.008736514128354623
-0.0009797808151147472
0.0244939428417383
-0.009328425190666663
0.024044713275176887
0.013448677989787657
0.02340236620449557
-0.0033828086932142145
0.0038291018556038245
-0.03221625441916109
-0.02578329766851779
0.019680144147847686
0.013019028994201032
0.02426948164826344
0.05281855311938367
-0.11400278166417996
0.0030585806874059425
0.018983170884000464
-0.02381339920293504
-0.02162972416672074
0.0070640777957182484
-0.006101504575102941
0.026046512851972292
-0.014450879514222642
0.016152388791144043
0.014991393769400143
-0.004287008718599991
-0.031004599394187444
-0.0038152217369775278
0.03366605258830025
0.018265790740575275
0.02658420817387397
-0.0017228645907783266
0.04050376749655018
0.05098382917394243
-0.012765148427112837
-0.1599350118158121
0.042543847300300586
0.055123438436760465
0.04051292793635075
0.0016731705936133612
-0.009906862865336178
-0.016297421118270407
-0.0052160385532011985
0.03604372029199744
0.005806360031289451
-0.01685145348896308
0.029805864938614486
0.025051594738015326
0.002756636678613371
-0.020221627739008593
-0.02544298703447594
0.031155349405186807
-0.02314383415250513
-0.05188587432452286
0.014997814044827485
0.01031862510483995
-0.0008459442437573219
-0.006278861601366089
0.018108833205672036
0.013273678521301315
-0.02561377655829532
-0.04503348416764661
-0.04297799208966813
-0.05603540482849589
0.009329168335890084
-0.014530213076463211
-0.007461138911370739
-0.016305068809798588
0.034774125644479736
0.03417506868707685
0.0436210947314596
-0.01967290032318386
0.015768919858846753
-0.006239820232409912
0.005642465409683254
0.00691795404831476
0.05381792067745829
-0.00909161337526535
0.0013106635267311412
-0.04786576643033784
-0.0746694132085377
3.476269036555123e-06
0.029671062660895062
-0.004346073302427892
0.05854677342159489
-4.831866453034041e-05
-0.025011402534841114
0.03382626444041945
-0.1254436571921551
-0.013139947997345578
-0.011413814179280585
0.036854776429720015
0.00989603566462541
-0.0173374764854434
0.01650352109248513
0.018688045289093257
0.0071059211287275055
0.0033648245435861806
0.016506574931797607
0.016365461205807404
0.0018549637570544294
0.01192749251911698
-0.0027364803308749072
0.010288860744403664
-0.005169839621538105
0.015026394061034176
-0.04365014529941536
-0.02204379567636313
0.0390299520951515
-0.030467926293228337
0.023005919433510637
0.07319854114843205
0.012738864594789682
0.008554035610979628
-0.04451020672661463
0.0014822471360215626
-0.047235781279574354
-0.002795462399539243
0.014415806620796492
-0.020346029911496474
-0.021430245743020913
-0.02881797735079593
-0.02174637282833227
0.005634916810111073
-0.0003026481528248085
0.017471358971795005
0.035785799006467986
-0.012084290882823047
-0.060890567400392795
0.04139695145572345
0.11497380113764516
-0.02454240446363952
0.09529431708542739
0.001582836121051975
-0.026783610872002452
0.013012810925885462
0.02505180858923304
-0.011357507793011376
-0.015730038831204343
-0.06941239194460709
-0.05162355659773
-0.014119538130352998
0.017164200871829703
-0.012969818962881135
-0.04328814452108836
-0.01908180555702956
0.02929530102282031
-0.002541611205632485
-0.0040557983070341344
0.028612154710121917
-0.0057255770699510865
-0.04797198490735313
-0.01580146862969873
0.03746668139702592
-0.04125191369467596
0.0805416149757765
0.10403458052177067
-0.006562699762079766
-0.016915972212405057
-0.04142504642999773
0.048418953683058104
0.02283275249116209
-0.016542354124689754
-0.054762719037544816
-0.020069135428900646
-0.001891211353197353
-0.02430595309699605
-0.018757679309397916
-0.00408807601653229
0.06313411234054395
0.04283782555415698
-0.009434020002874108
0.019565290685270284
0.0026154705301725373
-0.0035441147678851605
-0.005943118563184279
-0.05665946512275645
-0.011979254415745665
-0.00060689154417469
0.019774014335882165
0.01171808676831041
0.014014397175073334
0.026318785742542514
0.04593768902559035
-0.013594334006512231
-0.02697814755087917
0.021442998071429006
0.001054950158051341
-0.020303822544250925
0.01143266580007705
-0.0008512536067872605
-0.0031951061541140415
0.021135552672476392
0.016113490927515642
-0.012526873303146877
-0.12404981648206909
-0.021536440467065793
0.013352364170701644
0.010943440041999174
-0.021966735239155297
-0.00809590698918055
0.02778909962510853
-0.025327707141079677
-0.030481440125831896
-0.02331540417590242
-0.011378435948764143
0.06202430604620044
0.08745524649886538
0.0065150339684068685
-0.025927028715808813
-0.0077348648258147926
-0.01867441584745051
-0.015699638944885134
0.005621786547680122
-0.006774121669486225
-0.04012604913510003
-0.012595771359073922
-0.019951853364284365
-0.0009647765654776959
0.006805008411546097
0.03539813875051132
0.031236190462820005
0.02321172163442406
-0.008810170936576042
0.009985855048492602
0.03392498858811229
-0.0036959759688786832
-0.04322040743930319
0.04186268580938476
0.03158985743188926
0.04148286629195674
0.020257848676347594
0.017752630025329594
-0.03044224769811362
-0.012620349166059317
-0.027683500621613837
-0.023110926845436006
-0.005944917478291692
0.01957880729200518
0.010818569397574996
-0.010878159058194796
-0.03062413117467207
-0.017690050900462263
-0.01720281269932984
-0.009412258604784814
0.053468183902621584
0.005304411525857109
-0.009771636467314925
-0.0176187597275985
-0.01886552574132956
-0.027664402203530093
-0.008495910843890503
0.0614323714045507
0.004658992827780773
-0.0032764743843802183
0.053414860262251576
-0.06817983100362873
0.0083422950239159
0.0790040827396197
-0.0066145250367360495
-0.023574107065823996
0.011007477771851577
-0.03448384655075128
-0.04519422751333715
0.0065029254396586625
-0.02467305675657338
-0.006181488193163357
-0.005460050971619058
0.020730765264901516
0.01678857373331716
-0.008393197588179161
-0.02202554556645249
0.04146933516431775
-0.021188795551080362
-0.002176221339015156
-0.019850851546886976
0.017672074031324897
0.04986677440281807
0.03333341785259851
0.01973945994538686
0.010840882216053971
0.02252821120458923
-0.020212863296783973
0.0399348628433854
-0.056498131207691836
-0.1611716028531711
0.013044312758825864
-0.007297029565607945
0.017184773410098813
-0.0338350753559423
-0.06327990212675118
-0.010212066041845243
0.011668644812373511
0.0014965092538322784
0.03336543976771098
-0.007244076892087708
-0.027207163757506814
0.0850783723965825
0.07736742880158218
-0.04787589097832672
0.07572225170613314
0.04234760714776619
-0.05269941837836365
-0.12754502364631065
0.03327660116578515
-0.05175557953467677
0.026026105801889854
0.11421416154506646
-0.02189756463910731
0.024998259153843523
0.0005085089040223601
-0.006608312682223357
-0.022947927271828192
-0.0007693429035701082
-0.011138391650930347
0.013406010466225637
0.0763718376172069
-0.007581918203937056
-0.01002828898098446
-0.013841036428525398
0.011823444051787937
-0.022499636262181693
0.03367912863677819
-0.005620477632953054
-0.025985977596854188
-0.05958067158859208
0.03939108095192269
0.021237465702600086
-0.0023295376825354435
-0.00475078962900376
-0.014199649154769773
-0.02539651327632436
0.014991830067553398
0.025625692210476298
0.05768260359168357
0.04881590895677964
-0.009802642409048367
-0.00608003381542735
-0.017594690305361687
-0.09831222660405295
-0.012093160275591354
0.034262670612070195
-0.015219361330696532
-0.04192128789888281
-0.002263082999361258
0.01544186151468886
-0.020674663383973908
-0.007046023206580954
0.0047519810560650065
-0.008943430838219218
-0.05870230833712036
-0.01845950127470757
-0.03314780159040207
-0.011258605831732535
-0.01164796238493263
0.06975308428573417
0.12023167232927091
-0.05487605863092627
0.10870959456791435
0.06812672990059367
-0.020658633842919865
0.020136657962080112
-0.0018753950518172631
-0.013479342140897186
0.00032212741836847887
0.043466922260650395
-0.03103039403383593
-0.1352392568125333
-0.00063511272052052
-0.004105091935123578
-0.011209222637089762
-0.0178832611307963
0.01838182840147307
-0.003295773525113495
0.06061516906468063
0.045763343209794055
-0.005259297175729416
0.024902986965769758
0.047893021295290564
-0.014101640267302677
-0.021422390488913267
-0.007812927462934443
-0.03392903113038257
-0.03174834153325926
-0.019781534759582005
-0.036973122742868104
-0.019763346725538793
0.016218317535811617
0.10802489954427483
0.04562515467689741
-0.0905308435280705
-0.008170468293570068
0.041275581997181295
-0.03279232876721838
-0.04538940201728604
0.005489597920533033
0.004037828600014244
0.0013153084607598706
0.007535179933790765
0.007855810311870867
0.03121015000962038
-0.11237115390091255
0.024340472236792168
-0.12679786742867682
-0.13335654189002663
0.014191975378474414
0.002364753879359057
-0.009984027293491574
0.03380628557523696
-0.025548267416034456
0.04812074435326004
0.05888665757734132
0.1405877162171083
0.09990975178993118
0.015452956510870761
0.053302038022203575
0.012757677634312249
-0.0020240817125616152
-0.025042425928144416
-0.003384413315512766
-0.021540947204640424
0.07277212449356933
0.0392549400050249
-0.04451492227706941
-0.03098311041317105
-0.002764680408691267
0.012749483380715725
0.016881606585551462
0.0020009838682499286
-0.10022465350749155
-0.08556159204636876
0.010279501493693867
-0.03542462126925545
0.026061312314742482
-0.021266914674328927
-0.023795567051712138
-0.010282250623296447
-0.021709575314240368
-0.03905256498171864
-0.009760581923720528
0.0013447809400485248
0.01735159028916031
-0.008722967512457078
-0.029746015987023852
-0.014002242158155133
0.004882290825959972
0.015232697499533938
0.14889986262057328
0.010834563802164418
-0.04554998209279728
-0.01748196943752531
-0.0028590154303264463
0.035145457167256
-0.0034688499435583295
-0.02042227545260904
0.010006120137021996
-0.05084172862913958
-0.017109694954015438
0.03759843533734678
-0.007983935937369792
0.018579802994899815
0.06274185578121287
0.05110284229137988
0.0006513511280212851
0.04895114445272603
-0.01742353735087067
-0.011263238229842171
-0.04278958466241401
0.051182674791568225
0.1308904692156736
-0.02425330022771483
-0.023414898436373222
-0.02602419397649546
-0.00905554725644987
-0.0021725165914690796
-0.006741369656011556
-0.04394475606924634
0.021300887678380002
0.02380841032247709
-0.010599699294150448
-0.015279197903897639
0.05625181266801878
-0.017165936026737463
-0.03256260236939009
-0.023630044369877853
-0.03848868480844553
-0.024299470283916814
-0.048306623291289603
-0.01994912242762042
0.006755409476039904
0.033093374097507074
0.0006132741641242325
-0.012623544213925059
-0.009581421316142464
-0.009947388986943966
-0.014105675958178243
-0.051248594689227024
-0.006886073605388893
0.017416776205567443
0.028013728352129643
0.045325400223830116
6.465984372834699e-05
-0.005657600140496743
-0.002922761203033556
0.013886280542581437
0.018323765082666556
0.03250126774652318
0.07584905151879169
0.05617187185759724
-0.008482822716568356
-0.014603280335599803
-0.018420383854980578
-0.05427664111794618
-0.011396047275536841
0.017350098116528673
0.015348604744007257
-0.027563874901174314
0.0022469536515583224
-0.03840884468800912
-0.07117126271186212
-0.017353788414998333
0.042113851829639934
0.048228473063916415
-0.011815728916225638
-0.008377301631869519
0.03594087815250263
0.06382681750136882
0.0074195933918002575
-0.011954111008727177
-0.021111886955734478
-0.04848561249568649
-0.08640693850060464
-0.005659943580211801
-0.013775796423554568
-0.04160716055288096
0.02215210236682831
0.013112501856822258
-0.0107211944392693
-0.022521184095488606
0.02775339689021234
0.06864123798600837
0.005263940365706927
0.0255301256523727
0.02507463373792087
0.01667145699265158
-0.017808924311842025
-0.017472195589202676
-0.013485946308670515
0.027640021359766426
-0.011227585433558436
-0.013703937365978205
0.0028112870832363336
0.04567109168114959
-0.019300109690399643
-0.0003934013128132474
0.00034470017252337734
-0.008378522314152858
-0.005416004326917328
0.04072945505135689
0.03216478577106311
0.02772935554003963
-0.05358176893164288
0.024642056503741235
-0.0778851531300191
-0.08127378800936796
0.06522398940093234
-0.025848168722709373
-0.04042797128060265
-0.026008587822531612
0.01127193493911378
-0.006869430356669428
0.016470056701725907
0.04106189219765087
0.014891162019207187
0.05069694138622146
0.037544759891171044
-0.011072144109502111
0.02597536354767716
-0.022118714418164185
0.008515085723415462
-0.02055295241366181
-0.005082124582708704
-0.04009162197087093
-0.07737975709627574
-0.05716925718831374
-0.007298364687643662
-0.009905216792533969
0.034320810808195955
0.007858018987685518
-0.055848831972198365
0.03380574657540802
0.06610155312364487
0.03581977252021678
0.05653325539537447
0.012713724375972357
-0.02290899412024942
-0.008674564908743233
-0.014517802841725902
0.013082463971590874
0.010521931285694697
-0.024169790321265205
-0.0012592680685676331
0.02875267808368444
0.03991959448944732
-0.004339221222758005
-0.0007194172401890998
0.05551329581641065
0.06803448280667959
0.004222172974499601
-0.01674578337359094
-0.02074331140335552
0.014157979238786303
-0.05154134504926412
-0.032158089345384014
-0.04543162235027079
-0.007740057120218937
0.02827187716764224
-0.01620715416272281
0.0030548683802859074
-0.0314799355231223
0.005811000803426787
0.00599136187210699
0.05363767662355285
-0.00547474104525772
-0.029600693962355304
-0.014360843975707126
-0.025727376037977992
0.016704326291947548
-0.06990438633174825
-0.046432196298723444
0.027490350666156144
-0.0007553606687341724
0.010649178587397263
0.03244401644242271
0.03298134204105503
-0.001323457557623644
-0.015549080914128658
-0.10433041472897063
0.006542785513652239
0.001342815133732382
-0.0033142578527513558
-0.015429278784396636
-0.009197495404766894
-0.011957266978137896
0.045338695599757256
0.00035623221511070085
-0.07293870545636363
0.05321353035668684
0.032040309650756854
-0.0027953274852502434
-0.007978303774757356
0.04687759177335002
0.037546107246309864
0.019454236971511937
-0.06010164236505749
-0.030572566055071915
0.0015646480810032803
0.030848389224744234
0.05115371638132569
0.050476068842395506
-0.05631599570105256
0.06647800472032761
0.1100243861320176
-0.08076774897901975
-0.01149367378689156
-0.017612353843213115
0.010236689008716254
-0.05717516687945114
0.05174456522315504
-0.06010157948328567
-0.03513097763456873
0.04208373705850499
0.023035811063994258
-0.017287989285309925
0.013629317888204909
0.006228685932434379
0.026196202776294142
0.01510160505194095
0.07574836006992053
-0.05443076959630241
-0.08698124030443266
-0.0036530101392761296
-0.008809123302775931
-0.00821298759999949
0.01490621261165244
-0.004085302397646923
0.008341271368714851
0.03127245718152535
-0.00043785049456063647
-0.03843049062202363
-0.01065769248461571
-0.006865554478258548
-0.012256945979772055
-0.03880551568434569
0.0378406651926832
0.027192907246081227
0.005514982472926347
-0.04681515120130426
0.05710418404962776
0.10059624946103801
0.03673990132797701
-0.040686403605149385
-0.0031740499459117213
0.006954495481907143
-0.026571271395886296
-0.03662640951125691
-0.005871430793916311
0.05572290237342844
-0.004351501640001683
0.007543423067954577
-0.038394424783602235
-0.15502546204093412
-0.004856692397305801
0.0033908323534449832
0.006359283781691606
0.07047101768484527
-0.016001093968552035
0.002630681698996194
0.0268682959915038
0.033098400994683495
0.039209886888808845
0.018126623221463016
-0.01754596986384657
-0.038158939945907785
-0.008612162645197473
0.10745089150626787
-0.006803229850126696
-0.043077376575785725
-0.024855487332086628
0.010562058480848223
-0.11662571289792265
-0.012199956288093899
-0.001186315045953459
-0.003255795047500621
-0.005716693293923903
0.0633053859736953
0.010253662968739684
0.025763311331567968
-0.011731113045313964
-0.0047873363098355865
0.017641544009166878
-0.03098972111620557
0.009131903745924198
-0.021881590910509383
-0.019432412866519408
-0.014927807629273773
0.02854205329245733
-0.0019772667761607816
-0.019028286709838364
0.031021560364989185
-0.004817391708291901
-0.0023367634074512476
0.014384838001390393
-0.027099753224090733
-0.06413465857964236
-0.004178417772657402
0.0033086485441641018
0.05137243271917946
0.038120300326245235
-0.01619374979906355
-0.017535487079688453
-0.036998183173731276
-0.0011325037454881014
-0.021792801061364084
-0.02407077460374071
-0.0019959657789112334
-0.033469666039359
0.015692467243938437
0.04670338442696895
0.0037277474301723973
-0.020635217374997773
-0.00015467006242125668
-0.01072917877907488
0.041536704792818
0.09266658614716605
0.030448306172094215
-0.022910750891464274
-0.005086929540642686
0.02241969124169762
-0.041756071546253784
0.011510126138696036
0.10048589773099344
0.009098979260257186
-0.02453145729852986
0.009009365405340416
-0.016366268192356575
-0.013967336824904865
-0.016450128627876176
-0.02137729995972707
0.0398065690747087
0.0033596428499781013
-0.00039788428156090864
-0.0008104550728164278
-0.023684820815389335
0.01385876235781968
0.026433801716085475
0.026349048144666386
-0.022074434741626067
0.026017269074340113
0.009986987219600806
-0.054656242350935164
-0.007621563051125747
0.027626831128708458
0.025097306704718037
-0.03566722469300983
-0.030113475283821176
-0.024498363592948366
-0.013990515821279761
-0.012686209435643176
0.03663752917103289
0.0014840636643385832
-0.013663222000893918
-0.0006335734158644007
-0.024040537570390215
-0.040554269700096866
0.02211058051229349
0.018040726007363866
0.0032423634315633092
0.010008692398100464
-0.01252946901755814
0.034557869419769634
-0.015708690209415208
0.01926704538607001
-0.011529856758039875
0.02772829730141072
0.01195502033255288
0.020237832368339863
0.058954444782861236
-0.05035361849502762
0.026776820239117545
-0.046697504006739804
-0.10133643780825699
-0.07822668545772425
-0.047092861067509144
-0.011943498727010431
-0.024197446781638984
0.011592924372162014
0.012732465787766075
0.0454484437599815
0.005515249223367993
-0.012908245126932536
0.01818676605353391
0.008003378047190526
0.049125408571394955
0.04380138026393061
0.018364135597560338
-0.0028912196821035455
-0.04988305329903069
0.035224537475382164
0.049615146570740995
-0.041195319414208995
0.017063459521633316
0.0028561965716339334
-0.013012465641893171
0.0035126295633546786
-0.01875093721387332
0.00816772250396694
0.007906021396606865
-0.07693509851968153
0.009285900059797394
0.014356823667062969
-0.014014082831333437
-0.04951720007531047
0.022832321285146086
0.025158543113046057
-0.013171818057757616
-0.017623819267535354
0.0005070269205391818
-0.05487070055526257
0.037647773642551445
0.05107010795049992
0.022541958451637513
0.009344377345266752
0.008805180700511473
0.023153028402330952
0.04775881940003465
-0.014630446310203465
0.007815371227283912
0.009005705197622432
-0.009234107776596301
-0.0024994514883936044
0.0019398227545897398
0.02542527563595202
0.030993526288978872
-0.022539228334058754
0.0006449310761768377
-0.022954937192167606
0.08919309357294239
-0.10323532571578121
-0.12838667794969155
0.030344782388080378
0.06345789897234812
0.05121660417038331
-0.045339842817998764
0.015911603429609705
0.002912854147112497
-0.006908144134940923
-0.02746310335326444
-0.03302441428688447
0.013819926708976773
-0.002400653925748676
-0.15119655160906575
0.04916125679538885
0.0011384170529092873
0.048393771821822314
-0.004350773082842371
0.02790582784264726
-0.05134159791386539
-0.0580444298049859
-0.012330691276078812
0.07890599527422057
0.21368658985367076
0.18271301248706268
0.1343533282633766
0.008030194752319855
0.011405783500452474
-0.11686102682209774
-0.020391810625174124
-0.01462947869199601
0.0002465947449771034
-0.04183042237454048
-0.01755227956714118
-0.00391912885456295
-0.04594660071672109
-0.13809573978728254
-0.03956968081308366
-0.02717881600170079
0.0222122009328199
-0.010465068040156565
-0.09582688679710634
0.021586660309659434
0.025397010295837026
-0.0070586083113651915
0.026405515259358952
-0.016231916202978668
-0.13999634334154032
0.020185019997011177
-0.023416959445381927
-0.03412917159576802
0.01879291581948635
0.00042862609227336954
-0.0053625319816933935
0.011543629001278435
0.031786590438453784
0.04630168752714695
0.030182467380595737
0.03166790631412779
-0.002347659561776841
0.03594114124921334
-0.030054946955351144
-0.041582442437667066
-0.008430938908426425
0.005081892330375368
-0.006076783991239684
-0.004097063730238781
0.001456847474902393
-0.010790225343795722
-0.00906448491134814
0.012633566142795273
0.02166517808511163
0.004005227342037477
-0.014746626673156711
0.00660650903956733
0.03326858585128556
0.054304366112290635
0.029330492368595168
-0.009716692917920305
0.013559757171093843
0.004985918922973651
0.023076364872387456
0.02536901646437843
0.009841792542228793
-0.019330906529347963
-0.06141505931697042
0.014662677406993745
0.03320437604845491
-0.03139961349507352
0.0032943316590149222
-0.014895805277990776
0.0029562900849112394
-0.027690969115405285
-0.04533338053629343
-0.028114371687840332
-0.004443779295847053
0.053052949544072595
-0.03161539811034187
-0.012185063084102622
-0.030235512438733684
0.02686168459525923
0.026655355540873074
0.07271406521085458
5.2610864887299094e-05
0.016465592247296882
-0.007604891665671264
0.008933971777242438
0.008321191968122338
0.018646019430520952
-0.03923473173667428
-0.019802520139671202
-0.004332567991974879
0.005239281498909084
0.008452749598756502
0.0660789056883306
0.0321536594371131
-0.012462318974846572
0.0016324047471849884
0.030306381440130037
-0.04698549014893173
-0.010682529331283578
0.031970180572477816
0.015594324926009597
0.025673162958693825
-0.004621445647363775
-0.016356647086032995
-0.01233895257042419
-0.021978967864536937
0.015300189211728852
-0.016270730141969624
0.016757809083413972
-0.01549943982711734
0.0807350637150019
-0.06601172654223458
0.06768411559464156
0.05569254016575418
-0.06033520881100208
-0.008076070658228022
-0.011658214739143042
-0.04837883791662168
-0.0836635608461888
-0.01913230891962114
-0.001853612342065801
-0.006368464552793236
-0.0603376167178906
-0.03583492785132656
-0.0051120007267738115
-0.04733171743047857
-0.048948587709824305
0.017164599361320244
-0.035056533753175315
0.03351858643928676
-0.003447974108432676
0.011882465598667702
0.06317826026546544
0.06779144201343623
-0.007236787068644848
0.021486754997557353
-0.005293511073626428
-0.014311735928193396
0.005118524115837741
-0.0009370614913245583
-0.046164459126930846
-0.017849567402995935
-0.06504700810835033
0.04818288208791853
0.013472976979639149
-0.03366496206582693
0.025962578160571386
0.02992508412860761
-0.011494485760586095
-0.03910685688454915
0.038649559172691444
0.03188670688124803
0.0029108145634258154
-0.0005702658252051436
0.01612800198796471
-0.028170464730701162
-0.018807753961806072
-0.00958194652372972
-0.008253586637512472
0.01259442452628263
0.10062052161893006
-0.003091301069858309
-0.026824179233723378
-0.014821639822693475
-0.010435829821223982
-0.004736411160911288
-0.023763405665742057
-0.027893569407687144
0.06939165336594832
0.010030380765644114
0.02574295882894183
0.021050196365400075
0.05221760617865831
0.11621998229841017
-0.036880152194995866
-0.015027830479609663
0.13293677035359303
0.0777571676908873
-0.024346878552775904
0.00940799161692142
-0.01639824516091002
0.017708886133405613
-0.0674334272625747
-0.04807365458914366
0.009408110933347952
0.009665804017885787
-0.07686697866150284
-0.07014534345023943
-0.002969010230629698
-0.04067474391152901
-0.02267884929538276
0.007859430829892046
-0.02056351595418574
-0.010656737193700153
0.041799505626719004
-0.009973131570539442
-0.013850443414334265
0.03491740052339145
-0.01452043899569118
0.009689820693508613
0.015422326585047275
-0.016443434918742204
-0.019018985616377285
-0.005505425605982706
0.07272553276385667
-0.0018730852123257432
-0.028725164246160683
-0.0007875818408204206
0.014692141359164971
0.006610174969153981
-0.03736091826769246
-0.03980759115700036
-0.009128638373271951
-0.037913303425755926
-0.034161734733709516
0.024726349720370806
0.025092755261520515
0.005675563406043235
0.010647422914474023
0.004089984832696372
-0.013505542227839753
0.0014637582950897047
-0.025139604321641886
0.011328270920136593
-0.0041140632943056825
-0.0002786311803050445
0.023149886505078633
-7.250766836238165e-05
-0.036041094462175405
0.019246903708137402
0.018835989298540405
0.0189358605821761
0.007397786349591872
-0.02211638545071193
-0.03193990007658169
-0.03715529399075891
0.025982778444064082
-0.012189909372265143
-0.13508795219212005
-0.020956378716885625
0.022760068300336424
0.03136126845093818
0.022903079007717715
-0.0014372574839031475
-0.02471213296253746
0.09356487683696353
0.09031524146262007
-0.009910864895868067
0.01573162688259618
-0.11101631269442373
-0.10055878357028573
0.0900956168488228
0.11813011050764916
0.13113593248830216
-0.02174628842049412
0.03755344898337688
-0.014184109183491845
-0.016542914644978243
-0.010416922493320975
-0.010549644518012716
0.001049423285658431
0.004226329052527008
-0.029733504408277364
-0.01377924462163283
0.026111141994412963
0.03976936638274379
-0.031035237332856555
-0.00795364077270974
-0.023125857965245997
0.019053064974375488
-0.01040591525917554
0.0483544443016426
-0.11453477100758915
-0.006775509049730772
0.02307769470470485
0.008350213875770144
-0.014890481363064872
0.015403585490314524
-0.05363648460051299
-0.049370502291849055
-0.03724802594218217
-0.010832087712804049
0.04790980607580651
-0.03025801368074327
0.009943118748764078
-0.018199230315767718
0.07794128818991918
0.13466898160248134
-0.041708353175681855
-0.014807939404450356
-0.042449956920886774
0.014141448788326459
-0.01682213412576867
0.00989936783063822
-0.029955596928410762
0.0007725680290623599
0.06546880217268627
0.034272789326925034
-0.01666533800909081
