0
0.030957802916683916
0.0417981693451723
-0.039919938589198255
-0.10280071443248547
-0.027916784717682216
0.0037042986762843722
-0.017379463437974883
0.06395378025646702
0.039564291894645866
-0.023023347461536465
-0.03160700734409892
0.08466647833182465
0.09299881656443576
-0.03281723414486258
0.005019360618477414
-0.031961745251475104
-0.015024695450254056
-0.016539532791010843
0.008818889599745866
-0.022559778508726563
-0.025375957615963844
-0.010276557941091771
0.016811388204732835
-0.02545075240457336
-0.02596785930833507
-0.013359186086205769
-0.0029580015532694745
0.005090858897334043
-0.03498612132798071
0.011959504758613512
0.015211664591285489
-0.028333729442793838
0.0984109972896395
0.14780438453629965
0.02362386750576902
-0.029029274447546473
-0.007077531707571123
0.006091479202684538
-0.03641566741215919
-0.014908875132274749
-0.0035611196635021995
-0.0031800122247636867
-0.0122139259160785
-0.025916251332352133
0.021532142300508192
0.0013974619663194641
-0.04591201423330375
-0.0027029373714149117
0.008749217593920776
-0.03309731029313094
0.06325717810038217
0.02015675544023601
-0.02325637157272373
-0.02039713881464556
0.00499050862590083
0.06050986586840053
-0.015083956445422497
0.04079498019447885
0.12852666979145047
0.02395891080790997
-0.015463911175626104
-0.00712655801011859
-0.007024771763129751
-0.041988597171840315
-0.001549610790662141
-0.011148303215792134
0.04550846519268069
0.008763936714516907
-0.0298714464431293
-0.0012456435273005132
0.003855244699908251
-0.03161304072827823
-0.07328090205163053
-0.11279632090460127
-0.12181469272726407
0.001297092440371408
-0.005345759219551966
-0.0053606259859080505
0.020284243908558458
0.02733911918410963
-0.01741287628213615
0.003232485833122556
-0.031094398160336857
-0.0263515483600619
-0.04903060602123271
-0.04465916861409421
-0.0052577751175437275
0.002742400598831331
0.007773342876969158
0.040429775897883914
0.05006767899248528
0.02270218823258196
0.14036140605003927
0.07344911852008018
-0.07182816453545028
-0.015137388462343679
-0.013432123999832015
-0.0006064224813574413
-0.018098195309822488
-0.011754682800358917
-0.00514784194865346
-0.0593314699112131
-0.022920854657768455
-0.025128164053587067
0.03638387180251673
-0.012332609870118659
0.014973446120276368
-0.00685147056355865
0.028251882226759485
0.02357863027999691
-0.042862691219291794
0.002699435082882282
0.08734348442597804
0.012763888481435543
-0.016989155336758974
0.016291481801723007
0.04273668329265216
-0.007182019293869923
0.017044901057101363
0.0877853005226035
-0.013819164787431688
-0.018691899134735252
0.029461426782692295
-0.013691865616579929
0.0073776874802571335
0.1498049085833698
0.03540744198057926
-0.012459263417335338
-0.02536905744475831
-0.0035230692581022
-0.017278872788245206
-0.013130418551498128
0.00751945742688105
-0.009196015182170704
-0.0038281723213166394
-0.011631780526916007
0.015815205047440887
0.008436793251111947
-0.025143387791318847
-0.02982688188707535
0.002835698777684453
-0.00206312156804242
0.00027893026483998603
-0.10746612528109069
-0.17986026078798031
0.031048431702523503
-0.05412135101726856
-0.01751202203575462
-0.014621301010954612
0.034365065687655884
-0.00460911706978895
-0.05779671146343208
-0.03354124773349428
0.02163316132468134
0.004451858556658549
0.01679554793664186
-0.022410926056070472
0.04172456189429176
0.004087216319345867
-0.020712100546253585
0.010151934691351377
0.002924398246011808
-0.015469299159802245
-0.013203834902509905
0.01593575733120231
0.06271025373505687
0.013947446180282227
-0.02054110682030668
0.01135949218784762
0.00875434788975022
0.003474004162726369
0.03662115451947544
0.010558658230409652
0.02554509548563906
0.010034938851926653
-0.012918867291527983
-0.013582970055750997
0.13698780220272003
0.04867535011955781
-0.011932224143428913
-0.014341369383404834
-0.001989196243130329
-0.010479049660193338
0.1181196306622109
0.018442252919754463
-0.04146644684918438
-0.04012704787500239
-0.012681384434610745
-0.004790737727897911
0.0010288433255076178
0.00013639405708062335
-0.02361186755361034
0.03221404661934299
0.0036510016650500403
-0.02047499312592581
0.08729009460722009
0.01750960477558803
-0.03813922719367145
0.001761584579194253
-0.05496699273259643
-0.05030521033299188
-0.013484991310282012
-0.0020616623175136704
-0.04477375370771683
-0.03740696729530373
0.023285303333560138
0.006039754786777647
0.038905947056237976
-0.01003556719712895
-0.009723821356167171
0.013125852736974105
-0.0011373262301394341
-0.04031166934041403
-0.05244070167190011
0.0357584941044615
-0.0029232679235605213
-0.007681390810195589
-0.01641341996296099
-0.05342598234344129
0.022609610607023996
-0.008112255249342793
-0.007979514628904345
-0.01545495370592727
0.02281396442769261
0.018234522287089803
-0.008318256088846567
-0.010834975462011112
0.021680370539828547
0.02255562385588857
-0.005030429325159715
0.007722360112377189
0.027672147914579996
0.0024620983044313914
-0.021402880697426345
-0.05074292070355646
0.05429087282997641
0.026661139924076996
0.011883896287844314
0.016486209207717917
-0.02537583066822817
-0.0070355999625831755
-0.01114081470021772
-0.028677504340721575
0.008875443070994403
-0.017757550895492785
-0.024677342792326626
-0.02874789184873082
-0.0021870352342692268
-0.02603157649562988
0.034978052935752124
0.045037288848192095
0.0031222500488854487
0.022000056571233127
0.04797600176237003
0.025872253424721853
0.03719226342472875
0.03405108247913469
-0.007503493403305669
6.789190333891332e-05
-0.009388527453710108
-0.030940312564698248
0.01861728017646578
-0.05947575439865444
-0.06601836754144198
0.11347636861864141
0.010182509715902064
-0.06519585037068945
-0.004415818850101848
0.08813635764629438
-0.05712838669849003
0.007938642039441711
-0.024970642489150333
0.002304128021152006
-0.07937302024889939
-0.0005531882226062487
0.029754261388329872
-0.02865099349580426
0.0005264112602049573
0.009723630395168738
0.009488208215575446
0.01329419441444187
0.03175994366182262
-0.07764052265774128
-0.04569738276463883
0.012321003947474643
-0.010853750503471512
-0.023445429279424307
-0.002134892652863339
-0.021538136697481308
-0.06850522345146878
0.058913621618853135
0.024765373087910544
0.03414089264558259
0.03376258954122967
-0.010966200162534148
0.008270683113627915
0.013522686735874739
0.027004343465884297
0.008466120827570025
-0.0007552788225105733
-0.0072746588299601326
0.04845977792823502
0.011180851273298383
-0.012215295667076418
-0.0003544742277670759
0.003884118751829786
0.023616101631694603
-0.021713032615151975
-0.0033037227447796375
-0.007721128483892935
-0.0036900569774242376
-0.000990982848343759
0.00665251885007844
-0.027814671141355253
0.07083712879731625
0.001255705759332981
-0.08189048818225352
-0.012394316831197526
-0.022977061312131092
-0.012928656671004275
-0.036563931311077734
-0.03292327506051393
-0.017426424219828842
0.1117937403276068
0.08173377040821292
-0.039782066165974315
0.03819258786048088
-0.009106784759873181
0.006935140556133214
-0.03427726626831775
-0.01811895646488137
0.0295874755428334
-0.005336936401514988
-0.017342169855242295
-0.02177303913785898
0.0002484416068752956
-0.027472993949530664
-0.024575804307068665
0.0368166902329964
0.06796303266957983
-0.018865005160596995
0.1760227665206613
0.05767215216459057
-0.022867594463701377
-0.01382377285634637
-0.04794886488541894
-0.024846678538889656
0.008998838005150021
0.006205243804807849
-0.09857464249975596
-0.07648290525230043
0.009714459223387184
0.0023567654613045864
0.01090739853102361
0.03149710269446248
-0.006562071203593487
-0.008097419549555554
-0.0008933244822864829
-0.008633185822608492
0.04956735043314104
0.015151098405243282
0.010897393084415783
-0.011995643471549565
0.007118494409480454
-0.03457694597846276
-0.01273261964572969
-0.0006733819783467924
-0.011715196643402426
-0.028051079320970715
-0.006478082497571455
0.019995223277874664
0.027506968273219235
0.014299844601434566
0.021166445303334506
-0.006468167918755937
-0.00020153788098026848
-0.019457801441232846
0.020129414725125135
-0.030389616421138396
-0.041549851800870376
0.011125438709499584
-0.016662001055120636
-0.002233237125795207
0.00026913787291401236
0.025421633827472444
0.010137049354352575
-0.015519934041598685
-0.0010016705880902229
-0.0024817930977848223
-0.014339706465441424
0.06913112735545025
0.04213035331864437
0.031170604094956585
0.021215146346588668
-0.11258674278762258
-0.07167386609243265
0.06041159639871039
-0.019009046177655822
0.009780573801128328
-0.04891135614493032
0.02997298108546499
-0.03264365587599282
-0.15039224679252958
-0.02794846625301268
-0.007904708230868163
0.03772324802383644
-0.032052005375420835
-0.017063849836804174
-0.03043348602652605
0.06113897344031933
0.012752335899118127
0.12726614516854676
0.086566336650982
0.000823848569170016
0.01678291013247472
0.001043819100837545
0.03275037572149568
0.12861999188317266
0.09438124448126534
-0.018518086970057024
-0.03272652062137085
-0.023320486032775718
-0.02120575844996454
-0.035937414728031074
-0.11615663734137618
-0.06592749786142353
0.0307002417270477
-0.056282759951713744
-0.020449183034572358
-0.011725809859092499
0.03264219848661452
-0.04027600063544468
-0.0012892659433214216
0.0014943379850566444
-0.03230437306299431
0.025005031457106155
-0.10792552996396722
-0.0085229455017601
0.013527511497107505
-0.011690332168526154
0.08079873388514554
0.16361067619655256
-0.0195239263251844
-0.01082946806720224
-0.046219083108705074
0.00676156546958227
-0.047746938773107525
0.01245746876951359
0.12526286560916639
0.012597526329063186
-0.006002718712444861
-0.008588306561797411
-0.00872067044795839
-0.0013159930783190154
-0.025009952315582923
-0.04008970897360833
0.061310943164986975
0.03133074925717613
0.015521084674690188
-0.007944236457832139
-0.003344923722512773
0.006677399044202965
-0.012947039770363222
-0.04909637312202864
0.020614988150342583
0.011524543663300316
0.007474290250266764
-0.017332920685742263
0.006455251816965783
-0.022939661362951762
-0.0214375282664042
-0.009287384068339836
-0.005322365348255419
0.0009964867708324703
0.00242439327812962
-0.014356212676386867
-0.009044822873734896
-0.0271745431718948
-0.015559193224686938
0.015516199105093526
0.005579271086041655
-0.02151731983668644
0.008456537422312525
-0.004513671582914821
0.03480638859599702
-0.011971613946289386
0.034606672372480864
-0.024629660797940007
-0.00991816170910736
0.04597832710591012
0.03474172442046276
-0.012516112236671015
-0.03720229277826915
0.024893093278900876
0.13246732222958174
0.08239273815764946
-0.010951526638229585
-0.03631699447949296
-0.0011464052104406342
-0.056469931616490596
-0.11751355432295756
0.010468936750278768
-0.007037252109444822
0.014763883530148993
0.018835402076906926
0.05114378864592032
0.03509705385804225
-0.005009005763657949
-0.04202260266250961
-0.050842976414291786
-0.008718613299308559
0.019306948432537538
-0.002501679826713185
0.00698798047577768
-0.015047453145931889
-0.0027761446631201637
-0.0036762741466381046
-0.00317813796402471
0.004688226576395878
0.022613639518787684
-0.0317737222780937
-0.007131113914247867
0.007914850711071567
0.04577445422048522
0.002725921176815159
0.015030377394752752
-0.016621537578788894
-0.056961840964488274
-0.055466432599071795
0.0009203913494816064
-0.027399010262447128
0.08085023846701768
0.05116802287719798
-0.00813397427970371
0.006081366903463247
-0.0512631855010961
-0.002832015958719793
0.00242987255889005
-0.008922873992785154
-0.015786626362443514
-0.017180160424795022
-0.026614894989163425
-0.016032501775431533
0.03854590730081365
-0.011166037794249507
-0.02739103974551168
0.002684581412583475
0.01678267470640823
0.020703125763591866
0.05264296703200779
0.003617028628847181
-0.0197506330461406
-0.07072490212819209
-0.07110988525757522
-0.03761060243557764
-0.09307489683745591
0.0019815746717214283
-0.02677150048082052
0.08193379420549626
0.2015158038795052
0.03810266229376469
0.013840662624742952
-0.033871994991366186
-0.0022889697501987387
-0.03746611003111037
0.013784725119403839
0.02064840289492742
-0.0673360217206684
0.11358395279323172
0.0180450090647421
-0.011625922450973077
0.03122443747064209
-0.028905519291131082
-0.07528643306286535
-0.020979920739982883
-0.024397121143446235
0.053469614890887904
0.14557547713556468
-0.03184027448336142
0.018731268981881287
0.00953744034766442
0.06111760394966533
0.054800471555455296
-0.002195588826433066
-0.05543689539943197
-0.0226121024839039
-0.020444078471482212
-0.05242561008267995
-0.08123302114761036
-0.025282292686267704
0.007284164595660018
-0.012864749601803657
-0.03963919517015544
-0.029968258974920753
0.014417773215945779
0.016827725758414926
-0.027294404420679576
-0.025598287450448214
-6.3690944671344e-05
-0.013804943948775279
-0.017465707854585174
-0.0036546865251255826
0.012490336269615048
0.0042803684040913234
0.058073274536068274
0.07090136706662667
0.08385304680963336
-0.004515702348222569
-0.026657168796767786
-0.016175515296397627
0.14975470625956586
0.049946609247375345
-0.008348128473807278
-0.03517216467767505
-0.02982884036023943
0.02910663073616731
-0.022235879207514117
0.0009908167527827845
-0.010254084279186016
0.00618552533364113
-0.04017777112219269
-0.005586316974226213
-0.11029008631550448
-0.06591300764497716
0.0077874163432170365
-0.050368354333666626
-0.0034479315480763126
-0.009201428476167882
-0.03134030730636496
-0.01271457665813901
0.01931187914966472
-0.0038704487270625598
0.023343897904972
-0.022017566335137916
0.06521479069801572
0.01685411308539108
0.07867580314543426
-0.0765022113014716
-0.07859208076781055
0.18499628384777772
0.04767053512910311
0.023070636144854727
0.041198665311551516
0.041439254203694216
-0.02173677882376277
-0.019085946780415284
0.02502050824996315
-0.07641889787156605
-0.09895502038585773
0.028554254819951802
-0.05174100456921386
-0.0922028921120058
-0.04926087158526033
0.0007747338581788029
-0.06333073964310511
0.011611799694425719
0.022593482098686703
0.023347158864963174
0.007682702594891584
0.270891978383806
0.10529014891633595
-0.007870722998585631
-0.00016111900505024962
-0.04392839751403803
-0.022672276716640623
0.003479773716934421
-0.020644552481953665
0.0020344865451986057
-0.02805186351835026
-0.003695973177382768
-0.025212243198095476
-0.008327868047375247
0.06014854449534108
-0.032340829872259155
-0.01993571510942137
0.0034895084240059264
-0.014672183566879646
-0.01162465509005285
-0.03348674652163101
-0.034794552630762296
-0.05668880399770181
-0.016486818457912333
0.020933890472921393
0.025767547373616806
-0.18538899565054237
0.035493203695883366
0.019276072326645678
0.008399610397152956
-0.015776165999553428
0.07190088716542715
0.012094131970641494
-0.0007153636552616202
-0.03287891036103118
0.053874492826505076
0.015814580795339258
0.06108459195516456
0.07566153607764203
0.0056413166077815095
-0.11408027107910353
-0.10691492965500717
0.0032723641807236997
-0.041555275948198786
0.02290104738329369
0.004284368607108742
-0.005376181649110571
0.015029461923086131
0.03917532646508217
0.03762087617602975
0.0035016287814787143
0.1423187135995402
0.1364937721421319
-0.030609309945091947
-0.0001440973881248321
-0.07051983519288604
-0.024922956228522752
0.12162423447803719
0.06112200280002195
0.014352396494924003
-0.09263231210680786
-0.06757438503250629
0.018280171603245507
0.013107097058349188
0.0003103676768418313
-0.012891368398569787
-0.05524350697082841
-0.007713623253129364
-0.009258299628081328
-0.043919209532264664
0.0013743049758837883
-0.029635071687946275
-0.03171092122523225
0.010502248395738333
-0.02548783461624452
-0.11024487902192613
0.04989591628261998
0.05475676274237167
0.023896850955458043
0.003905577263678157
0.005873321872149831
0.026413178705060453
0.01560993289130875
-0.02404662596632787
-0.031006336185875186
-0.0026360163875322803
-0.03607752981911913
-0.04248916371591036
-0.0014798531063685853
-0.040154252020587575
0.025702004723214805
-0.0034631205028439627
0.02519909479414935
0.013264058771288518
0.03370815364779443
0.0078792094220018
-0.02556489749793592
-0.0024920353858048456
-0.016522379703669033
-0.011379207305246507
0.002032058016953419
-0.0073445263009861905
0.03819166801369807
0.01586896884269905
-0.01941417615998162
0.04351169651627641
0.015508423021745226
0.10937583403704881
0.022296643564204494
-0.011290574021213163
-0.01141573773488619
7.315932555843108e-05
0.023272378135826065
0.03762679578342286
-0.01864029627547654
0.004476431054213296
0.0071414878695447844
0.026289102601641086
-0.06686804212325619
-0.017053057736001305
-0.010337586566291093
-0.0229897504575375
0.0403956247232529
-0.08338838620804882
-0.06800310804696227
0.13549911657587876
0.08120333679931292
-0.003537688295396106
-0.1107462248168091
-0.05345312222106112
0.021357643144042152
-0.016544369147292737
-0.0031557473483035917
-0.03301740391187671
-0.03162320562139394
-0.0024182398913523
-0.027691195701038722
-0.034298207601169854
0.002868529248793894
0.0006281173574532668
0.0072040268401956445
0.0549756978659959
0.04948902071365383
-0.0009991197447495111
0.06502899029021421
0.010634111841593586
0.0010451333092202676
0.056912628570828384
0.025236204632866775
-0.010096812108639183
0.011009578461335096
-0.00934721487131243
0.035126378805761374
0.03038430380628178
0.045772994338143545
-0.004062998831536021
0.0038559668761858046
-0.0685645296108806
-0.24871856456533403
-0.062210476527081025
-0.013023848092609848
-0.0068950399270364645
0.00561087219194908
-0.011432714184040219
-0.018049826716139198
0.03450477310806787
0.10184178650147525
0.016602105904009776
0.03458334524917298
-0.07114561992180164
-0.060479160320993576
0.035614909675011956
0.02270164970889499
0.08456349938554941
0.02770936518484748
-0.009332615387204838
0.0023703198727902134
0.0065492866901474605
0.002847891660175477
-0.0077995037027722295
-0.03897604224143325
0.027855242483033858
0.0501328218581789
-0.29988203478562037
-0.02987506107824231
-0.01811795345482941
0.14630762869580077
0.1155882876444093
0.01783797157575768
0.0009088552338568158
0.018329851622821774
0.0313432696705652
0.0011051323010530334
-0.048774453284368455
0.007352379722667024
-0.06493002211515934
0.018328758880451865
0.014560675970038014
-0.009800321594688254
0.020130714280735332
0.010501604028633841
-0.008192940055687185
0.0050314107506391976
0.024758632582722977
0.0014636288750753657
-0.014024092198289656
-0.02568768555293292
0.0311592009718735
0.021869571669568984
0.04842810609190823
0.01994083411444789
0.01710882394089718
0.005494439332727905
-0.0007367294448808131
-0.034751433005831896
-0.05985638078300145
-0.026472040424106995
0.0008577699038869196
-0.1279964796722471
-0.022198510435860422
0.006596123533622386
-0.025733352799980045
0.01838846426128207
0.01939188184795815
0.015579778576546315
0.04268948577906105
0.012359712254355858
0.028042228000142614
0.02077534742945005
-0.0004579185568118099
0.031182749635957154
0.022435523974461847
-0.033620170029249545
0.0060533681099755356
0.06210032344280949
-0.005318578558283839
0.017939233990291324
-0.02236070204430858
0.02629976852198315
0.03269870668831976
-0.026616954430698045
0.07329109366846365
-0.11603295085580415
-0.1539325718165629
0.002466286702686291
-0.015459430040036118
0.07811164382552194
-0.004918336812217617
-0.008971804709808495
0.027740828978277125
-0.009461192657041803
-0.010937984779497648
0.042660088523986305
-0.020124962091148925
0.020039315569124957
0.07914507799800727
0.024361553325976698
0.0004331950427617157
0.016456357192437307
-0.03405313201083287
0.05175373264335184
0.012625945054720415
-0.01273310396139155
-0.0469510899542477
-0.08130027136194815
-0.009115394712349737
-0.0065317381533313975
-0.0005008768944209925
0.020933404103661145
0.02982021563123374
-0.18707644079456912
-0.062403079224176476
0.014960500814860377
0.006647233381464739
0.02517146607896794
-0.009448872623452944
0.07792932406662054
0.05163253449109363
-0.025285842084744735
-0.004893996536802888
-0.017660998493587477
0.02734419116944105
0.02393534510780573
-0.0050024606702833724
0.0017801027399154447
-0.010603753117700048
-0.004763778230866613
-0.0010108830956481773
0.025127285430723418
0.0242416126096222
0.03408101103624395
0.0060617961827111365
-0.0040113186298571055
-0.006045604055600501
0.0012978853390751826
0.013917977312935127
-0.016407687875495253
-0.021460809676026017
-0.0030695631514460853
-0.004996451639428672
0.01862763202299252
-0.07801882021953646
-0.03025785037655405
0.030186363307078367
-0.030374499751158524
-0.004080972355007051
0.040467845129119336
0.0009836588157622179
0.009508919028607586
0.03579385194712322
-0.010765950792150794
-0.004385679899584369
0.007420234498855448
0.040154347182851
0.0092053266047805
-0.04712407092324352
-0.00038773746733899284
0.03223521211269406
0.052358647427107365
0.005941182586038192
0.01055687800845457
-0.027376289858586304
-0.000860698504426522
-0.039279256886989904
-0.10414481657698191
-0.016543889730834847
0.010191038988109753
-0.012748454163588744
-0.026918579882129236
-0.04001997347528693
0.07979853731427972
0.0856226378858543
0.03527801980292046
0.000661544617227314
-0.026120098509452162
-0.020770736117918923
0.0776067872606381
-0.017869775183412918
-0.048670712723528686
0.02738354356073017
0.019586044112159442
0.009556086878519037
-0.004725895848036051
-0.001666366180615821
-0.013783562838964158
-0.027804412250874336
-0.025523836503162953
0.0146844702579385
-0.02299913740494576
-0.08248500418151286
0.01041473894435123
-0.016539003693811852
0.04682927773306013
0.06074251600479576
-0.01695822037567831
-0.023855993909347974
-0.01659800933739463
0.013673167829692195
0.027644992016172414
0.004016923698650726
0.004238794296277689
0.023897503110307878
0.01379154814786177
0.05962448282891722
-0.02831786182610844
0.007344186441175838
0.0006759351600858134
-0.003610821947797197
-0.01871611251879615
0.0136361119110961
-0.02419916676101496
0.007109835688620495
-0.0009702163838572148
-0.016336651817961727
-0.024671111652824762
-0.03548288244938203
0.026422736544114294
-0.016737946827848207
-0.0063458045243285615
0.0020258069850346856
-0.032577952066090356
-0.039593083150541324
0.0672480309595875
0.07437438164450158
0.050513434740890185
-0.0014842576934679691
0.007487714847829116
-0.10741451212578836
-0.030870877326978075
0.024205161627175314
-0.017853447705473733
0.014882823531466539
0.0698729065882874
0.04556705499119539
-0.002875710035249674
1.2595792035777901e-05
0.00752428282114754
-0.04218667934944794
0.02385543715108285
0.004866026770314818
-0.010045603993401226
0.034753946915237595
0.03627247896803786
0.03916443104329559
0.02535089676153884
-0.013807094458730646
-0.03680078756683729
-0.05236661279911026
-0.11256185227118597
0.014644023373102813
-0.07348393403668897
-0.05806905706893129
0.036176629565389105
-0.050872342310715545
-0.02322705609512138
-0.01008566095043938
-0.0018669989178321986
0.02462487108847905
-0.018998907943259234
0.03801154666223166
0.07078238245102639
0.006482303958330829
-0.017764495913244152
0.01745955462354229
0.0044286936148256704
-0.022707640686488107
-0.03169692534364785
0.016588387695741377
0.03163223627649163
0.01696907444398532
-0.006478432594395677
-0.03987745057238236
-0.020769008416949487
-0.004573265451361267
0.01921538123296255
0.06152330887181164
0.11393968952150142
-0.04173983311499999
-0.023601965927819386
0.00042900295444904345
-0.013419227363190595
0.004660690000015243
0.09071247664416528
-0.045202161640652896
-0.019950954914349606
0.050698184909826846
-0.03629487281030946
0.0048249950326245804
0.0046964249607026245
-0.008612070685755507
-0.04618707051579737
-0.10336000008826261
0.018969720740377474
-0.037463792843680156
0.06577268706693484
0.027373707975960452
-0.054340983650823654
0.007791755340445751
-0.032302165317279447
0.02378827324869102
-0.011787676756862814
-0.028360260572353267
0.04279553239615003
0.08072506368679877
0.053017385912339184
-0.026938909322382763
0.011804755514791748
-0.0009518796043805769
-0.030559536328456493
-0.021864240104905362
-0.026416250718191172
0.004735063054258446
0.01776095911213645
-0.01929160524111469
-0.006917882484618912
-0.0010699285771841867
-0.0705732995116229
0.14019601830067444
0.12382028102601204
0.013567324225718323
0.016916485708839826
-0.01675204826464825
-0.05101752587028754
-0.05187113974580099
0.0037662462795601684
-0.020633232041056892
-0.002790356549765235
-0.02843065918031353
-0.029892967901334375
0.015180224363116859
0.028677333496091435
0.01794696810579991
-0.007803867852381804
-0.043145710948922875
-0.0012299583712940315
-0.01934422421739407
0.03285116894497047
0.0765895841990945
0.05884494637730641
0.0560229685253799
-0.022033294087912166
-0.0051910704804667175
-0.006771932344083413
-0.02096567567808081
-0.013640481542778981
-0.03622389793262562
0.00822243551777995
-0.034794065445125734
0.012638680714059304
-0.08560285757098675
-0.10470534094549697
-0.012244365144097926
-0.02083521245020609
0.0045323397604659695
0.019675374194862316
0.023614883874276894
0.02776587164706381
-0.0095558882882218
0.017939824462507768
0.023192571445728186
0.01153972321907855
0.053504186793102815
0.031450020806578084
-0.015337473321034382
0.03169528986366281
0.025930856163859872
-0.034432762094339264
-0.024516828771059023
-0.019295950312897155
0.022905425233910065
0.02194293146915129
0.0195263635047921
0.004782782391991985
-0.14296416145560883
-0.04828723786914073
-0.093424252844105
-0.040453909916511765
0.03695560322355473
0.014839279707290461
0.03359139465033819
0.027875584598531518
0.03921188951243977
-0.011437483324931776
0.028975435285695253
0.02296923903160829
-0.005969779037592923
-0.03834068309762324
0.030016483732287345
-0.1144722539743499
-0.11153403990336334
0.06469699656839563
-0.008851627952017152
0.0635785676408059
0.08584160394519029
0.02473080693119619
0.020496122784031758
-0.02039834752113441
-0.013057889680708444
0.007911784741972898
0.020793573392056258
0.0374780554284103
-0.00929387025296671
0.02158316569667584
0.013908518114364776
0.013164970666647227
0.02363366398391557
-0.005755222085337229
-0.015076669807449941
0.01618552538758667
-0.0036002976705651925
0.05378249622330393
-0.008696804194029044
-0.028528560763705108
0.01920680247805651
0.03160786412928414
0.03598220783289199
0.02744965140000154
-0.024516376973350316
-0.039204166985915986
-0.024083068898565832
0.022803394480536976
-0.009335918557563584
0.01501776602616152
-0.028417993522352455
-0.12248333024776958
-0.015015399437464633
0.0038196187967979626
0.004899174875591063
-0.025325795573577795
-0.05561539496148351
-0.000704694945098114
0.021955177498187463
-0.0007356694329226055
0.08804205388235042
0.043805178069810345
-0.02520266769759319
0.013850868234854045
-0.02776858989850189
-0.022638575980229725
-0.03505487955102267
-0.0029500826816880104
0.010622279360687995
0.07941897900600195
-0.015104835399543187
0.01521718613883962
0.0048976990439953995
-0.04845812671776084
0.05109543650225118
0.025463961796795304
-0.023444952519255758
0.04187207131465123
-0.015670590256379596
0.021756398869242657
-0.025806716077034834
-0.04041711335004986
0.017159058679951548
-0.10607745210585731
-0.0569313328617666
0.000186313013421625
-0.017542142554715784
0.012660985633179845
-0.0034809286323893808
0.11644773844375386
0.1876662011435149
-0.05350336733820536
-0.0136613310393519
-0.0029136558109363777
0.031783030519248884
0.005690762178557156
-0.022657358622372146
0.011462660388368611
-0.03392399777057379
-0.00013494805683514908
0.04850203331083158
-0.07617858576196204
-0.21063289763791115
0.013760177187830909
0.0027845842805100007
-0.08657734370842145
-0.0011353239480681677
0.11950784749503338
-0.024045365928731584
-0.0026188182018615862
0.08595959117250264
-0.05605096957601395
-0.010788617749232446
0.02921103034481637
-0.006854806291886929
0.019345154841258334
0.005946992873733811
-0.004322775833199555
-0.0029461615450746066
-0.015705995202192555
-0.021459318497185298
0.014488954339323384
0.023999197113163204
0.0403666807442185
-0.025178779956487932
-0.01715626408880496
0.026527550219863843
0.040651483002902986
-0.01046750604799596
-0.014534761925179683
-0.04016556219925643
-0.01515745220523092
-0.006427520445177054
-0.009091272015402918
0.05945038703419644
0.015966021094490513
-0.02511781598401821
-0.00477780105058654
0.016064358312701685
-0.052664868721786835
-0.030302331337713376
0.1626389915497455
0.0396103258118351
-0.024824921537531044
-0.011171864074105397
-0.017989897849689906
0.004737304972100472
0.01221775010141178
0.03980252739164546
0.015018581644285931
0.024508995634711872
0.006258194234470523
-0.029541011654794516
-0.004307686494030012
-0.0294741487693888
-0.00673127574340128
-0.034186484498656876
-0.0023957195917530152
-0.005299534500306432
-0.007677066815770848
0.006591572343549318
-0.0021171760139626515
-0.01229846124827085
0.005609544155637138
-0.0052716114292354335
-0.017717313368629486
-0.005923917892485807
-0.003264888873309872
-0.05162339579216118
0.027986415790650098
0.0391305845657433
-0.007795674234134824
-0.012071308390692304
0.004623358210622795
0.04089296768897044
0.007071475579882878
-0.014842932516212479
-0.007021745263868165
-0.004078134218774549
0.051793787534790366
-0.00438747355071233
-0.056571664211103274
-0.005606136256973144
0.013470734087224791
-0.02206703608215261
-0.008895186330235626
0.057606583950000345
0.019283134342355044
0.009351622462521705
0.01768905008367106
0.008191800512182455
-0.026471894728367883
-0.01304139785649895
-0.0242574411492832
-0.034285283587504364
0.028792302994736098
0.05348123121348295
-0.021230500211790765
-0.08274265635064498
-0.016714217799877053
-0.021104849078068453
0.0143161669297988
-0.006747691865578502
-0.040397548773748036
-0.10523978218583785
0.020318830471200467
-0.05415067247485135
-0.05526508563182307
0.06425768817600425
-0.01511834810322006
0.007311774710212195
0.025099664352341542
0.048945343313784556
-0.022753646371857405
0.11170894358823583
0.08531254659173886
-0.037887207425771195
-0.02862515578388081
0.020863892010335172
0.015852331842870507
-0.007117784366348026
0.0525323830841224
0.009677476666428741
-0.016677650027644347
0.014516014968521156
0.05293744923564097
0.00831486722228216
0.021797059547376065
-0.0003030588046436198
-0.00873933051338866
0.0005926409498089271
-0.005096479300059584
-0.0034512965559286334
0.021779760342232207
0.025504811853464437
0.0013808779197947356
0.010336091510114779
-0.025520264005116883
-0.019617005889912095
-0.02557397679833921
-0.03378924070747764
0.004503628813402392
-0.024222937807763148
-0.019392552583635307
-0.04724252455443111
-0.02182869702328623
-0.030965383444737756
0.009927148770117623
0.014095073062462656
-0.0046828838307910155
0.03489164267539711
0.031050126788120722
0.027341117645937704
0.03204370460651939
-0.008695849473998828
0.019826285111550396
0.06887716826097529
0.014348541334678402
-0.044108127956137194
-0.04533368788336328
-0.1358197705133866
-0.005867833280132488
0.009824618158809775
0.017440561694545654
-0.014687135189650844
-0.007785657783531375
0.0034341904063843252
0.01189818775624863
0.0011355323109251564
-0.006021697210019755
0.007853258990139876
0.02869739944448624
0.0230359903418917
0.00481045547147606
0.008189918090640758
0.008038297554750629
-0.004818017760766446
0.03760319712964436
0.02222511481511016
0.0022977671353154017
0.001172288367238875
-0.006179208922072523
-0.07356000859030255
0.006189473049308254
-0.029777004334797137
-0.00721642678092036
0.03435085258634832
0.06389188072285902
-0.128554947633601
-0.043497794896824704
0.022410903641818337
-0.020774867854427285
-0.006410039338537035
0.05691672894757307
0.0769334538699971
-0.012694241788751967
0.016200023859818103
0.013909801328589523
0.05717598216175786
0.03297699959754552
-0.03403687968951848
-0.002606824436821857
-0.01793603247618473
0.013220165272409615
0.023211043592060904
-0.01794477931560498
-0.017777076174244247
-0.022069286780808255
-0.09235276388441883
