0
-0.017920323748128547
0.07132074782964232
-0.023679412511984684
0.012575780917107196
-0.06398592839664798
-0.019915186600689784
0.014171905547191046
0.006628059282269044
-0.08709127989939383
-0.025728170476885154
0.06880320218411182
-0.053053885622472895
0.018496363918955643
-0.012920012595551042
-0.02157711015952072
0.0004167923419121685
0.08466206406265502
0.021901264501721526
0.0037043425187981765
-0.01413550375285424
0.0015652813810671043
-0.003463862717015246
0.012382388492632037
-0.00802103331813213
0.008640114918735587
0.025443574480824134
0.031427491803758055
0.006474124552966695
0.023824934586209056
-0.0031098720499018917
-0.018816856923370148
0.04088841520489647
-0.008469842841766323
-0.0016403813553213756
-0.025788780801581465
-0.05012530923419844
0.025389280751492643
0.019479217584983013
0.009935789815352765
-0.03961873626591102
0.04386943139899449
0.075837806799779
0.034463090598140955
-0.00935165418662533
-0.010790320914347529
-0.0028267794959091967
0.006393280341702549
-0.009886636488284483
0.0011400201784463413
-0.007835377380600602
0.03935751278442345
0.03061380635132148
-0.013531730651151853
0.004904198770477787
-0.011903062810636349
0.004929872148509328
-0.09760447090548222
-0.030224163648225028
0.027741699190990975
0.15968973884696697
-0.00459182476329498
0.0069012717303132895
0.0227517530099273
0.08011421710224118
0.007931612603302092
-0.009204550913079326
-0.03637710883274972
-0.0031721542534854387
-0.12191625537445813
-0.1450963485966669
0.04316418723487025
-0.04433636861998639
0.011491198055046678
-0.04011941439668925
-0.022460606133652205
-0.01854934865691065
0.0045617804083199695
-0.01697190967418026
-0.030407586292255925
0.037719580179829695
0.005858888466235436
-0.08569315891857372
0.029230433165211633
0.03940526138436318
0.01176789436103744
-0.0008096463527387892
-0.003558950696620967
-0.008982938754910599
-0.004859172027909436
-0.004948644424244376
-0.006423447630405734
-0.018511855467495262
-0.04579468672244536
-0.01090007847770323
0.006362639244917565
0.08533026955941814
0.08749917265973331
-0.0022644924945069873
0.013931558452604046
-0.0015685532235590845
0.025681311838550432
-0.003414695718134213
-0.01925731656926746
0.07868642312798532
0.11769709332208733
-0.01979528001097567
0.06085361308909283
0.03302599441507556
-0.05992705070664894
-0.000341189322001158
-0.015583530510510646
0.0005587553274110638
0.07998339816472201
-0.1837577172925334
-0.03596402338374357
0.081905556539635
-0.03173458024828288
0.01588387540795857
0.017754199960133086
-0.09753435991799654
0.003375960287829582
-0.03322745560110359
-0.18570352776645505
-0.01752441771532803
-0.0273387053822043
0.0012823252367484322
-0.005278848582571058
-0.014435947685013896
-0.020250311791963498
-0.033699225208946776
-0.013550541767497985
0.1738480241407118
0.10069872121952725
-0.014194572891578138
0.021888780156721025
-0.021743247814727504
-0.0030258009072430497
-0.025808658108791384
-0.0623860960131962
-0.04195746884021385
-0.015451857562771626
0.018918346921328353
0.03778299499621723
0.019674631594737545
0.047691109135847565
0.010251524411710018
-0.013848491273217675
0.040788704883000015
0.01461460338200645
-0.0102701877546279
0.0545834384188792
0.07997217614875225
-0.03475275118172573
0.007205589097287039
0.029648248201805467
0.0056238385584305
0.036324533107889495
0.02801512420508187
-0.0001813928727814306
0.03144998256899733
-0.05854923679608688
-0.043328100440081056
0.009716573993598628
-0.014348346419254173
-0.04494666879236804
-0.02135494936302987
0.029758943995404127
0.04604450304183321
-0.01790558452803042
0.02706867642426951
-0.0018190331962925112
-0.016234177260338063
0.004711003131536067
-0.051342347727134044
-0.01824000474955143
-0.03861864036976008
0.01279076284389027
0.04685929306455184
-0.06420212849595189
-0.04424415753581066
-0.004263330907762614
-0.01925354297824178
-0.0043372493565840275
-0.01844616260284128
0.01568008587803931
-0.039543562663044866
0.01794628040989759
0.0638670262736425
0.016813825895877994
0.01742721061734928
0.07952462333374131
-0.02712179315079977
-0.015444405148669644
0.031181163347204423
0.010396850960180542
-0.02294141951536414
-0.0332207612432446
-0.011629588680945538
-0.022789337472341995
0.019014171434861924
0.016492642197493128
0.09302610591483537
0.027495419539830878
-0.012831937036866158
0.03809708267131208
0.007229813788656665
-0.09038327638608212
-0.02578230902699289
-0.03492505726953423
0.0013186673098736907
0.012742596472228102
-0.1208142544836188
0.0128564903266047
-0.029861483109068287
0.05332134583640828
0.06690199765830009
0.040517406023525084
0.024375408223141753
-0.014348707201087163
-0.029461249521957746
-0.0039220667399365436
0.02684640445983762
-0.0012655940392740325
-0.04185322302052554
-0.026442258845806182
-0.10403981322351469
-0.051383014128957995
0.09228943188203369
0.05039628624792359
-0.0599412232436677
0.02240373908830905
0.00042966886134833876
-0.00755683716058187
-0.004200185731795576
0.01495289045783014
0.03291065152899687
0.06857522713394015
0.041972901611279034
-0.041464808205835195
0.017193670185789073
0.01221130878167153
-0.06082423588892968
-0.05167464216955906
-0.07168289731971828
0.030175742460900948
-0.03968459707986713
-0.016281628103216088
0.016483391424019625
-0.007739899926899361
0.03699669048037159
0.05826710163512419
0.017903840686590865
0.014953235485103094
0.019111669756279183
-0.03274435570767183
-0.002306052169044812
0.009782249836215375
0.011154654238573094
-0.01688672556742452
0.024196396590498354
-0.010851340710053269
0.04222400386157862
0.029182733177707434
-0.006870665822778842
-0.02325579276209874
-0.00015029601970849654
0.039042690274913305
-0.026094057366093524
-0.05639690957007202
0.0249668110895881
0.02361548192977895
-0.006562157252529557
-0.025853843424232237
-0.05468228730005516
-0.024074639233255535
0.011538374164626705
-0.0036206893638292123
0.03493543802225318
0.03573594407979134
0.01163795807008949
0.024731018092666812
0.03117825755881915
-0.008742889125734139
0.0053605116697526285
0.01831562310492319
-0.034320880127706316
-0.03155483901047542
-0.02287134020580652
0.02038042804123708
0.07968784372706395
-0.029099101650198838
-0.03787474686335121
-0.030839941318952686
0.0012674968412472471
0.004254690627814933
-0.02124659710000571
-0.018738895372379303
0.05751379259661625
0.0002359245382356677
0.01731646887054203
0.024892137005675805
0.030300641157210935
0.028330439389709108
-0.05668726069597481
-0.004859159504223457
0.019004415905135748
0.00916467015859686
-0.02823904351325964
-0.003926710582843698
-0.05184641637006701
0.006793055086400118
0.02680603042694953
0.008995922326337013
0.0020691836684704756
0.0019280709149668387
-0.019586114081612694
-0.01676848969199059
0.008479671744146829
-0.007436765237652969
-0.01567191676562509
0.027790921821311897
-0.01250483907369994
-0.08083434003206103
-0.01634485735974027
-0.016345175058553065
0.013344557484632036
0.04703847037842035
-0.15007035695118232
-0.023513923155070223
-0.04734867892132639
0.018708220420005174
0.013324229240431317
-0.00912725022008384
0.02719215101138921
-0.010571099196953001
0.009031884887966656
0.043735152963620065
0.1347015016695511
0.01306690798338547
-0.012370088239175875
0.010424889198023375
0.009947452921797096
-0.01463930638128562
0.06418774851558894
0.010811267420658776
-0.006987060495956594
-0.019293368111423456
0.02784825631655266
0.028342270491304163
0.016978541486984633
-0.0296969716111002
-0.021719800047250232
-0.05884325177421882
-0.03444886786987919
-0.02814428059496615
0.037079257642868166
-0.08275742302159261
-0.10542100352935857
-0.01221669609641904
0.013847496616860838
0.13561649744882576
0.050680104771327325
-0.05439737084261864
-0.018534516805038606
-0.029030567258233973
0.17252781043590237
-0.06475499328673824
-0.09998696601536237
-0.015525447699760789
0.06469917028106432
0.1562753890554552
-0.045519745244777185
0.01268428022608739
-0.06535628676791304
0.07880438294947315
-0.10732046604645121
-0.13512777875156268
-0.049919803799507625
0.2162349360294098
0.17943935774099465
-0.0494505928297055
-0.0835669945080057
0.015073744836695562
0.1276342834152952
-0.008909030199430908
0.0021869739917172713
-0.011853734576383794
0.009181062054968901
-0.001414038351726145
0.025359220653592
0.0034316236635942745
-0.013804106099224564
-0.01679366449020056
-0.02587714080527938
-0.03115807222315882
-0.11907957438767677
-0.020297572336552678
-0.03632477057007
0.007910130967942373
-0.0051259875443780455
0.004720194930809239
0.015456368874730272
0.05432197975504407
0.025870941544545313
-0.04340248897796498
0.0498797069668662
-0.0064523219776507655
-0.02146421911073414
-0.027096575432164753
-0.033498933112378275
-0.011227613391925306
-0.011632908706471282
0.007252689238553303
-0.023650718147060917
0.09771751543470523
0.16729939684463335
-0.062496648332684555
-0.038569361566619775
-0.0021123471134992565
-0.018463503719907296
-0.021039095113889746
0.016449891973218465
-0.026739162652884594
-0.01596541890817261
-0.0020680342787477973
0.02154747987780302
0.018599170734661778
-0.003601084468006103
-0.042573773776804005
-0.024386819975200414
0.019832774829720762
0.004343227328004118
0.011188793997351884
0.019421621579828675
0.0068036683413576805
-0.01579434079943355
-0.014107240630537383
0.02734471882436439
-0.018127586309027055
-0.023561840472008367
-0.0063114389992213775
-0.018478935786879373
-0.02646466417667714
0.015651530537240613
-0.01431951677559841
0.024359650982561296
-0.01653900444804024
-0.015763405907120054
-0.03931187370543165
-0.02811805372304832
-0.03595647732592656
-0.0004916399728481718
0.07283918609748523
0.0527668744028256
0.041985356204097726
-0.021378522764345747
0.014216245993532663
0.01707231306781807
-0.010088717970622772
0.008566460661441861
0.03881836174813785
0.013257121552052786
-0.0007622330266528896
0.004136091027193852
-0.061212738888423684
0.056956409994637885
0.08691520601104155
0.0323294381415834
0.027871312457723188
0.02734736736981682
-0.08364745390758542
-0.011195920128907307
-0.04142052785582816
-0.03260604500562907
0.03716448806470257
-0.16446658423240937
-0.025872456389065258
0.03407531750020363
-0.10252053776676472
-0.014052034750101961
0.025150257979674018
-0.04221881419548759
-0.016553679186373974
0.017430498471851553
0.021312568118356363
-0.02167074493513424
-0.00664641721701083
-0.0038372919775449877
-0.006723805959884041
0.03874596291383105
0.0177285606470516
-0.01300109451621017
-0.007892640229615078
0.008279244268920651
0.007418520702372564
-0.01056522357772188
0.04884256271752877
0.20612543877833822
0.03068191135505367
-0.032590305608616
-0.005933841383840875
0.02296361961060859
0.025195613374749223
0.046847919723328926
-0.03072915615875226
0.04459029394733192
0.02181022504657238
-0.029682964664635426
0.006017076258124598
0.018303181324341396
0.011255891636679607
-0.005815644738212272
0.006793891422401344
-0.003941531655357561
-0.0004572478904814213
-0.035995019238802474
-0.03834745517705296
-0.09332598984699673
-0.028333039251082916
0.030380652387076504
-0.03928675443769141
-0.02170293083964318
0.005124771813970623
-0.029555032704361953
-0.054478937222593816
0.004527077696612369
0.014369579779792072
0.07359196449345516
0.03409866699506181
-0.0599675604114666
0.01294019217802585
-0.028341350712361324
-0.0020513988762171434
-0.025244545989068036
0.02679104811398414
0.02866947631462138
0.08517745331586321
-0.07124612084952976
-0.026613840074842833
-0.0019308051698193652
-0.005953992078576877
-0.047704386554893875
0.0024174360472777254
-0.0038021483685468623
-0.00018347759335827354
-0.012882739522733064
-0.005997597182447966
0.006538438898217856
0.03184092955258394
-0.024215841197371465
0.06126578972239744
0.06456905132653752
-0.018827114575960518
-0.010637940104849974
-0.04235003709529287
-0.006988746366147981
0.014718424177923886
-0.05226728470182572
0.032579096512858716
0.051812220428851426
-0.047671638142631166
0.006029054728480429
0.010562416119530784
0.0012149020816110295
0.005587477556702725
0.03063013722111783
0.013363712015551673
0.007867859053901428
0.0018088623103442118
-0.007345128713861482
0.01347648786390748
-0.008581826737374003
-0.027134177193016886
-0.025789827135501743
-0.017588102482299195
-0.023303302420490817
-0.09489920125318536
0.10877745568352958
0.11699061988008325
-0.047977137667350254
-0.028043849636851022
-0.02399838040001063
0.01989333532083367
-0.015709022115227952
0.017773196518322973
-0.006527645091743664
-0.02375257816992578
-0.041713414413321034
-0.021243160260987947
-0.016193383736941173
0.028088965702676386
-0.00795770076436566
0.011048812003757196
-0.020383208158468467
0.03933745057573612
-0.002200950383746885
-0.026130813794732456
0.024091636315474885
0.006339218668638092
-0.014089211798767154
0.006058806079407267
-0.026945453945773704
0.024872472661699997
0.11506226977624401
-0.0029394285477271176
0.006464464315418725
0.0039341718771762355
0.04683679647657423
-0.032316567084377516
0.05497293012067686
0.09942610176014409
-0.032526981257585394
-0.010387506458097434
-0.07000816772294728
-0.056306794596583186
-0.004695528557448001
-0.009503763442039584
0.0006937473644531287
-0.006519613422101257
-0.031787204944506334
-0.04285841651068868
-0.021966197034539975
-0.03431366507478476
-0.04812217507971725
0.04423316317633308
0.007520999610493156
0.008158004289333469
0.013713164828540658
-0.01898949481400999
-0.036730984367454506
0.036464808866578144
0.04653110513356476
0.04848671591340116
0.004621229357143591
-0.006151709965970859
0.0330296876166262
-0.012211637753957616
0.009363977919318454
-0.01634875244901151
-0.008000549592656267
0.007096544811409749
0.0007080579805424783
0.06450856817441872
0.031556494468359196
-0.009817442410281702
0.05515763758595901
0.006496605414030673
0.02807380459566485
-0.03852122089535196
0.0734571826438996
0.024242848439985764
-0.054755632491767126
-0.021297215677534127
-0.018457267770788547
0.009665205797185291
-0.014852218189262615
0.027407696081538244
0.012350582260097331
-0.0007365350225254308
-0.011774816940217486
0.03979503692252404
0.019227955881159876
-0.04457961983138283
-0.013404842855828233
-0.004220150418690027
0.025886162277226194
-0.04128472228577195
-0.008385426316441099
-0.010799632729200715
-0.14364065423409741
-0.06746722513785619
-0.04314667475503548
-0.04646706534020226
-0.10227091147314932
0.014789705166113476
0.014337775096081775
-0.012544510934681887
0.03651852480169169
-0.0234799317444492
0.03676927833598292
0.030695895022975546
0.004090063365579319
0.02849928265273464
-0.004830898851252086
0.0012000862388519794
0.028508421208911876
0.015258628986891782
-0.030648684035749295
-0.05716447886577773
0.024030335784427016
0.0020004770181776175
-0.0265114428219331
0.025054627538514028
0.04744423391725953
0.005930416971945
-0.01878220635002955
-0.0004396853733203527
0.0864025987738715
0.03397796341075122
-0.018943537216945243
-0.011201670292816228
-0.011967826161166808
-0.006370272590199907
-0.015953561422140095
0.08825228398831393
-0.000388176551719489
-0.010360213958441309
-0.09040362034440062
-0.06641593042117194
0.14112370471655164
0.08819169196671262
0.020927037661438993
0.034047092623239204
-0.030982196700911388
0.026652362518418855
-0.052054135950812694
0.017283157879006673
-0.050387036198293475
-0.12729526645811332
0.07146042535445439
0.0013489561640715206
0.041744647757098095
0.026053359141784013
-0.044335932177590166
-0.010502468001739295
-0.01655150412851396
-0.03914085484940013
0.030716198615057984
0.055309570392149114
-0.03527969820070745
-0.02225715297055855
0.05467756568251642
0.007450350748652124
-0.045880655699318096
0.014895223691185707
0.060006759040263875
-0.020119420007439277
-0.026422998624557065
-0.010904748528751345
2.1198131867471897e-05
-0.023562198921158198
0.008253675896426641
-0.06404166890008055
0.017683618396174137
0.017885251631929423
0.13511764549797559
0.10744762161989357
0.003070791368168848
0.00860928131972983
-0.004765743294921222
-0.09566097075343191
-0.17254819653360484
-0.011414363328795833
0.022009562707495055
-0.01401795573060211
0.02323966072275327
0.047990802892201825
-0.004583821427299595
-0.013255411631264218
-0.011070610014066808
-0.006749896725932156
-0.036383528838071146
0.019400390672313517
0.04384665996241184
-0.016963530803208907
-0.02094487294100094
-0.0014506650791935706
-0.02482354988736046
0.017394119387763477
0.023346414405228402
0.0036929151760863566
-0.009391769911288666
-0.027270382729780777
0.008753824777095931
0.013899451454303222
-0.026317991418404994
0.011410131324545146
-0.045703639470771086
-0.043480360899091304
0.02202638796152595
0.027376817032663352
0.04525030121242014
0.025755827084233216
0.05001865080521739
0.022801306993091606
0.01967538933590707
-0.012934676702470364
-0.013231497101538373
0.003941010176664247
-0.011439618189472934
-0.02945739550571811
-0.02695656065287
-0.010943528568593918
-0.016063965227974042
0.024630224307207897
-0.01180721346877603
0.07741379366181769
-0.025595080779855384
-0.014663679147208867
-0.02103593465343952
0.0080503064449646
0.015676475461365885
0.006569083531859288
-0.021832581110014855
0.026044609403704694
-0.0018225367003222243
-0.016892974538724667
-0.005303521521406799
0.03656837584315098
-0.006521774150463196
-0.04432415024325732
0.003181612714996404
0.006174155581036657
-0.028814664851940567
0.02036679944627938
0.014111973025478805
-0.03634686810735088
-0.001126682454960217
-0.0005615035617850371
-0.05213919785027233
-0.017793234624721956
0.04218086549446515
0.018546198739432824
0.008068224021099156
-0.023402537882603505
0.014507544996680576
-0.014376739915559052
0.02419579600807825
0.046667415550855885
0.007656293114883632
-0.03670762625992783
0.01555315507464165
-0.014697736200462184
-0.008490077930984802
0.09358869632174883
0.03274071064998613
-0.05613932165843787
-0.0013440412031985247
0.006016221327426756
-0.002221977064681571
0.007015136273403331
0.05314849783395036
-0.018272673788754076
-0.0019028781861536437
0.05507927172684765
0.05437301772288913
-0.010804025749029066
-0.07094981294510974
0.006873948765193283
0.010567750725923548
-0.023075148825300294
0.054351088752036716
-0.015561601825522615
0.017231996562659092
-0.18407113840948208
-0.042056788145947856
0.004870164683212737
-0.19228065593485366
-0.025940003149472046
0.0101647750619582
0.03056959845060405
0.009247692858111537
0.04814700514600407
-0.03959819230225427
0.015305579240232037
0.02991098208910068
0.022959958742950076
0.042050704898811
-0.00026754792185436057
-0.02647587268370629
0.045270500025124644
-0.08040461195894323
-0.038078226794624616
0.08501490532128639
-0.00922353667770534
0.06077358188746299
0.034335932951620435
0.044017382568271854
0.07720919348346014
-0.006388744864194782
0.03339044326782828
0.004650272622702673
0.010035839374889645
-0.013547084863954504
0.012904822579562427
-0.016583663612238203
0.0030746338319923515
0.013337910727264719
0.009863722998929434
-0.014798863801984759
-0.006663804866629075
0.004988470250592367
-0.011577680257417953
-0.0013028996936943068
0.020633179552023203
-0.09781169621957782
-0.048771512031500326
-0.002619582489291824
-0.004514254607953707
-0.01589299117125257
0.04664500129848983
0.020166502236367227
0.009540639796913336
0.014585077378302974
0.033434945496794266
0.038530732753802255
-0.006126480943855479
0.010070887398883965
-0.02047655950715072
0.016763760146195125
0.0234429615256691
0.08179244466067252
-0.07654741690618447
-0.13337189055520188
-0.03392805308288409
0.010802818234168524
0.003271185618047871
0.007948727216945095
-0.011080594474425482
-0.03134530224579182
-0.010183896949722599
0.04163600607936524
-0.07932823362191242
-0.08799492448178464
-0.002784485694545343
-0.017384381307762344
0.009880463053515254
-0.024591257429034393
-0.0027128427923717646
0.011349248772744987
-0.002104408461630862
0.004670273361044722
0.05710919553745484
0.055207280912562474
-0.003077150728078805
-0.0006921986727924532
0.022350704646316173
0.0024069961116248146
0.011245840507154202
0.013539259859276231
-0.008900973144302795
0.022162144646673626
-0.015627063321750286
-0.02613892383549768
0.01533367727416528
0.009200288394696705
-0.0039620134628762516
0.018723598103708827
-0.028148335937824297
-0.018885341030770164
0.013584053401246386
-0.023482003793690465
0.00646167747383002
0.03301731824237802
-0.08229618197323031
-0.04955501432750874
-0.0073492873322301795
0.022191578025152165
0.1291365569798323
0.0340837960355365
-0.002236265006248016
0.08829339172887458
0.1162367479887343
-0.01289856537138258
-0.0021142075881708045
-0.031931532653411275
-0.003981759445256926
-0.0018148352139624642
0.0048551097629084905
-0.006137012110503933
-0.02734211902453306
0.003636880889189029
0.020173101438949303
0.009089061905325081
-0.01564036851889222
-0.0037134579085314552
0.006978404018257786
-0.030007544031095304
0.010823244763085476
0.0004512268201426578
-0.03834390922729714
-0.03980604818973094
0.013381115604846042
0.002268587179997851
-0.008518998367391754
-0.0407190560669737
-0.013075209842039122
-0.059844612313520326
0.03743317017275331
0.018503696114097135
0.0064957587538723325
-0.04798500250440923
-0.0022522280421885246
0.02728968464919065
-0.04883069839937396
0.008639755406145866
0.046327947721859046
-0.009895044175488489
-0.027082667240669236
-0.019804649822132172
0.012287444620919538
-0.021806346374971867
0.013269776507019906
-0.021536562111570026
0.034788090221007616
0.024428594599033106
-0.00039274775140199036
-0.0288970708675552
-0.026438446274501502
-0.015480876776933942
0.012636106432844768
0.02690611576924047
0.035761551805498566
0.020936953319498592
-0.0236298986270503
-0.020572714170310005
0.005584759295046731
-0.003391468702089544
0.06523675375808038
-0.007859583101431878
-0.004721524409873309
0.04789386562247797
0.03722527173032656
0.005292987035468365
-0.007171974426331721
-0.0707713161542513
0.01609141104054071
0.025632598545657213
-0.036450529881405416
0.01686165851083954
-0.001003646660254532
-0.03163805294504553
-0.02235834697898986
0.005274170066336003
-0.009190539783243704
0.05280832378352602
0.019309907486905947
-0.031056526139364885
0.016729903940999297
0.018982061129420698
0.019390468993423095
-0.10567608595355593
-0.0460081118954039
0.00971577382055931
0.02626451627966333
0.013827601090266014
0.0028471813124755435
-0.02588027632060937
-0.007723449267727942
0.03408437072212069
0.019454249898594934
0.016366074892984913
-0.004187228264490349
0.032967353441227906
-0.04169337738042217
0.0314298819624197
-0.05553427085795825
-0.17931841333202794
0.01599781492759101
0.0037751958636175944
-0.002636982523548942
-0.05683104372978398
0.10449605023413766
0.21213814671396103
0.0018812698730373387
-0.009208561854701309
-0.013173705835867602
-0.005230962525734562
0.05122737995914447
0.018339767732217415
-0.02456166656318066
-0.02070812314505906
0.03856446748310671
0.017911562709009364
-0.06534169095506812
-0.1015773868526727
0.009314532479045456
-0.01914653434839829
0.02123213253966998
0.04306916500042078
0.030936755421731566
0.018915656418380743
-0.00169142268795681
-0.05164498152061175
-0.04106046810571902
-0.001450731852165
-0.012980400308854688
-0.029835504185418346
-0.03201631751454084
0.046856904157340354
-0.021128417640082373
-0.012554512854522078
0.018979806863024057
0.0019199935280106528
0.0008184275043370973
-0.003465147302282324
0.03710872364133313
-0.008876529045814012
0.007156652877359069
-0.0531478363312715
0.019147111956091332
0.057166127363021596
-0.018177039361034927
0.005787996796329625
-0.017771979055489596
0.008152091274464918
-0.028614152170080766
-0.02256056260587657
-0.003914572558007899
0.02634976729507244
0.00838975465224256
-0.013036513717748336
0.017388259838402708
-0.011629111274571164
0.01949746748726623
0.03383661452354677
-0.030412085234137926
-0.0036621458323347054
0.030887870565039145
-0.006310635663160664
-0.005662075178323502
0.013051650665410334
-0.022233816565608105
0.013077260655980782
-0.002624683478854587
0.026677792046329436
0.05023839829372149
0.060399439130693566
-0.023353150063391226
0.013062183652094926
-0.026299359022944207
0.008766409290659935
0.02456746603601444
-0.04922083897849674
0.008783071095296755
0.028368944398001535
0.004453615817625283
-0.024295313808741368
-0.015114519198772231
0.02063135573086524
-0.0448338330294051
-0.024411563560006764
-0.025965080447139237
-0.027328538541424734
0.024612715140937734
-0.0007313955101560379
-0.009697938711281185
-0.012390686812212257
0.013965038416252277
0.007470801712250644
0.027777749839388993
0.0030459886930473035
0.010433479268341256
-0.002850825961157106
0.0313818576086114
0.02227365098017637
0.022111824457953733
0.004695376679414053
0.04795610702039269
0.04109594317695392
-0.021208556654968767
-0.0036288755816940117
-0.016625262617495418
-0.010582845488267842
-0.04122437930669467
-0.00045046066043116453
0.03600652344451998
-0.0819503113159461
-0.19121229807005316
-0.09056149464254644
0.040999838990949014
0.03151472466004751
0.027913334224890736
-0.024549008197685778
-0.021705595831798048
0.014403104885135359
0.025582166566826655
-0.0620626620638297
0.02137950484523965
0.006815827116632719
0.07512682646103341
-0.0005783928868890797
-0.015253785031717948
-0.0049711465851271525
0.08288737710481114
0.008633648192629616
-0.0023346101411356535
-0.03845305679865628
0.017756998144964214
-0.05031959009965271
0.1376040943880648
0.08885270218231614
-0.011538104503567558
-0.02764170258721256
-0.08930512061920198
0.03631812474554941
-0.004186480118281962
-0.015289290840196482
-0.0001335644059807694
0.0683760472322004
0.07317909721732146
0.015501155920201367
-0.0018496015336095695
0.002482817175039447
0.0032352523241657586
-0.021617973133438412
-0.025588959179392783
-0.025038261737873057
-0.07598635713857214
-0.051755444322479485
-0.04045599121914088
0.01103631922077273
-0.03163976000885158
-0.010047892131481993
0.002760420259374955
-0.026905653037732232
-0.05830216977565057
0.011544532534988026
-0.019478866482671157
0.08910017619255345
0.03149828571699445
-0.02914354283560835
0.007428203063271048
0.015412110789002297
-0.026270051927647305
-0.016913679148168687
-0.032126786715820914
0.12186578142446698
0.08289694276244075
-0.0373291448810877
0.018648597707770446
0.012618781625443956
-0.018269261871203687
-0.04276435858798008
0.009315535899906852
0.004658177136426509
-0.0018057319480063202
-0.05488687319866242
0.015717196119694365
0.04464212163989315
2.29051368449435e-06
-0.020664999372896405
0.013302713398378121
0.004828682305511848
0.03480467269769776
0.02604321763356454
0.021729417585415425
0.048738733987233336
0.009284932294345924
0.009289977180911438
0.019788872522790973
-0.03399088581066054
0.026071815691595984
-0.08746724846316209
-0.08364892517108458
-0.03249034998611586
-0.04253927095162829
0.021649846709342457
-0.004587947180618486
-0.008517977161090077
-0.0036161624521176996
0.0028808982559247773
0.02782225657479741
0.04587550720104982
-0.013247437857016564
0.004210389195355969
0.0008006997332558231
-0.020718258154917128
-0.0053534707675915736
-0.029171179017517774
-0.005526641524151917
0.018201167453459222
0.012802156570475278
0.0032565320265180464
-0.0119799057634855
-0.042396751735887
0.027031602273121152
0.011486313384059794
-0.03590425707169544
0.01972903738086384
0.03445732561443647
0.05933473627303408
-0.011984289497613912
-0.03090976195403997
0.01683129896360268
-0.025470957771396577
-0.03418454137920636
0.022244872048083272
0.013521259578953731
-0.00420711803077553
-0.0010340780582303382
0.003449950860024588
-0.004612856977969317
-0.007457640461810307
0.007593425839108569
-0.005943339632634048
0.004959181224784214
-0.0011866230500633262
-0.010953285070844214
-0.01705406272205851
0.0466631284928167
0.02620671268665609
0.007836655648863398
0.027197789291490658
-0.045142366843001096
-0.05587682084235782
0.044771417801422256
-0.035286509777315844
-0.028430709847539173
0.032885961016341114
0.0001358085247916195
-0.012575864053218784
-0.01883288388035261
0.014123028750916124
0.01307310789420343
0.005909395211509311
0.03208389994801349
0.00869708154946102
0.007856886202277976
0.02109122944020452
0.01451663652474989
0.040538297628294355
-0.01426811750774803
-0.01372099822635931
-0.026477519845971034
-0.004695510588371019
-0.0008310058970738827
-0.018180953078631767
0.003150477288850525
0.01775847674174192
0.0021884019562137856
0.029531667909538966
0.02924959601526831
0.020693139535582772
0.009129400994441516
-0.0204010879094434
-0.0006919743637672481
-0.009941601059240999
-0.013728813662692274
-0.011595462991038072
0.022934664699725577
-0.015496643415098007
-0.040697884786341766
-0.05885845961154468
0.0204725638205453
0.036267701494132845
0.032051203880381525
-0.13010041497896108
-0.017355528444024288
0.03374704273074934
0.009608818336716115
-0.02077803699656577
0.024635254954715368
0.023326448205020802
-0.0160312400734928
0.016083426742563557
0.023369674064365433
0.042432422230468426
-0.04206038613991196
0.005480347308070887
-0.058193443822817284
-0.009282164556680511
-0.018642612715664957
-0.03154588052972138
-0.003237073830206022
0.024275855382935207
0.02825848309528445
0.006491114294275146
-0.03761877084532839
0.004843449697984194
0.02517807766180593
-0.025330087049261228
-0.0007345909035094477
-0.008659081543289168
-0.05009695825009131
-0.04532529010145484
-0.05320577323683261
0.03599137678265291
0.04213224126247549
0.03728585686091646
0.04819354541281542
0.04625503637118156
0.012171074030469383
0.0008326440283221496
0.0206687199616402
0.027193983618970952
0.008525791051414705
0.008534279532877734
0.047507178416953386
0.00461122219050618
-0.05100325976620141
0.014802790211216972
0.08158861296838794
-0.016152032098021546
-0.012033540202692272
0.004278031396506627
-0.025717976915291554
-0.11342037404765606
0.005563976225089116
0.0019297218212527036
0.012971481722745487
-0.016063220041315898
-0.029110022272275594
-0.032704043745764654
0.0007405974251647066
-0.02285972783059035
0.02735169574266489
0.02349598810993327
-0.01370572791031009
-0.006889180957791188
0.015054589109192369
-0.04494705123588161
-0.04000231957693867
0.03974976998109581
0.004224497784656082
-0.02207633427823353
0.02682270885916214
0.0017524894836440244
-0.016881557177141234
-0.02570178526417017
0.010942680404738923
-0.007483173519158902
-0.0018563902163918058
-0.01920789094699696
-0.002063861235328195
0.15413048085989
0.04683093953741901
0.0066859091464139975
-0.022864517690463496
-0.013498894913857714
-0.0070532790332384085
-0.037861682887195394
-0.01096012334104989
-0.0034642049676867066
0.023073494121372218
0.025740130168576653
-0.0024504527047043687
-0.006367911464269794
0.1500352942390697
-0.013883586931855882
0.0029754295176859067
0.01638647521438846
-0.010729190749195653
-0.02510445304823188
0.005635636419461925
-0.006105818024386323
0.026262123920087747
-0.0010773185762824034
0.018772469200340314
-0.038499699624682235
0.014320500636206056
-0.046589326269235856
0.010535474332377462
-0.018463362054404305
0.011296683886164371
-0.008754620484824628
-0.14445522482851852
0.013984751346700382
-0.0582145435801978
-0.03737386682433196
0.0442842401724538
0.010194778776401684
-0.014121973118079494
0.06167734378480144
-0.024503675372842936
-0.013505911255787277
-0.038516765324304585
-0.022384947025986816
0.011523469172498033
0.036342958007333954
0.00033220695847639844
0.016141056868429832
-0.016637725777805232
-0.011251397780549706
0.02653928708276273
-0.01062075440588232
-0.017335912118076266
-0.007255331075480007
-0.020334531015769233
-0.017488915630231215
-0.012440318438745497
-0.015510196094897358
0.09574671591507354
0.0062412374558018175
-0.012984190339122487
-0.038672115411018476
0.06038545478584115
-0.003489230594607496
-0.030238342585003873
-0.056613865958073786
0.13116618439194735
0.25654359884330746
-0.033456982589820716
-0.01846009493234789
0.0030147999342545204
-0.018439009985076766
-0.1082507506782908
0.023837192022584226
-0.023700770544908097
-0.03970061690233555
