0
-0.021082185514246277
0.01829065058915663
-0.03347914255101274
-0.01268163660809165
0.007520958178089404
0.01203520666582076
0.04717527251296557
0.027806110301950546
-0.0045811183694313634
0.015540442432975818
0.027476641500962597
-0.017161454005175505
0.03444630797806005
0.014157601854690472
-0.0287717568154479
-0.023126082790610944
-0.011949809268973956
-0.03265649403350032
-0.014829578517467211
0.018306269718890027
-0.00039997210379200636
0.017280106482952296
0.0010989226857246372
-0.015640745025160045
0.02351286685582277
0.025298495879077548
0.010893501821945286
0.015953391322376737
-0.027223159403090176
-0.022820904096788594
-0.031284506708946266
-0.01576282642704138
-0.027138262200907846
0.011160858258065367
-0.0028115418111187445
-0.021892953568314152
-0.018788192006344528
0.048951366190921664
0.045043777952121326
-0.026702275781600754
-0.00880156038603917
0.011981326940107154
-0.02958711005421407
0.02516298794431846
-0.019076433656570493
-0.011712074809561943
0.10307122432135771
0.01091723841357267
0.057745406987161414
-0.005442546499832554
-0.038004438771978795
0.027035342535483595
-0.022542448422994958
-0.03331612919422277
-0.06931434828188346
-0.07692654148631402
-0.01673820090474533
0.11627403281984312
-0.04033714518343518
-0.0687926166469609
-0.03480171392443038
-0.043416275601265104
0.04126362159184526
-0.028953631560878608
-0.009188358487427996
0.056313776631644205
0.013550846319308585
0.046065726035272016
0.07958353755983955
-0.01984405231421006
0.048261110888236584
0.017297275783548196
0.01824335173890113
-0.046377099126156826
0.0005335856067225914
-0.01780444614312433
-0.008936726192727463
-0.03499581866737586
-0.006730556810649852
-0.02698721283062778
-0.01055725417709399
-0.001967418679234581
0.007807408781070361
0.0975924696769947
0.08935013889730065
0.07277531240755368
-0.03596813683212954
-0.0014695856843915808
-0.0397413470176375
-0.005926881248689623
-0.007466222304669801
0.005319064944987852
-0.017780322559350886
-0.005528589064749179
0.01438895865576636
-0.02631760654586727
-0.016984949886607776
-0.027412730713795047
-0.034820887526632864
-0.08348411315292731
-0.01878666861827701
0.001056994925027459
0.08108484416248235
0.009600832962020628
0.03654560499728304
-0.006994184576240466
-0.03479599988811688
0.007952015499820317
0.04062705303844173
-0.0558963078719954
-0.051408254837451525
0.029987564532687427
0.04592777992178422
0.024106621201138972
0.17009755416699687
0.02260717997055026
-0.011156439065062631
-0.03717462661242802
-0.09940701895824057
-0.03910487717946888
0.11066165496520879
0.04369195188695009
0.005461407422761657
0.01137676643310055
-0.015025892163371145
-0.03352278001903365
-0.07353916003342825
-0.027602229629601568
0.027954736268911207
-0.009543431865512948
0.027544232195526566
-0.02012041509087145
-0.01300079933410728
0.023488419420959247
-0.003421055373396477
-0.03178828436564016
-0.029705897518895883
-0.023163394575741854
-0.011492428312797905
0.023919045269244113
-0.010188262443370644
-0.03521992513524408
-0.0022327422321950017
0.0063976408979473905
-0.008691622158182546
0.0030354758432744595
-0.01233089559796142
0.016013388220608042
-0.020214404110023555
-0.00689266986439635
0.01628271934788996
-0.027267082300208394
0.0029850147706606328
0.020373547113112168
-0.01813918603660894
0.012768592824752253
-0.020028859487989367
-0.01920931215332132
-0.013411734272102372
-0.023064294514187535
-0.0006179137365352602
-0.011961586857978539
-0.004990129240264928
0.0492950175246257
0.07759693606690017
0.0046101341608340285
0.0028282371655884977
0.01476054232762088
0.050749930165277686
-0.027354373766505412
-0.013022355303140777
-0.04845669413700053
0.06625088328987143
0.025995497247833687
-0.028676893020730086
0.000550276579743803
-0.02041673772354228
-0.03529330732680025
-0.03525664650859768
-0.0267801832797466
0.02804505692181563
-0.01058960416789959
0.02251072667408129
-0.002877555937493533
-0.0012672378982514084
0.030033436217107207
0.007335967616444945
-0.00287929681649036
0.04125281647344677
0.003872429612741612
-0.0024729837553028942
-0.00907248950146496
-0.021730160831193397
-0.018930107574009036
0.08942185865494075
-0.0664949591389765
-0.05003076485852966
0.043699923398224844
-0.0313496358938825
0.006530311389092144
0.0059245769634808385
0.05972100391294153
0.007165722785405245
-0.018544787094756182
0.017489427866207535
-0.005474647253495802
0.04995280719050887
0.14412465549299416
-0.026779970864217014
0.028629960311483838
0.0007325864834635766
0.0005794662734817141
-0.013353521114955282
-0.011724416700352609
-0.008671317317660047
-0.11198827082801775
-0.03067433077395802
-0.05684471072057975
0.01080251897031643
-0.011259293781284024
-0.09426444355385516
0.057643688470402084
0.052074229561295725
-0.0035502858163755278
0.018278102207402027
-0.031122914079538138
0.0003705824177340258
-0.05303447272625034
0.016366085454816843
0.030632549643736542
0.0036170559414155346
-0.017360067741676626
0.01103549275300906
-0.026692832033648285
0.004636321181984556
-0.008409230365185944
0.004582707361665217
0.05720924703464034
-0.00885772809498988
0.013257971209058965
-0.03499640469200154
0.017032463614809725
0.04139802129939814
0.04279769394207577
0.02159921137680183
-0.006483867536025665
0.025256154549171076
0.0336213238411011
-0.0035321235666871498
0.0459085352607007
0.024762466080333074
-0.02575574558748947
0.024665625279807687
0.009815487943755617
-0.030066338092290423
-0.08336397283765608
-0.12899218815366234
-0.04407760236514149
0.0012472037765261003
-0.03413446762512114
-0.0758716056634822
-0.04790227492867106
0.14845780934953706
0.01473854171190663
-0.00014273950236676656
-0.013740389152611821
0.01320573338870592
-0.027231398016470787
-0.006501898682955881
0.01732118472777715
-0.008975755606646266
-0.009914765073203395
0.04297449935838685
-0.004193784302800163
0.010429372181391797
-0.0013975856787993332
-0.005345440991183553
-0.07701994539028903
-0.09944607012343311
0.005454770100235103
0.0148504762298726
-0.006178668541684521
0.017813258799078035
0.0026324064351188324
-0.0029317049111375073
0.029145613255851677
0.11799297604338976
0.001566954593005772
0.025508104092573484
-0.014077673345999681
-0.033758619904046425
0.04848040339821141
-0.01158476441830314
0.082750579228386
0.056488189851833175
0.04325669933635908
0.017594615202077404
-0.058372131756507385
-0.030723849374761986
0.03749846101201526
0.024245138889594696
-0.015175239800744807
-0.002867143114679599
0.043611944570031286
0.002404941679547721
-0.03798581770709258
-0.007913095424933927
0.03832059922403543
-0.10275991172458647
-0.02057654138216123
-0.040339429009507044
-0.10504105200166283
-0.018919295350456205
-0.00680329181431282
-0.04440093306040139
-0.000634596754582096
-0.006861946752908307
0.01121536031713205
-0.005547326148572987
0.007539930634948241
0.08090004821190455
0.10077027759850649
0.06861304539535502
-0.03504480576203174
0.0054529100361041605
-0.0010984334206788396
0.006258265398834422
-0.03138518519414602
0.04617650320522581
0.2072230028697982
-0.011661641074518957
0.0019413916082682474
0.0011128694673614246
0.027815125576806383
-0.027252629786603873
0.0021034565596850215
-0.0994346114964294
-0.12212591477244361
-0.05521175315102731
-0.04931722862123193
0.044662490698617004
0.015297099370062734
0.011152517464804093
-0.008924525416328856
-0.032486533525462886
-0.026851915213202952
0.029455110235975704
-0.011458830905014594
-0.02361630731438166
0.009355970226591766
-0.00771208954693964
-0.012396031916822913
0.0075114238636453294
0.021160240052359433
0.024885658491432233
-0.016222403044851896
-0.010092795488557554
0.005714202132484531
-0.021928721614306125
0.010041390455780473
-0.0015962827258346295
-0.05073533315994282
0.04261967969962451
-0.026242502639024515
-0.013708925860871838
0.041324319321696536
0.05550263623804761
-0.006982369857996451
0.0030932550340693555
0.026402152027047692
0.0068450452959587784
-0.004125390943109924
0.004468759875107115
0.0016961095516373976
-0.052750242548247867
0.0015183688599859995
0.015175823068600491
-0.002357441550649733
-0.0006635764527304724
-0.024533563774017875
0.03027683140041061
-0.023738239574355807
-0.03048198163312532
0.050398883430094785
0.012117464070061815
-0.03799303582491353
-0.029192605734834835
-0.002733163445379828
-0.005551064334601296
0.026146594365619807
-0.0686438969165403
-0.03937408186819222
-0.014117598447737533
0.12305269432905934
0.05811687045248864
-0.020281638792654943
0.008443103406855824
0.0033677660158152804
-0.032258396744074075
-0.005532323598850952
0.022535075374904595
-0.026379365293910505
-0.014657694638518593
-0.011795983006092149
-0.009683901612407819
0.00941161630178622
-0.006140340946442362
-0.04670664911134342
0.007655717423122172
0.004139358423984183
0.04277464565890826
-0.017409075899139214
0.018340726874687564
-0.033736740557747856
-0.016124004547085763
-0.02991333644393356
0.12233169449496803
0.016359007718516772
0.018064278888160326
-0.02708917077518151
0.08685004482536578
0.027270801505102176
-0.044373174995907746
0.0527214777324528
0.00609085632935544
0.0031303291586569906
0.006698341234870693
0.02710674106844219
-0.007259361544972261
-0.05721396262218471
-0.022752772580404625
0.015578364361307084
0.01933686223433157
0.0028249031860903277
-0.00849031598146242
0.012057971958066847
-0.017794713036819114
-0.023485922507733046
-0.022453721113698574
-0.011375013077125165
0.04012230953729997
-0.018306677937561223
-0.03188803159559325
-0.004279471697844979
0.022019265927088496
-0.05499311918092251
-0.010394311432510798
0.009945458417982878
-0.008146964890327766
0.018835057789513773
0.0008654305833924215
-0.02045239771312807
-0.021105245237450748
0.04646396539265746
0.00509322331324079
0.029350897485155365
-0.014842060950136812
0.032185857776609525
0.013015478559133603
0.006724220010169378
-0.014622833408240363
-0.04264357204114039
0.023559114730331294
0.004561441118178423
-0.016681116496626795
0.024655512630025384
-0.032806274864811275
-0.0411504814659581
0.01313052194401606
0.011602490190634987
0.005550141172374623
0.007413455348432585
0.0026715294867769163
-0.020741482386151158
-0.035069300020813515
-0.02660462159633745
-0.016339708611912834
-0.043378461512194884
0.009837451330307716
0.02396168742026723
0.011454479714925702
0.039092351178031406
0.1088632820141214
0.003711660225957864
-0.03331647460420295
-0.05004489333058749
0.03772920570665052
0.013567443031062536
-0.03394926342251283
0.014352132689810837
0.04054203961653122
-0.04047220533636498
-0.025971078554970297
-0.0060714321354840214
-0.05631373783471797
-0.058716660872198886
0.011683249891398698
-0.03237210321686579
-0.025601685589915924
0.016475092926403152
0.03941989838999835
-0.017666579379417447
0.022336576960508236
0.04682121090074024
-0.023787336550909397
-0.004317863412307997
0.003944109626538854
0.020013268709411506
0.0070100114455045
-0.0026405376521813247
0.002485873479878841
0.009529642877460665
0.0013233811226878286
0.01668222341110824
0.07175815046909796
-0.008603386184883221
-0.005611808743275245
0.01665491549373524
-0.01892519726364875
-0.025621978176203538
0.035579956352706575
0.030738608896111904
0.01090027744885371
-0.0007225388602989912
0.006620281698169111
0.014812138735418449
-0.05891275255819227
-0.03501517360086291
0.06573179334745205
0.0045856729832963
-0.021324228015335463
-0.00343460840841462
0.020739252373418383
0.022435354443401168
-0.006229080603590908
-0.026507955844525092
-0.013152438936208143
-0.0006645099694002935
0.008790093000625606
-0.039771691192263495
0.009445117783711598
-0.01346808969802337
0.0008739213378608885
0.001113190305206123
-0.013986427469349102
-0.020956392997279846
0.004950608494133145
-0.013459149137034596
-0.006058638583219996
-0.015074538481871399
-0.00257219496734672
0.020424607712632475
0.008579833011849801
0.0022499168778114267
0.007958779102599746
0.08196185685665847
0.018957128571572373
0.005243133112243721
0.00908531615417743
-0.00841917986641083
0.008509384045571843
0.05148109300484887
0.042637132879517405
0.006684607805683662
-0.05484628041343162
-0.06036777354942907
-0.003294648558588739
-1.2171171471920924e-05
-0.06108771537102433
-0.10051601887365036
0.04129071956053387
-0.051862447777910964
0.05140243199001633
-0.03045446695448001
-0.1193057306531439
0.040117488243755675
-0.029576337753850785
-0.031136673003159792
0.08840178105467496
0.09820256469806272
-0.02161393770706547
-0.004777414509570898
0.016201044339282312
-0.012361230517779001
0.06129947287058052
0.005739627925978241
-0.02040550510756219
-0.02966085319059782
-0.0229482499874719
-0.05638400460811528
0.03687445100419378
0.07895036900567327
-0.09538447605288276
-0.09633334218607698
0.08238907764098473
-0.07682638181128743
-0.0675610419437002
0.003891450994377317
0.07305179508556497
0.16974715300399534
-0.009703827273075989
-0.001209883918531567
-0.0008130056229288309
0.042384590691795496
-0.03732360110919463
0.0013905369763289226
0.10936289529019702
0.01173230971318255
0.022081687785124007
-0.011235538594778719
0.0017960403666900473
0.01000230877084611
-0.042528892629065555
-0.009952575239712205
0.03988147565516271
0.04879659023168124
0.0075213850327793446
0.01875486752414198
-0.025385950081907686
-0.004560403636856043
-0.006125619035894482
-0.027902612336858815
-0.15511545906005098
-0.02826803259890963
0.051137116366021786
-0.036692256804642824
-0.03184042647164243
-0.0036736769351535877
0.01213538829532377
0.06102542191815535
-0.0066811123532549985
-0.06464934294804262
-0.010265877120143698
0.00919035515692263
0.0063221457495278195
-0.0012253969285311581
0.024328888533243456
0.07256425635161863
0.01103793087749623
-0.03640951959057111
0.02224534257654259
-0.01396531543721193
0.0073894807515445995
-0.013254624364990995
0.05035772015865598
-0.029123209785213003
-0.2350396319883853
0.01381600076796755
0.006442469117132397
0.09705927763369063
0.050380657197107874
0.0024346207160265386
-0.07797351354483222
-0.08375480646924284
0.0008770560559256035
0.01969980903974682
0.014072138612109762
0.014517649228353746
-0.0024762241700587596
0.03228094099422744
0.04734732085714084
-0.00418416358019279
0.005814767909140974
0.00948281072497605
-0.016130982483909304
0.0026441566233155805
-0.010790759771954248
0.06744614437319411
0.11506448727214784
0.09806929617086158
0.07366108844164665
-0.004949669646183563
0.003721207905734812
-0.04724337802018649
-0.01534128840645352
-0.014769262078718383
-0.05728729733770573
-0.08070145090535555
-0.017593767063520803
0.022347219329474054
-0.002273662911995905
0.019267077082608147
0.00836256200395415
-0.029828932001752247
0.034438982361075926
-0.09094536729207423
-0.06513926510463712
0.020129308192763012
-0.0037365465002834218
-0.031932243702453206
-0.015738395371447635
0.00611794294149896
-0.034087721512929395
-0.003820833098568863
0.06776248132720573
0.09400003112059802
0.0015497716449494612
-0.026334779185384998
0.00501128158564947
0.006912749735209058
-0.0003792098010131173
-0.009492721726600527
0.039734535242436024
0.006775857865133663
-0.014008501897577954
-0.01150792440656772
-0.002474681440962232
0.04167822630997137
-0.005279467128451541
-0.04833187263085263
0.0650702802710852
-0.030020059145972455
0.009221269432198113
-0.03802858753839005
-0.04129696459539082
0.008675498799779347
0.006976643095005458
0.002217155764199127
-0.07727546021894963
0.02140144519681075
0.03626653433856477
-0.07616858319540841
-0.015582286735772806
0.035803889148332414
-0.008472680335242838
0.015573879536273995
0.03970705209084542
0.10939846996738936
-0.03496383948642266
0.05438910708105385
0.015915306155622293
-0.010564242640999824
-0.02383019184479706
-0.03390586818916592
-0.056107568361872674
-0.11357903480085245
0.013970257871506228
-0.0018548686644508261
-0.021615088096154023
-0.013020911060170837
0.017835387607204357
0.0067619831850576
0.05805187675699625
0.007351210142445781
0.042757977647877685
-0.12846964032631542
0.05019333608950819
0.04156995117168823
-0.011800383799656347
0.01122301866641226
0.0013183309385728795
0.006184646287188562
-0.0013165520982815766
-0.015144808276820361
-0.009613900181774469
0.03542986004326101
-0.004881554315315758
0.01710060095761671
0.01585320798057138
0.0007150351602168428
-0.003296670494494565
0.023469328325421094
0.01422183762767871
0.004625882961785297
-0.006143102445905001
0.025019928728377376
0.01335464235675803
-0.01063216946755115
-0.017141491924674283
-0.006194014372895634
-0.034604469406884164
0.009371489171245272
0.003424796690954453
-0.03071155824289368
-0.007639564580936294
0.01987323051764341
0.02172062256730751
-0.032820931297929797
-0.022996471492618208
0.02507029876715515
0.02493076926546981
0.015279791861632752
-0.018894269960648313
-0.006556548618226875
0.05144612127163348
0.04593939358342857
0.10093264423551766
0.022902815042243223
-0.03311720467573172
-0.006860164907926538
-0.004844760980775182
-0.029550272738725396
-0.010878062309193396
-0.05318134437832758
-0.15933669090404973
-0.004334970852915544
-0.009925156481255184
0.021921374557893496
0.0015584401038081074
-0.011642019149276272
0.021467883729812665
0.07109589106591355
-0.05877427174743428
0.009223736144411028
0.009795015008462069
0.006575682058527408
0.036945265087348855
0.0017490236390328524
0.006557312166536392
-0.10053139188218492
-0.04991490325841093
-0.003605765729016703
0.058435484140360275
0.0071519075154313555
-0.028786228222119375
0.032167847956356854
0.011487102425985338
-0.04422398125775523
-0.03943176618341282
0.02241036676916013
-0.011936331330329153
0.03010090904144043
0.03687994947059486
-0.022449123946544088
-0.007847894386127695
0.05953985045682234
0.023129577596434376
0.024279146638690057
-0.026138762287745164
7.81418702734769e-06
0.01629841238489868
-0.009329591786835446
0.03364818428220144
-0.002217977582954597
-0.00655963355048691
0.009438732222064566
0.032063467320015596
-0.010328894574951286
0.0184726009988045
0.004901989123053827
-0.03371480637305731
0.05578778229545574
-0.01369988313539281
0.0015950874161108394
-0.030829947240661636
0.02934026708440973
0.019652765793253396
0.007728513346279383
0.014359334810752637
0.004336562574241455
0.01583046210257571
0.03376508501030876
-0.004139806975092278
-0.005821551256328436
-0.021166424460981242
-0.02500821584774343
0.017840256570246998
0.006474626198398871
-0.032674140096335305
-0.02287283074312255
-0.10702594634840756
-0.13587530863125594
0.019949000448373846
-0.026415283002022866
0.02538458202923627
-0.05509803998637724
-0.0019791406451838403
0.016598124085227785
0.007813479120324228
0.007695089346504866
0.018717219285545025
0.03461776957492709
0.07630892448752562
-0.04092403603171887
-0.005190141993936015
0.025146415782291202
0.019285962870208735
-0.010540711807931098
0.02999398922459533
0.006259932108149024
-0.022002609302219516
0.04173808942775391
0.018154968554239478
-0.012009589389670911
0.0025454941733094203
-0.01580585737699824
-0.02960082349814924
-0.0034212238967614075
-0.04762835824643692
-0.012595315535815327
-0.0056863647424565435
0.024019316697912175
-0.02612139540301181
0.006300999637728957
-0.0019322218825042804
-0.0025755757645945696
0.021116195661707155
-0.007010434593548644
0.0467238736369431
-0.004832871797444369
-0.02422267429097257
-0.012158018332600736
0.011420549602134846
-0.019081578422458178
0.01722388497635805
-0.009927825564386783
-0.023242592583226307
0.03215306794672214
-0.007598441395697542
-0.02169272448336225
-0.007818042516914816
0.009301742592726021
0.06680711520376911
-0.038016809319222335
0.015272132903525863
0.03928480994420933
-0.038884335729793135
-0.011833064079907016
0.003152731412438253
-0.0025014604335482156
-0.021271639252103847
-0.0007079972174469473
0.018297003557322937
0.01300199417552493
-0.007532314684825328
0.05368800132664282
0.03349869301780534
0.027829507267605667
0.06691621476067797
-0.019263907413868676
0.025704973637740706
0.013479741202925725
-0.012890673805289424
-0.002740510632718129
-0.003991617258046395
-0.013849281668181479
0.02824078696792794
0.027169435468454073
0.0114961189443692
0.014156211408307617
-0.005104072529667613
-0.04773709017391598
-0.020846773328727728
-0.009884316982151859
-0.007140345220248338
0.01569650354741602
0.02681864929606182
-0.0021039438677612396
-0.011356248306233014
0.015300936036305154
-0.010051998888993443
-0.005715311706147113
-0.06563962331538628
-0.08976528306336602
-0.010056852279809179
-0.009399345624203201
0.08980862356070517
-0.11928096849315561
-0.17784145656831918
0.03282102467896128
-0.022685324870847855
0.050017952639819514
-0.01801159412104384
0.006657795684950631
0.02909082490134415
0.008508627124350365
0.0015139552653246136
0.06990224587280054
0.04216894647221662
0.014235582839368188
0.03036081676670788
0.07657916345873125
-0.0089225351526725
0.02650633131335044
-0.006063008457900143
-0.055941052416506466
-0.04229941693573529
-0.022649692213707516
-0.050801219490892696
-0.036850929068084314
0.029048185478214347
-0.013572150608615084
-0.022439527748028005
0.03870898069418962
0.005459294974289779
0.034693658733023484
0.11797509876206316
0.01665920081182063
0.0029539038295879733
-0.12921042427171378
-0.13742890694943896
0.027816103724901745
-0.02823568775111401
0.07735284227233681
0.10088476282126849
-0.010338037041633852
-0.03133268106480769
0.039356407943008626
0.012363539604663042
-0.004372922123587072
0.15503272950494687
-0.011683652350552371
-0.020341085400797352
-0.0374209132325818
-0.023315112688234593
-0.012926095189019679
-0.004723883716793979
-0.06704298909858922
0.0019736088119666215
-0.021395674859905782
-0.012251919015068571
0.0018577815643106438
-0.05566639015812248
0.0028016109973814846
0.0005247369283738071
-0.029533964956701464
0.014309096182295065
0.038796827888786155
-0.022522184364520813
0.0772428465846718
0.0821422106098797
-0.04361983992310222
0.00960736433755179
-0.021874474934929437
-0.036248213000565556
0.011126183222749728
0.03160669912539233
-0.015769790677183097
-0.033213488927787915
-0.024131029912548677
0.055433098654294084
0.001958382577828684
0.030180111746372237
-0.028399037588932245
0.010897317105621735
-0.1581962229755937
0.06725066430291705
0.05999286251080173
-0.04039798312488656
0.024675539912192276
-0.03638542488081177
-0.034510202777205665
0.004911001481629719
0.03622322733832114
-0.0148544598085576
0.003763215913811761
-0.022183215767759397
-0.028276922869201526
0.029700584418675097
0.16656425595450217
-0.03223005713550631
0.01164130952734949
-0.05403992650992841
0.06880565737814967
-0.048063839722204627
0.1596498343333788
-0.011516313699880204
-0.1303067580597605
0.03397519096259572
0.0037036410509904438
0.010907099910803927
0.011802266636350244
-0.010898998805666351
-0.05631069096918696
0.04294341724113506
0.048564944893871066
0.016113193711485712
0.0018375764301724546
-0.04333965423617301
0.008461563819814106
-0.03903540551279702
0.003077383321614792
-0.025625610921906183
-0.036638265010555136
-0.019423810366378923
0.00206860323428655
0.00255611955541127
-0.017476054084747204
-0.026360021412838483
0.01042611006472866
0.019729495084433783
0.056852561829530156
0.03306259924697428
0.008873268282780655
-0.006197398461270956
0.052953707112479154
-0.03317629493638918
-0.096567979253435
0.02123551621222583
0.00017615982093953318
0.03939655939725793
0.012836551017151034
-0.050568407559240434
0.01393798313352728
0.032252268246970715
0.00514044406526659
-0.03628054526261126
0.02062583943181883
-0.0198773127397696
-0.08067696745115371
0.012257113330161672
-0.03178980391732635
0.057555698277844375
0.05383860931749217
-0.0136341909195624
0.02411422992034119
0.024378587155145168
-0.06771102289112339
0.03300886125677013
0.0007915081323820785
-0.0005498040728522611
-0.011409420716411382
0.0319250133088887
0.024463286688262476
-0.01907260473780063
-0.06434685092290783
-0.029912966733103785
-0.07783889200356316
0.023308774794879934
-0.008488718995777947
0.0010274105444649467
-0.01678964499339476
-0.03158868275874579
-0.016220970774433116
0.02330794826048889
0.037000928673543265
-0.004234037543015348
-0.04103924008628645
0.033252298042554904
0.02922126953135672
-0.0030434088931919645
-0.006179860684896679
-0.023089098275973313
-0.007426759009838365
0.10186305454544052
-0.032648309200287454
0.082160148005316
0.01770509833241243
-0.009562721407783597
0.019570582890143746
-0.025850897529394835
0.004036278667915639
-0.0008867468626420948
-0.007137381284490217
-0.01695197812588854
0.008860449172120784
0.014065984962943949
-0.006120619585576855
-0.15100697325569434
-0.029829724488468705
-0.008236953270711993
-0.016939618526305582
0.007363492760765828
-0.00993730307874786
-0.026885236024406796
0.023594010020411255
0.014657414324020436
0.0003702877798307995
0.0070441427889208754
0.016952842287275637
0.14831785183558005
0.04340558052514087
0.05540088361447544
0.013490348446845378
-0.04449485352140226
0.030069596507646543
0.0033209138650467287
0.0013139890389884672
-0.06902127460470671
-0.023174547945254795
0.036386927143584234
-0.015512867134028947
0.07321529429548783
0.005710055002274612
-0.014254323871901325
0.013468662730841132
0.057878090437036914
0.02034313792840447
-0.042548897517239656
-0.12067546485559968
0.015808840410037998
0.016121353615626687
0.03033262238233937
-0.0026117344139114608
-0.047055326932682766
-0.005436840729884561
0.011316357452943708
0.0006609760220037166
0.007333761568594331
0.016100674731395898
0.035928889388172215
0.004999590512939214
0.06858360913752468
-0.010616404437311159
0.043025609713334745
-0.0770837130866145
-0.12701232664871193
-0.044232530333222476
0.008372505148465614
0.08065650377799022
-0.0821221384678513
-0.011943176899785343
0.043295545471609
0.03408134544623226
0.028351144181452386
-0.04047013395039043
0.009462384101406181
0.004878710891575861
-0.0730297891797338
0.012007597004461674
0.004287440864796888
0.006772943079623444
0.05725405437410114
-0.13380910183184322
-0.1172336881610562
0.017238782270323688
-0.036833167365840164
-0.077697427111873
0.00016875706577113486
0.05731653766361279
0.14129105798498415
0.04782261018457415
-0.03452466037537294
-0.0036262306484010176
-0.0821808265412381
-0.012216321149998046
0.035012717383824006
0.025675283499877074
0.029193990159016973
0.015007167889310754
-0.010055180712868565
0.046906654160125766
-0.0017889747752620716
0.013211226018497196
0.023521065778127428
-0.016059551068418845
-0.025882039892021456
-0.025484185144061446
0.10686773137870477
0.025859825661185734
-0.014901643831049652
0.007645423234087557
0.034002154013378035
0.03901785008147809
-0.10799960243856889
-0.07275346232884493
-0.007307133930906469
-0.0009722457225526428
0.01450162407925433
-0.02261260806349163
-0.009964472753766431
0.026635013901132182
0.16176901416099876
0.013209423720107562
-0.018747534067150812
-0.029938996212039465
-0.023376446369152554
-0.01006189778255019
-0.03479440755295221
0.02526367061876402
-0.019426708290707587
0.0003342917050376849
0.012397383599937242
-0.03354191762626632
-0.01940921170185886
0.0061030759466331325
0.0005511569289818692
-0.03384845759778541
0.028397662521100788
-0.025725814896318727
0.01016423652057728
0.01345418257996631
-0.01896286328977173
-0.0031517158700727775
-0.03041115985545928
0.006679583948407133
0.02033318014325275
0.04554086754148654
0.012442281851657827
-0.015704336510600974
0.04412686064554866
0.10193220841999658
-0.006586340358010686
-0.0019338186549580246
0.020747906442713446
-0.009005255726198003
-0.006358546797028498
-0.020409599969534654
-0.08005189433883124
-0.007998868510817431
0.015342621122391537
0.021069593843397346
-0.05383770378529627
-0.017544403259606475
0.009772690310056776
-0.005214024719610871
-0.022766415671619095
0.014748436118050394
0.01669671069713679
-0.011066614903733419
-0.024144637453331022
-0.015140538732616194
-0.06933835864998732
0.0045191158520446
0.01621655164140853
0.03359792933562184
-0.04587609296514105
0.006274775461656352
0.12770137701656445
0.012899550000916075
-0.004326268929078891
-0.01915265367630412
-0.018897679853687368
0.041276415749245926
-0.0560712444725652
0.020487317305797833
0.01283779586225657
-0.013649710128802605
0.05002867781687966
0.055685253345248334
0.018339471709452073
-0.03248552565560868
0.026346562153230595
0.03169347315521366
0.010725320624583087
-5.579362943393583e-05
-0.07709717351980708
0.025160096207199844
0.04837827473461336
-0.007256008352750325
-0.009272112639665278
-0.03431707532154268
-0.02394876013633414
0.01792402771988958
-0.06673945170603911
-0.07000194982141154
0.06981123206740644
-0.03377854535205326
0.003543358698990332
-0.024099198817803515
0.02502157178992306
0.00699666347217734
0.005202842559211352
-0.04720135799083998
-0.02150571930692899
-0.012513175503677412
-0.003972695078706407
-0.02599818479578958
-0.004745622261132417
0.0035422507957561943
0.0822371143929246
0.025754561037848057
0.015583950675823736
0.0038863127066287714
-0.006475869431883285
-0.05334006431172256
-0.030434916411232648
-0.014963696099317723
0.004110283099708748
-0.022490329182922195
-0.07742524901749123
0.04891331782732418
0.05452602646677603
0.045281939259813296
0.06087096765506129
-0.018708627929007553
0.0007711587783291019
-0.017642013006733622
0.024151669812969064
-0.0007398028450271258
-0.053001867209653525
0.004981871699720116
-0.025820036031974653
-0.029870843600209723
-0.0030299691724635903
0.01039148744311514
0.0008604836131654888
0.013871373685805318
0.025891087840727887
0.017567152857718826
0.01781142913141146
0.024201800928858826
-0.012369466865819068
0.004894637647294538
-0.02015531169075655
0.024103810368321866
0.03231047273577606
0.010685044895892153
0.0010840378751724284
0.043653994127283775
0.09507120602372422
0.03109448117992028
-0.07229370090729328
-0.14975988338215918
-0.011925423355455036
0.005129319019549022
-0.03593169703696174
-0.006537881635795395
0.014240967994473596
0.014649520816657512
-0.002466694765887513
0.013046931028766851
0.05890368536191781
0.011207380105901344
-0.13253913272966555
0.032361358726875206
0.0006540496406328194
-0.01690618841439792
0.00959970553836433
0.05580124943388361
-0.0010316184596700479
9.143607067242035e-05
0.006899441755599914
-0.024966399615183217
0.005986186833068595
-0.01287628530913791
-0.010418616458988193
0.00041758411534527845
-0.0068061277262681024
-0.03595083970521606
-0.014973864449396228
-0.014020634185979933
-0.04338122380515351
-0.005665703074704812
0.027198934641240884
-0.014447723931695454
-0.034755461254645424
0.02148053455216005
0.020241982406415684
0.0361504628280526
-0.0033581157971015723
0.018521654869880638
0.03575687627288326
-0.02179702279554053
-0.005228431811660003
-0.04439774710211326
0.06558663360443696
0.06321824592733696
-0.06977564520968295
-0.015822283907971982
-0.051024033752808
0.04308395762537465
0.03095486611927752
0.0592622091138561
-0.007413666115274327
0.01626071324148679
0.034155953699148034
0.03401277959665685
-0.011333512383555252
0.030857921114977583
-0.03872424571616695
-0.03197191553599399
-0.0030588886712580644
-0.06856216798438225
-0.04612606065404665
0.09705600186433579
-0.0001570043150598579
-0.006166644554623853
-0.04238374380785581
0.059462219611759896
0.09515431432005406
-0.0320493403540686
-0.052654578199335667
-0.03470636416516079
-0.051141578865051905
-0.015415540095268453
-0.010291230456342523
0.01829112078813962
-0.031898865481061044
0.05614697577511182
0.002648714235978173
-0.10106733908822726
0.016612986797046363
0.007493167958486716
0.005644756471941903
-0.07080822472068751
0.03948644095661996
0.007043744278181228
0.08620610892002198
0.03320932528129049
0.03931582962182275
0.015801622294276868
-0.024637106413103103
0.05452431496492152
-0.0217221528922253
0.14063840529303762
0.01358685965641579
-0.052823893817402004
-0.04682996241838081
0.037914453289384545
-0.0750965860610468
-0.15823366127857513
0.02051572557639151
0.0633122533984822
-0.022916253178361948
0.030976405205084528
0.08320059990962021
-0.013669237856660778
-0.014445901860578337
-0.04244974104699889
