0
0.004455153219438121
0.028665699169009025
0.0004225757873057332
0.004291250984275147
0.0087167414852443
0.0011035624339281842
0.0008715331684808431
-0.02380102985457491
-0.04456620574369857
-0.04589246980133215
-0.07011536494856904
0.0003924584918458788
-0.0034004837441357102
0.018706978466446745
0.036945288824050064
-0.012991293589031476
-0.08959604303641172
-0.017743520688190947
-0.00013203405885594895
-0.030277775762892593
-0.016676360233642346
0.019639095492703568
-0.027908889543797975
0.009699524229825675
-0.14741961699521747
-0.08922872269879377
-0.007131772372130184
0.07688319375337377
0.1524391134325273
-0.052964453570677555
0.03083794506759412
0.02407391879351955
0.028845732019652272
0.04062214905870783
0.029403259042169536
0.0005291310237796077
-0.000780277082765381
-0.01794968609751654
-0.06673302495724873
0.011555130993732971
-0.017647161113026756
-0.058808693623819
0.014268834821806287
0.01337780087247329
-0.010048646727336281
0.14108073862451717
0.055588958949630084
0.02287012875216234
0.0031070843221791826
0.015560965817427178
-0.018352308601850748
-0.0014981471414289714
0.025613115103003833
-0.009277838903800437
0.009902949665206743
-0.002748461427392065
-0.013094850137310004
-0.0160593771716657
-0.02220269086470529
-0.03424379343223387
-0.017416291688558336
-0.017401242673531936
0.0053362575934603786
0.05948200470356938
0.02218783522744081
-0.02481638876729952
0.02367141943528589
-0.15090698330905622
-0.05359518452176491
0.024015387003752605
-0.005944694717196171
0.018138613390203437
0.060852962219107666
-0.006306286967865008
0.010241440758413203
-0.04020422284015347
0.04332803213504585
0.06541175128349648
0.004663650592031204
0.09167809665167707
-0.04400463441176385
-0.060523828971739725
-0.01669918637907386
0.002391090277632009
0.07453359444517808
0.022946380624365298
0.031185649680199313
0.022813148063770175
-0.0534623581298886
-0.017094127664728835
-0.0313783431622926
0.00043584916076775364
-0.030281363524617872
-0.04258849888936174
-0.04886112749600276
-0.11372784941611319
-0.014962142858247299
0.013543662359955098
-0.00833015738703035
0.03468558970208453
0.022337675633065424
-0.011768551461433354
0.003195932836969486
0.019350800407502217
-0.0292307627580698
0.011347523127683674
0.021342320992495053
0.0031557998863370497
-0.019690070290619498
0.12487753452945037
0.07028438088957377
-0.051695269335567506
0.03734792291964837
-0.014004096595946203
-0.01942131445993616
-0.0716768016064355
0.006674758339972444
0.003001993769028677
0.027101139791541533
-0.005542906428329296
-0.029495923143056754
-0.04506984446543192
0.02524291495307557
-0.029557847883359398
0.05192496832212916
0.022533037021843463
0.048289802155103714
-0.006094552366128055
-0.059108280124691014
-0.013990024296429876
0.033956846409901695
0.08608947328791611
-0.02782310452207293
-0.02018434260951592
-0.0012010630047123757
-0.02507612746594858
0.0036006032627458532
0.021006367270614733
-0.09478231639436613
-0.001481251221175586
-0.0009853329441183148
0.0023918958320262537
-0.01691339046302364
-0.008370145595999114
0.00879603423820975
-0.022775005540780817
-0.03995294749182176
-0.1136044971143076
0.1140000705453993
0.0987430629611392
-0.03673322833353394
-0.029163837116497594
-0.05792628156966573
0.22732582203863802
0.10237799778292361
-0.02665690289451266
-0.025609882310244112
-0.007268443784804202
0.020620108976335084
-0.01936682682579547
0.03921547487467987
0.02979662734241409
-0.03559191824161008
-0.03807312600103915
0.0056876729157554744
-0.02135021512751454
-0.023085787725725497
0.002126515852444009
-0.010337173128496843
-0.00641150059710155
0.0030774967008245497
-0.010455735457223315
-0.03556495501933396
0.03465590726169853
-0.01580170115222844
0.043467930084087315
0.01249862256933145
-0.01867103362691501
-0.02118497749691912
0.01395869319480103
-0.019467229502718668
-0.035132458338423496
-0.016991466908727843
-0.041740534404962
0.02972951804811564
-0.014189450862323316
-0.012694071238956564
-0.00807774852095376
0.0011379551090065583
-0.03800111178174404
-0.014770015785155499
-0.0048674161407238625
-0.012401234259368373
-0.02123005443308341
-0.0013899920958134638
0.024684866811123723
5.369499106533173e-05
0.0360842946798501
0.0339712069886371
0.033340471335586847
0.0094946772827833
0.047228335235989204
0.012875910150747846
-0.02026243436212783
0.03655882450199429
0.03592770972812802
0.02680607481728699
0.008375724291196833
-0.006724928897466684
-0.007745973647723174
-0.011933775327655645
-0.015983545012165725
0.002382899319611035
-0.010801051280547673
-0.018115482557615737
-0.04470177983299265
-0.02014679214241873
0.0076359168095772294
0.01976032311054403
0.00920024513648528
0.019884724073945065
0.01634400552044158
-0.0031702119550255136
-0.01587461404472794
-0.036167917404250204
-0.16434852960458957
0.054267967374896975
0.06997446848325019
0.023788233630391207
0.0027971522823292882
-0.012522657956921653
-0.010535520974078616
-0.004803448468524899
-0.038944781015037906
0.042966410535935834
-0.020489649570586743
0.023153189722821946
-0.00140282962661442
0.006555016893475423
0.002242366919713403
0.04127256824179078
-0.030511981930564556
-0.07855153382382228
0.0037462937101569323
-0.012433382113297203
-0.012324063374248666
-0.025301859503074956
-0.025074153944663502
0.01954050899751301
0.02094920651948412
0.01410190577813208
-0.012666887895844033
-0.010413205652424928
0.04438922444658866
-0.01809410790706097
-0.013992296100361276
0.0601994509505669
0.0701607827831927
-0.013072552464905428
0.017003944855942213
0.017935291566796133
0.002147150300700203
-0.008831564784137469
0.01926302486610571
0.032232583493385106
-0.016352503106033863
0.008143121970273934
0.00954777434858579
-0.023655711345056975
0.006967579185823687
-0.02202130670354539
-0.018985448642061968
-0.04379853927545613
0.031667912665010345
0.043689218068896134
-0.009070119193877804
0.020068362280525772
0.022284190896910815
0.03163092652848448
0.04816953185885891
0.022806396119690597
-0.0016494777696931223
0.04620930743964784
0.015991512433107664
-0.04183314510249161
0.004880982209921727
-0.14949828735631324
-0.03551802188865944
-0.0024612702385079775
0.03750559723705941
-0.005844714163637922
-0.016161375668998817
-0.14514702634769036
-0.09158763016169338
0.0013067821358037656
-0.006404510696058894
0.0162014526821117
-0.012495318282898408
-0.043539049599005925
0.038815609102651534
0.09459621331268586
0.016550579972215252
-0.014939552811545357
-0.0053963315820685885
-0.012088431391514083
0.000773818881176921
-0.013094661371922618
-0.0023058941225666267
0.012339245596010713
-0.0010472949631438486
0.0055071261981680065
-0.01825306277466528
0.022723665464324097
0.015985920821671704
0.009183931943595883
0.013381595576150774
0.04686393958556023
-0.03973315439003804
-0.04736667939599449
0.15867423701222777
0.011195962476747288
-0.013254088180926054
0.008767265912319857
-0.009435897599253491
0.037239686630658075
0.012592801759505385
-0.007142053464828722
-0.08812550808613226
-0.01564171384000471
0.006322445130499701
-0.023489153656429125
-0.009414731152133371
0.04710881051098786
0.03299095371593293
-0.03301660077753473
0.0459945052407833
0.049475713775904206
-0.0017981567918266027
-0.02063165103163914
0.007294357930616784
-0.0367181348317068
-0.002187902859512186
-0.010981952678291261
-0.03350455033427109
-0.0002582478386298828
0.00380857833970559
-0.01911516030226921
0.03480220019557611
0.009410814670042202
0.021422442231511272
-0.003112691324669745
0.04200821024038348
0.016823677973131314
0.03697297102369706
0.013772909046986841
0.011745396685309002
0.009238389949968572
0.009773151624229818
-0.007520179289394229
-0.020005549602669443
-0.040955813429095565
-0.01022479825505237
-0.005371829815349166
-0.013508689514523223
-0.11379294797615074
-0.10513887146519638
-0.007124709562290064
0.01172584511113067
0.05330690202530127
0.005982027903607858
0.006674319309314513
-0.004899951878010792
-0.0032426996876698797
-0.008913997511623594
-0.020522348776531252
-0.0013302017112423066
-0.012380594460268105
0.03389011446112795
0.00826616817166624
0.012388133632398065
0.008967726760785253
0.022453970007306655
-0.014988089663190738
0.01662657511353266
0.14761622716738398
-0.03973522797724483
-0.052932183207846255
0.048485328001026055
0.003989376285371287
0.02270398424267848
-0.04412584434572073
-0.10939674755454364
0.01196617336651607
-0.018135158417552904
0.027368549980653318
-0.02081653452272786
0.01002481980497883
-0.01146686685507923
-0.016660385956891018
-0.0143809708669905
0.06808997853073703
0.013961297513663689
-0.0366271804281686
-0.025317981936880424
0.038945565534453164
-0.0306183639101229
-0.07648338432530763
-0.004059188402581035
-0.12561931313067437
-0.062170899303216356
0.008168272538323041
-0.0010680498354357702
-0.02610945746895157
-0.003356252419642666
-0.05648332533661068
0.023202317714562177
0.06043850981591763
0.011245098217396967
-0.005553594238488527
0.18196174732403914
0.19979452212055598
-0.009557296132949773
0.014170310114709275
-0.050072156212834965
-0.007882188510511656
0.0010060267570768504
0.006265462460150289
0.08169171162987945
0.016372808288641127
-0.003154246667673212
0.014389124461254559
0.1410662121673569
-0.005170964763535699
-0.036680425451800426
-0.016797051262237867
0.009098884543508452
0.01413117636966757
-0.002105395896324763
0.0034211880716900627
0.018074602688007053
-0.054516644647009005
-0.007745313853447683
-0.005247556086681937
-0.006148603394187856
-0.048216276537276774
-0.033059003779024584
-0.034679396615028855
-0.007528933771349537
-0.00120601377415952
0.0032571757011878102
-0.03499263606630999
0.0275669391966513
0.0030593724932621758
-0.02750512998833855
-0.012042455095333776
-0.019143067203358077
-0.09873685485317842
-0.026733773226489094
0.021626789034835652
0.039846921961892816
-0.018683775596421464
0.010773333932173498
-0.003056774231517222
-0.011539115025700587
-0.008638866951070774
-0.005055986357850625
-0.027623182513140013
-0.0020953083695073645
-0.02187748780410785
0.029433286459542705
0.03445143112523725
0.05107951385054486
0.011850724085626296
-0.009914296976452434
-0.010475792288084375
-0.015212693034763866
-0.02599141707131515
0.06629362705428818
0.025580260025777325
-0.026450797214445012
0.018938258687942845
0.006138910002347583
-0.007636951097109892
0.016070276521475677
0.05315943034058553
-0.0481470092020465
-0.019429554897126063
0.04593793649261958
0.050542274656480986
0.022718455277413608
-0.015778413492428856
-0.13520704975077402
0.07455743806911436
0.012536023206507364
0.017954663295417724
-0.0632750901875567
-0.012459413367810172
0.0029214711455781907
-0.0018124410530249364
0.008212003311234188
0.07446870242580446
0.04412089131938781
-0.012705664592423378
0.001587838824013704
-0.01197090977813323
0.005422495523443859
0.0027436107842233252
0.01632244749781953
-0.1320719389986621
-0.12484055746330139
0.011967649027271333
0.0001525684750323883
0.022110175214559293
-0.02713893537739849
-0.03129565589007293
-0.01198537568787528
0.04823371321127719
-0.007209369004939995
0.011423122173971241
-0.010265223577772747
0.0020931049500215516
0.044586187429584756
-0.023883283836373947
0.012075797773283766
-0.0021470700440798713
-0.0208934156524573
-0.0015453719888671633
0.04267283888286298
0.0011307615837345517
-0.032576555284310596
-0.005000851247127173
0.009115907209756528
0.04280322631150412
-0.012528122572327412
-0.024926417125326623
0.01174595887573359
0.02739118961294234
0.0016021557131883034
0.008080565324103929
0.009626054573272065
0.00920683921353747
-0.016690101849777164
0.00216147681159186
0.005806701059448399
0.015380057000512991
0.0020764989582230924
-0.04631152227701414
0.007591851703729857
0.0028348935390224033
0.04141768372046946
-0.008963445603453305
-0.007370768985778552
0.0593593329275757
0.01768380691217431
0.0333732827367742
0.011395340410048992
0.0032762770244212725
-0.007467701338720804
-0.019949065328498456
0.06224547200784426
-0.002642428406413955
-0.02101566685446435
-0.0012678270121454609
-0.013074914617093678
0.04651061511405998
-0.02728856597156547
0.030771680908653353
-0.13168009580527806
-0.037846932666231486
0.035405858017715515
0.0162696024713873
-0.010185688682126205
0.011275103291486139
0.003650776937730658
-0.01695859821840629
0.04628408445286491
-0.008666423153858306
0.003906647910015428
0.028974146374712295
-0.0006679544227207473
0.013468563014794809
-0.019510046966149955
-0.02646332046863419
0.04248744990741384
-0.004680691379663241
0.02932835135281119
-0.026228303258080555
-0.027405222719488635
-0.02743956864935898
-0.07080628873302372
0.02372205516598886
0.0362237660326617
-0.03087630691187779
-0.07956870801413964
-0.05022742721727071
-0.009714325020584565
-0.008347946659124738
0.02396274189835756
0.0015645105615609302
0.057356203345045716
0.048159473259285615
0.07257795487695408
0.06942540688213476
-0.008234250970666488
-0.006759363577523916
-0.0006282632247935883
-0.03027846603364616
-0.10644725557605987
-0.0071471246522020445
0.026911437133725128
-0.024518612313158952
0.017773762863229178
0.00019469767894444003
0.008663112410863108
0.015576803954977571
-0.060782815919148664
-0.011286982959374633
0.07232524110809604
0.030837203983236246
0.05984772441460828
-0.026453171799227012
-0.05627813299803985
-0.13161724545225836
0.00600186542171098
0.0006039902359959295
0.02350940904112284
0.01811204538649189
0.0028275468872371655
-0.03989693557191497
0.022217433737843295
0.009199504570550339
-0.001962848567847329
0.016933945876502446
-0.020901142449409053
0.0029451492578875006
0.009256453892603772
-0.04262815676375855
0.00025710076498595437
-0.01714717774846658
-0.00142573921336175
0.04241875996160754
0.014857421876965527
0.00704886497308443
0.03818752711580654
-0.007916817708712555
0.013598022013141559
-0.004633903113262978
-0.018073475321156416
-0.0039395707050896055
0.021924083749539115
-0.03660182576802196
-0.025994984076785462
-0.013291782471533887
0.09831574022174255
0.07140060327105972
-0.02307020479755236
0.006868763773877188
-0.05941932150515445
-0.016147542792657725
-0.05943341272889306
-0.003798927702733704
0.032622081095855945
0.02840908088129652
0.018124707472693936
0.007049759334495907
0.0053889503149083555
-0.00840474458629329
-0.018999316217183215
0.0544736594741082
-0.01153504480493563
-0.025722442041652853
-0.012256078213802975
-0.08137116487541123
-0.026034061068128736
0.06801447019879832
-0.06411397557652948
0.04025446328327164
0.13394708806023753
-0.004397847902900763
-0.033937198356058525
-0.0411263730091138
-0.016469394986699165
-0.023035732164763695
-0.020929429895802303
0.019061138600454535
0.022988958870833447
-0.021416897631526752
0.003807822978282923
0.034327772099629714
0.01966235896261183
0.014671939117614486
0.004513861424484606
-0.017876883439676895
0.03683501229177037
0.03661784826423831
0.05832592465107204
0.006936755236140945
0.0015682728332301222
-0.015015720472307117
0.053014048570792026
-0.00682287444956149
-0.03485776077107581
-0.002371280450514849
-0.04219244147176539
0.0514401100104043
0.029372638615513452
-0.009165564454274666
-0.0439126777146208
-0.06998206848671022
0.01892063915904144
-0.01362862500798807
-0.010495802541664876
-0.008379699744055082
-0.001938196279725201
-0.023437712596062383
0.005144125653710974
0.02450748899696277
0.03314291341816128
0.01852155238891515
-0.006201553252385862
-0.14414445260228984
-0.005744326172151271
0.042382280354374344
-0.022107834568977407
0.037546144612510025
0.0037769165579415445
-0.044622224206415394
-0.006329504863047804
0.04072885253908144
-0.014715784716897058
-0.033220157661949724
0.010433017188472747
0.00015846941219602019
-0.009383846374239354
-0.02833497909226111
-0.00598735591438723
-0.0016967646233413526
0.00021939065910659333
-0.017025018057858464
-0.004024504007487991
-0.024152156473452306
0.11653666049282388
0.034421245024343225
-0.015641861694047996
0.01670254748987313
0.0009878728628111043
0.026777406016452784
0.0379368187086123
0.01861541620588721
0.023945630025084815
-0.0361675812499842
0.11666241279710217
0.0220081989069222
-0.19532182677994314
-0.03914611194719565
0.018518039618284028
0.01163326662095212
-0.01272076417180781
0.012108953905166489
-0.030868730605346686
-0.05032907840059938
-0.006435728468914172
0.010319400748170612
-0.01039292261775548
-0.1324736074204525
-0.010144942102372451
0.02097983915513193
0.014148280653962612
-0.0004501408183696193
-0.00942789893487191
-0.004394084051086752
0.09582463752724205
0.08538399860315073
0.10786416403939057
-0.08227745874565041
-0.09274691341785202
0.0563006363120548
0.13818441907212844
0.021240906544605778
-0.01055809639751006
-0.020343358404313994
-0.002984417852131288
-0.031726618675994946
0.024052197513948773
0.014815204494911666
-0.02886876619420118
-0.006287073840463184
-0.10988465455344486
-0.02705097284962531
-0.0016259926584216544
0.013001119536708437
-0.01841591504133727
-0.00233185749355043
0.009835693297165785
-0.012749364765782317
-0.018689569711309844
0.0020127490228937584
-0.03032867451014672
0.021525686275465226
0.03227268026318691
0.04493657362967801
0.05240299894524017
0.022887307151338528
0.0257448398100677
-0.015074747357532177
-0.011228176981153574
0.0017225519299553709
-0.003069150647864975
-0.010669171901769824
-0.001410630104203842
0.004353760527795341
-0.0024395494585841525
0.02307312216494215
0.019133689096793506
-0.0019427447642510736
0.014139216470429603
0.046892126904420996
-0.03301412258483454
-0.019911647567168976
0.010152664838401439
0.018352049442315155
-0.0177811284391816
-0.010732460421378237
0.018796411064817116
-0.003138461173064757
-0.009419261731628612
-0.08780652722408085
0.020126423747862884
0.013129137116306517
-0.02448566657413502
-0.0026745638251534434
0.012766194867044079
-0.043260203670568896
0.06402491800817058
0.01307261806470374
-0.01635786957412544
-0.02084290572572381
0.009974190451332606
-0.10750782901568134
-0.017783655845049345
0.0021162431789052572
-0.044272674393585204
-0.031136000143083847
0.018819421523915934
0.02980788779013377
0.016047965007016236
-0.030375980747599715
-0.03337046229669566
0.02097912114609633
-0.0005220039779357779
-2.1953815169205616e-05
0.05081672532353017
0.029416356297421512
0.03652887372980117
0.032595130867049724
-0.026970567095909278
-0.0063777256781240126
-0.050994521410112535
0.047640396760749125
0.1258283692800509
-0.010432319731810028
-0.014221037795579637
-0.000841271310958495
0.00032857912694742773
0.012271826032907744
0.0027812763058286637
-0.01662498491356117
-0.025925347518989644
-0.0012876924243432515
0.004955461801898686
-0.008372926732258954
0.0015719502934436447
0.06289050200183176
-0.0961841220987767
-0.0471540246213046
-0.010467615560626892
0.027058013197355096
0.03274782815887128
-0.05821357539740213
-0.05561580552662157
0.03324810930076086
0.03288671017747242
-0.020482070079065388
-0.0004004188711135486
0.053814636727934254
0.010392585375769118
-0.028106677052269356
-0.00040573557582617055
0.023221100634574852
0.00811598773587588
0.02516172620716042
-0.029794911262614517
-0.009597725471995151
0.01306934273611507
-0.04621297534667249
-0.08988290699597391
0.051965002991607466
0.22854571118847988
0.032607756112319794
-0.05188478472385525
0.020216099984056515
-0.07442540113956184
-0.12934528695087733
0.026800028020923697
0.002641227218424412
1.4288928773021888e-05
-0.027792455226227687
-0.01044063402025089
0.024337811232748415
0.006940259383596263
-0.012894594262657846
-0.03816688512317716
-0.015096175631396565
-0.042591510715922105
0.10280406917605553
0.05725543729121728
-0.056215734385174715
-0.004743902060249371
-0.0026202474184191375
0.025110155832321533
0.06624172755746448
0.027616883139064217
-0.05012098753454207
0.012211408807281117
0.018641032044128796
0.020750704538143042
-0.0310308797431194
0.041180249325398106
0.03000431779840859
-0.008806402288659606
0.0037611180825886845
-0.0029466122974246556
-0.04207501661330872
-0.05431876549324962
-0.029072184146616543
-0.0068024467523641234
0.005583366373520243
-0.023225847541954028
-0.022405786086198854
-0.06065055156582879
-0.052582391333500005
0.07539587886703965
0.01350602035723789
0.021012179919498046
-0.02491408210040134
-0.011825771045048344
-0.009278052833625674
0.05171844647794228
0.004576417013997845
-0.021417075938336617
-0.020652006997520928
0.036446571100371986
0.024717002531578467
-0.026256128117640234
-0.05579909475354579
-0.0025201502603642563
0.10783018980306981
-0.012352310050897321
0.013131810016103257
0.05539105343040059
0.017029551179917557
-0.010676056310678963
0.020016908168981818
-0.004248406572158487
-0.023241742872131477
-0.007018873188322716
0.021131753754213084
0.026383338221809344
0.038167825779261956
-0.017544457049242873
-0.04000330238781489
-0.017450375152529493
0.015358094146202046
-0.025219310357554633
-0.02102000781197449
-0.026015431233730298
0.02062600619416346
0.05373699955440741
-0.0009480198569109503
0.01763524696541125
0.0015541197952651513
-0.013529986527680657
0.01579738679691574
-0.004682891630980372
-0.0001726200500219086
0.004405068676839832
0.04778353002364003
-0.015911861442599977
-0.086051576744022
0.004468022969472295
-0.010510237900326787
-0.011967216494197191
-0.02830498480067302
0.0038697730519412546
0.00562395989565353
-0.014956583676384218
0.005908855733200215
0.0404724153468058
-0.011612289029658315
-0.006361756192197091
0.024521376873550223
0.0029593282554206306
0.04438025653817582
-0.02685714427527305
-0.029289865458740103
-0.041102502435471054
-0.18068493388071566
0.0031485737083675586
0.05307746050849083
-0.011965495266631538
0.003112544755960973
-0.00036747916334081736
0.024204639130505374
0.06832823350727556
0.00567734517062667
-0.021205102408695907
0.015261284769094484
0.005940372956880555
0.02433786835616129
0.007161428405336285
-0.03704286379386532
0.011431280771658647
0.0204977295266257
0.0589314378282853
-0.001853097098631622
-0.007291947253526423
0.014244594878786664
0.0402227020878598
-0.01058290688742761
-0.01908778253264417
-0.04635262956469491
0.010063344022087159
0.004504546036783006
0.022076232993713515
0.011079565104385673
-0.01318823600792255
0.011905449821358384
0.022636372123150877
-0.03212846585857733
-0.002141578897192159
-0.009803787167588979
-0.004219965196289349
0.0062880355122995925
-0.0070612390006094105
0.005333300904487807
0.025906616351702015
-0.05983135444027027
-0.01815301637624048
0.02139422305595748
-0.023036609827475425
-0.003487068025357045
0.00892072012362258
0.0004307020697332886
0.021119992555790276
-0.013453862162670225
0.01369535971464806
0.021245186120931795
0.07634563688119632
0.033301832185196986
0.052551929697274236
-0.05406999121758358
-0.0009842369105502917
0.01973272069007561
0.012257688740147455
-0.06586398621370872
-0.10879917045964425
0.02336067782635163
0.0007415065544574723
0.025128088949720618
-0.007840883869035373
-0.02417767259340051
0.0034036641584316435
-0.002241811296089231
-0.0336456372597151
-0.008535946226686459
0.016214178844875554
0.016533271635003063
-0.05261291159055567
0.03235670316872175
0.04243021819162089
-0.035104484770521104
-0.026466495147921654
0.014557059622754753
-0.04386332420264829
-0.008424306571614335
-0.00964636541417962
0.007354077686765781
-0.008533842244323178
0.018318233662004045
0.01478768902742755
0.01654599002023576
0.03584905957971637
-0.010887192490322096
-0.03026800556621745
0.03730321859373856
0.1668121530058619
-0.13316568902952405
-0.04801873441735278
0.05273696738131105
0.020521712227895034
0.007006616689734592
0.025597434488117007
0.0011569244352266199
0.0156341663111042
-0.011820955107188077
-0.1336927386101385
-0.010385977618290474
-0.022828008544531354
-0.10181245847638964
0.015132263980845079
0.028696957972540862
0.009986480759601122
0.08173166843143033
0.019435186919326525
-0.0060768086060912175
-0.008541293135632497
-0.046448896917220685
-0.01946375898379468
0.011517611729355646
-0.012362667942657522
-0.010063294729878785
-0.019083865425277072
0.030530462058366677
0.019222018436976383
0.022303524215884312
0.004572844220903295
-0.016240837017406848
-0.0343963334315008
0.042809858055892554
0.09141350279768745
0.022494649108605252
0.021465548926242327
-0.05825459382322187
-0.009812370956387014
0.013195145890591313
-0.013429626794675843
0.0182114007389338
0.03235477430070206
0.005390845619273639
0.0019444000506760783
0.011538521429390899
0.00021456907197046467
-0.014405783925046543
0.011149960678878747
-0.033661877140721025
0.015270830473803601
0.0016421207545021877
0.12117012176208708
0.045415661802255404
-0.007425895277528561
-0.04428396853867063
-0.035216345423945306
-0.04882124473186075
-0.0009172490406903624
0.0017930825358289948
-0.0008049412989784173
0.013898528634420683
-0.005905690009126907
0.012991364928185367
-0.01342003548510689
-0.00548656605813515
0.035778608649392134
0.017122017488531982
-0.04284935913549742
-0.09793182772978878
0.008424657556739917
-0.0011500439760159555
-0.015462634722099411
-0.015566501052254971
0.03808328948052285
0.016092782332833157
-0.007757860528158668
-0.03943930935462374
-0.014242839817201544
-0.0806958401006684
0.027849765842825388
-0.048165364959638315
-0.06646072849100691
0.020647268146238643
0.036311314482642805
-0.013856697356267909
-0.06806984438210421
0.03980096934793284
0.13261509929480372
-0.045693510575404925
0.00166235941268271
0.01965383797863948
0.06055618385949084
0.051010817892794186
-0.011532222231741223
-0.04697689192833466
-0.024373942718927514
0.09694963780297657
0.0038871268773242296
-0.03656711403266109
-0.03132785017991836
-0.015766601520438413
-0.002268242793470453
0.008678014326838497
0.04226823602649829
-0.01489543087923574
0.06787197056130212
0.16230634225101107
0.015357183357181354
-0.013351878080741664
-0.007697348195622919
-0.051539743038828086
-0.015373579258492533
0.004352190029097272
-0.019512975473927423
-0.003548432144392972
0.015445997680677902
-0.02071372862889266
0.016076789640397864
-0.011995407286724002
-0.03639443204065015
-0.03679507741088806
-0.021646858660356014
-0.00964125907341991
-0.020775824841740884
-0.0416697114214964
-0.07572833765337
-0.0022154773093154413
0.0019113592138088895
-0.013834802269141855
0.0023302316222419818
0.0028195467275693932
0.015116945933717024
-0.021059230152750883
0.03385885617664229
0.043734939115835064
-0.013009479913310912
0.016823830412760976
-0.0442853564003214
-0.008152008910576878
-0.04829609024622185
0.025694574126749418
0.14567171774316828
-0.028361113654810644
-0.028439025103126684
-0.006970599198841276
0.04038765976631377
0.018778699168580406
-0.01347278969286113
-0.022646647655575513
-0.00033420487065983904
-0.002928613342219123
-0.0036562901802441447
-0.003261217162528708
1.8858380511462896e-05
-0.055249297949484924
0.003772609596151969
-0.02221164132868406
-0.017159363718613294
-0.006935089496770991
0.04652765701562935
-0.0034781481339592954
-0.01794909165999245
-0.010578118456481562
0.016848636529887263
-0.029110156008504584
0.012814332516284267
-0.0036989434419078034
0.04107201968804025
0.013891735145788332
0.11577167951034739
0.116410624364143
-0.028468151469929082
0.017803248398327396
-0.010347615231953624
-0.021364248225954646
-0.03581258549577347
-0.00593825539706619
-0.0035135675108822787
-0.03433382286501942
-0.011508217417734702
0.013280785325171674
-0.03585226925747334
-0.02152457625807098
0.0018034315617350611
-0.08192251618015409
0.014849741205080643
0.008115615980279284
-0.009618461876437955
-0.006090302530432299
0.028423586953895588
0.06977343986428175
0.07612346327708967
-0.031956212967090857
0.022506082316974294
-0.08196278007982141
-0.06967090413633104
0.06001124371068472
-0.021669160130492682
-0.020887969817814694
0.06496997359402108
0.13386575723828895
-0.04292737962439678
0.021758626369796082
0.07930892108204905
-0.03608664915920087
-0.0028791449385138328
0.033212642146353194
-0.016883687339742496
-0.0026997751625958653
-0.02406528355263601
-0.12031566935339985
-0.038115918284938995
0.022336394944817643
-0.01349047063742718
0.015632513888049843
0.017076960682853182
0.011961313529099208
-0.010040362308372642
-0.0505728767021255
-0.004815722921946179
0.015459073848772572
0.003518263677357733
-0.008010541184384911
0.005929236811049838
-0.01300253701534671
-0.007110712700227172
0.0088562096315654
-0.16430201640118222
-0.045312750816041254
0.07194977320113041
0.030600251264115558
-0.011774329818237733
0.01735225458629543
-0.003106974168557811
-0.027293279441822603
0.016949845417488174
0.006767045492275667
0.009727284475696887
-0.010928136379050235
0.017066969703610976
0.027237560825030697
0.018347671471178068
0.03407986345971754
0.010815071895986125
-0.029153161593058058
0.046106866656369774
0.04091612898544793
0.004865042186571211
0.013645589396689167
0.004412446323458784
0.02199573779630658
-0.036831519901829764
-0.033080507829065485
-0.018051030038872144
0.00014295889722729717
-0.011867315869954674
-0.01995100161463817
0.0639199779452542
0.05828473493042897
-0.042520586645906945
-0.012291478791662102
-0.05106737594104768
-0.04793236330207935
0.02668028508462721
-0.022925983482732767
0.007633297483550405
0.08184779269034995
0.011954620317082961
-0.0030198542000383255
-0.0006255740637656532
-0.044664984156575945
-0.16935198920390887
0.03242170799681836
-0.02064153699248888
0.004883689762802859
0.004037716546760033
-0.033490329351308745
0.023713809460516704
0.05044403337686716
0.04019349741843995
-0.05113937433242278
0.012386310716913753
-0.02504678118257933
0.018988546600192332
0.03866667001761042
-0.02988170346255982
0.003890294911811828
0.03057040623284573
-0.019126910817803877
-0.029667917806564283
-0.01635997089953902
0.015196358787931557
0.0368711530891127
0.06969617554249802
-0.0054275728644115505
0.08294854423134781
0.04018304961981283
0.08327395286710902
0.021795431081467205
-0.016791953978290405
-0.00403347157666222
0.00318987770851985
0.029237541182620275
-0.004447944541204183
-0.0509766339252683
0.02474603205352056
0.04158724768930623
0.0045807948012026685
0.017326629849318213
0.00978564767587525
0.0199329129234323
0.025660784672278458
-0.04014653442369386
-0.14771715806673183
-0.09392584939234178
-0.06867217731312472
-0.0228447010514719
-0.027690617148940347
0.027596046879859597
-0.012035598101105204
-0.010471685022434566
0.0041975595856018144
0.0401233691204487
-0.04454018202988493
0.018935875527278528
0.05990049859874646
-0.02224309297839489
-0.048290740030991715
-0.044335663471086285
-0.16626339763892536
0.00979061909140453
0.06281722441782302
0.09220855795017668
-0.03712108267087014
0.0060547583354024345
-0.004245647335326564
0.06562928178791848
0.024112494721722832
0.02211361090472237
0.007511228444805267
0.015309038182001288
0.050731331359560795
0.0030871497002737634
0.02014292596875407
0.02502798497657673
0.007426806895444525
0.025454216819571097
-0.028411834378249082
0.002508407724034998
0.029689432925553146
0.008059205562089432
-0.017780321873284415
-0.03534037473310222
-0.007853879876383838
0.006381629991922707
-0.023764560653561605
0.02626393840355775
-0.040054167721882236
0.031232894742688148
-0.12087861843910766
-0.08034823656445715
0.021492709864546797
-0.05042817233437371
0.03135069307504117
0.022801980664416875
0.025847627742200407
-0.08740759921625943
0.027375213819861757
0.04566953358368876
0.011982387689751106
0.03933474935640321
0.009453619028537202
-0.002607521600914701
0.020816569035358293
0.04217980688210012
-0.014033819397545265
-0.019831020539150528
-0.008254248080339362
0.01597237913402241
0.016561206296478517
-0.019585237552888136
0.010946555295957781
-0.019100180326313238
-0.0007541485388900517
-0.005426467885616815
0.009297346434757707
0.033270819194232866
0.041664234896603564
0.025738901408317687
0.0336996635073056
-0.01784934407306662
0.04755347107774364
0.0072051274237522524
0.017232959933285785
0.005940885857353864
0.009044868132905457
7.265952523490191e-06
0.03998163122665134
-0.10112771919450028
-0.12653622657919597
0.05445740089878061
-0.08010041150372266
-0.0267807749895693
0.0187266022665788
