0
-0.010690821533836688
0.04569491581899723
0.007056642467962572
-0.0038736647072304033
0.0007129916087748662
0.07757772964652619
0.004741387169966285
-0.0267630458422707
0.010516914565866326
-0.004710795043643753
0.03420088150063174
-0.08712073127231505
-0.06554785629999027
0.009931354737076927
0.0038314612139967535
0.06189213386020579
0.06760625418365195
-0.034398116583319406
-0.11325374451665977
-0.02608339863312722
0.003582724893088678
-0.00039011157178963724
-0.013504933056525446
0.011956793986077005
0.048725837002495755
0.018023649816041785
-0.025111052985422058
-0.027890022642354857
0.011385970216116342
-0.006057244773475831
-0.006855082276477254
-0.015752781232765023
-0.022077700376538674
-0.0021515606360491242
0.06608815214604473
0.04806537814933007
-0.02709155847763513
-0.030347306648733138
-8.663573807575488e-05
0.03953646253140694
0.007755142265557689
-0.009412053628553668
-0.0208372757211557
0.005814007795512692
-0.013186095394309925
-0.005320241660999591
0.0152883691299136
-0.03446861435216157
-0.010973849314546863
-0.005273692335654832
0.024445221791487084
-0.006649982198363458
0.011229278178009663
0.10021218472237686
-0.0060919931199455695
-0.08289240613886416
-0.006036952732729582
0.00842902608514581
0.0452957870320155
0.036677841500563
-0.0020584996106092278
0.0269208484623453
-0.04273493369582291
0.011112459087765722
0.0050059246413538695
0.028421974685937212
-0.042471270817723124
-0.02361112082586246
0.03640028473862476
0.007589465684152434
0.03156333751968362
0.040873265128831555
0.012337830556792053
0.015689828536312563
-0.023553162233686056
0.0247317626619068
-0.07938392499031525
-0.14954859261399422
0.06602560808547643
0.03012204743714597
-0.013142654352360136
-0.03017244081881729
-0.030604496171459782
0.01034353437476046
0.03927443783668832
0.001542243112037072
0.0023417637911525803
0.00854358689049787
-0.03007987905432806
-0.0038319610202159947
0.004623426575802296
0.020503019774412424
-0.042759908631079514
-0.09587208402770278
0.02731828596699769
-0.024154935716986087
0.026173539830574303
0.051588255761164235
0.0031130999704043205
-0.01256655810190058
0.0020842979227969293
-0.027868183111466306
-0.02388772367396255
0.014105571930286415
0.010427842797976948
-0.018787286481193793
-0.021976165101290256
0.02356255551984916
-0.0031506157885114808
0.02786512114957441
-0.02086701719745456
-0.015248142249567827
0.003167826766176034
0.03071315680748284
0.02808477431341872
0.029329966194474724
-0.04194565546038843
0.04244008629437173
0.029044139993318344
-0.009602596685482256
0.025880924663203454
-0.03607223171005644
0.009875828796626063
0.01944389141893322
-0.010113189527305336
-0.00705548640316407
0.016609679126712355
-0.005014880982095672
0.046208410808210615
-0.004864857437788882
0.010343815690082983
0.04678839738576808
-0.0020767979057997256
-0.016001068983085582
-0.009911837036592997
-0.02577669947233602
-0.03758407394573189
-0.010233990179260322
0.0020676946579949876
-0.05642660482977869
0.11628801211485748
0.08075552185241652
-0.07091119625220191
0.03999017267784338
-0.020151224729324745
0.010460047394825351
-0.02234073285959509
-0.015344563297599773
-0.04793266824433909
-0.010356568632650874
-0.008634329821659225
0.00603941400422529
-0.01787155808961731
0.020926024049099403
-0.038360697645458075
-0.027426365194814013
-9.067398356518527e-05
-0.19548601625541473
-0.018133469882534274
0.02625859286992433
-0.008906907703871729
0.021433215119288813
-0.01300658738680727
0.009617261637391973
0.04140303761219507
0.013942376230619962
-0.02776037476425317
-0.0082417542394262
-0.033682671130148875
0.08980076519365793
0.09101764374821066
-0.01677595570768646
0.021391353692043688
0.005279842844596336
0.09130314767180743
0.04393765848317185
0.025115655473932918
0.01653961779313918
-0.10903930884187833
-0.09510340545280337
0.01723006648234328
-0.004680872822636448
0.04437762180897788
0.1133030410886923
-0.11570407798322514
-0.045319111308633954
0.02406320993436899
0.013402643980450503
0.013968867412839935
0.02586658431800263
0.07401401896539138
0.03592739162737669
0.013787376272717478
-0.055324655683689015
-0.004594292754369731
0.014543757066510846
0.002691051419254438
-0.0036715116661900716
-0.007292176908913509
-0.00423053984151059
0.0013132418815818537
0.01492675578128882
-0.019476849739957634
0.00894661892805201
-0.018949676882113468
-0.02714579311244065
0.085704309192025
0.06527711648557319
0.0072791745555974
0.08559416879735124
0.003126366372113224
0.04832265911685596
-0.23551213557606682
-0.06697890274992181
-0.011052619683101084
-0.032330121447572344
0.0077639724986387935
-0.01369762993900872
-0.01876267328167104
0.011419427772187022
-0.008004282346071109
-0.012805642488599903
-0.002524301940708756
0.04854167090042221
0.0009128091968648573
-0.004198781052242172
-0.01427227735575497
0.008148362040666376
-0.029813178824388324
0.0015350611404862965
0.06100227739011084
-0.004091688395801891
0.004279145515354322
-0.006517944441896809
0.002899225212510387
-0.021589326207176747
-0.1886028500976676
-0.04819578186406805
0.1571589939145492
0.07545337978949594
-0.06061315914545129
0.014657904442346097
0.0008789571598805684
0.0354986369454254
-0.019135402702636937
0.03623876803676002
0.031350655923794525
0.013269531750679634
-0.020180145197677038
0.0066002240096440365
-0.019505908793437093
-0.011661928861381163
0.019327724821284413
-0.00948815662571812
-0.017255933122516016
0.0025900719072584153
-0.026323144997608707
-0.04955562793226565
-0.015481138013250665
0.009891720179254273
-0.02057961215985298
-0.024520540917371787
0.03907295744939836
0.009229022618040659
-0.011295705913299888
-0.004549811458365018
-0.018598889836345917
-0.02398787720981715
-0.005254492814165178
0.0030915177911602903
-0.012472611039486136
-0.05027940766077448
0.09392664029751004
0.03851981104495165
0.004063451223687978
0.08184891450470215
-0.04292588082835823
-0.009832843168015843
0.0041665286075767
0.04000861452703578
0.06186734855288236
-0.13458587505130323
-0.18476346511407596
0.06753128623896773
0.001157240943480645
0.016223291194394637
-0.01387034431007845
0.020623606947188518
0.029926600253005694
0.012266882271204635
-0.0015347423730801436
0.018410474326309493
0.029060945746234464
0.05342134026524504
-0.043078918851524615
0.15474830470234271
0.1656578907479185
-0.006600059476444454
0.05369799733922262
-0.028159056147522184
-0.030666905001362637
0.007479688069941308
0.007687675107772263
-0.00024290198337958407
0.04350491371619881
-0.034701617719812304
0.004394861420136791
0.040789434937171236
-0.05182771584952727
-0.003250175716409105
-0.11958316385685333
-0.04044988918801841
-0.09367996502878549
-0.12403054774566527
0.08455685955214069
-0.0023673163158201304
-0.009353175017578425
-0.0499867065144122
-0.008127888432905187
0.061308381378841495
0.043025713366374084
-0.03519472640068845
0.015978285034379567
-0.01799536678663675
-0.0211906509300756
-0.006278467085109081
0.030673559570207384
-0.028574545112223654
-0.02105268585946697
-0.002227293267340926
0.008470645117953764
0.06578753860778949
0.04842832510468675
-0.031023294358107762
-0.013048209231677104
-0.012957689962208073
-0.0518879093144564
-0.055878204488661196
0.056285706922026064
-0.0025481602254674735
-0.0294784931436732
0.011744864613432843
0.02225496895295125
-0.00867606532086436
0.009244726675490575
-0.014396335488019298
-0.012914234715115743
0.038699904326505934
0.02353751287053836
0.030100948965133746
0.0685808082624765
-0.06539748709702238
0.01201869933281436
-0.07267601603535156
0.06910752885780154
0.053142028649604815
-0.02948220127551337
0.02568312350510721
-0.0007744720383323024
-0.04514741233144949
-0.04967506911912915
0.006479618348487885
0.043818030949309125
0.0369665625842262
0.03353523252043003
-0.018949193210856894
-0.008376305253609115
-0.018424079193276998
-0.015987813423446136
0.0011423005247533486
0.01570194334632492
-0.015079032561945548
0.01644311894617721
-0.03701991003468755
-0.01450275017600794
0.0069349079621423525
-0.006347679201645729
-0.04557285746871059
0.04133322069772532
-0.016518725111048155
0.0032542094140563774
-0.01352106867727736
-0.0045152026539739855
0.0921875799486248
0.0041714481433468955
0.026734592746499142
0.025232280090782162
-0.0033553241713998893
-0.0005325579965169656
-0.1620378711748412
-0.1131882889524178
0.022821436840325324
-0.033493863809925264
1.9533893179192158e-05
-0.004846269288534422
0.03620372930778316
0.02374560033892701
0.02339608402849652
0.030319881236308643
0.02246742076237135
0.0073822893491641
0.013761197303812204
-0.009344652607154537
0.006099971307703288
0.17888385700121312
0.002228340020235069
0.0057033472416378765
-0.08760027357456852
-0.09260160538639524
0.014506931590097994
-0.008042831802531994
0.0030173335343870455
-0.059328251346088365
0.02642833406089704
-0.015666219764488176
0.01042858726537205
0.04179345944173321
-0.01521537209361634
0.02601957200208555
0.05706855905362523
-0.021498654162958517
-0.007420091014871922
-0.010277598224151268
0.018927169338859927
-0.019588956230412975
0.03904039224345651
0.02902628106558246
0.02381757417654404
0.0027089708210637194
-0.01875093580299988
0.003050744094602726
0.015254801976140618
-0.020636549117431752
-0.033492951751611134
0.009965884476615913
-0.017575413692115512
0.0017252067576935066
0.04764360185834445
0.0612705217837633
-0.022998019450492437
-0.009069059796331096
-0.09443331135705098
-0.05254278493068499
0.012183521098516382
0.03211859179379627
0.0056516777841825305
0.03322476636066943
0.05113998274801884
-0.04951418290765226
-0.03929221045241718
0.006760307220960565
0.009405295753736139
0.025022429315625944
0.013213158560733736
0.05493409460491985
-0.037425756950997195
-0.12308074179391713
0.016868397185000498
-0.013167190201017639
-0.0025899168360669985
-0.028075235954980304
-0.013080187007883525
0.0279829288208485
-0.007067505750250229
0.013565579522854466
0.04185270565513092
0.0017658862430884766
-0.001278278883021016
-0.049075690458962276
-0.07017165438117486
0.002432651282898454
-0.023480384803191357
0.048078514465385205
0.02668779465138545
-0.031931692926608274
-0.024548854996798247
0.03660710088215146
-0.010700309484863233
0.026523551337619265
-0.00466567252435861
-0.030662826425680287
-0.0028736429521734564
0.007131163359130804
-0.021198233146941702
-0.03277319408484244
0.00768469057908916
0.03980291535880254
0.0077254849228772645
0.012195767981333282
0.033414177333993635
-0.029902825106151307
0.01879662177804942
0.00547103882997854
0.010811659997666506
0.06164416453115742
0.014395073934566413
-0.035028951842966616
-0.017121429272277458
0.013370603974871225
-0.01381006457678472
-0.02976499281518366
-0.001834337450397835
-0.016700830943840974
0.010569830556261983
-0.022916897369843682
-0.035577166981912094
-0.022604513053512024
0.04440030856245858
0.035302257782078086
0.0022730372590631935
-0.038783612441350986
0.025554161529641087
0.007158285051898565
-0.004703469635860742
0.012328419199497396
0.018382475581187347
0.1051020385948653
-0.01837417262888087
0.0008672732331750899
-0.038443918435231296
0.003638065988333938
0.02302977549325133
-0.020342642229695004
0.022321767275020648
0.03844483076367384
0.00438110062235811
-0.00931926032721773
0.008697175982969997
-0.013158604023864607
-0.008464106969068255
0.006964362748043118
-0.009607844017884825
0.004366722400875797
0.03344940793454204
0.0523815461775435
0.04262791440971149
-0.07996811248193476
-0.12868528957735983
-0.0017826563469782936
0.032856272700789384
-0.015383529721290388
0.007179575958169124
0.04170797065956527
0.0893398182276442
0.03644227960781108
-0.03519172982439689
0.08421022737453417
-0.2057084499631739
-0.041501369082895194
0.08351909924190361
0.022670526822867215
0.026001328286958957
-0.017484880186236305
0.029758818651678773
0.021558352949002577
-0.0066186440410952296
-0.0063921055039715055
0.01203951761761489
-0.0007778476126103321
-0.039729247484470695
0.026899517685208776
-0.012130768448485181
0.012041250183188515
0.010618261816931764
0.05443580499171618
-0.1087947397522006
-0.1568503644120212
0.04904096437598589
-0.09317998486384525
-0.02108445486428039
0.031793687106546356
0.02492213139245906
-0.00892182477780621
0.02156867146711452
0.021230851952282328
0.020210581982697224
-0.014345039858511254
-0.028287097049666775
0.023841622681639564
-0.009852403368997342
0.026146747324653163
0.02257947202395843
0.014982518913824391
0.032609893026527274
0.018466665976571636
0.00019270253586993428
0.01306181929888415
-0.012030240149168156
0.01763581637595807
-0.02042333048294613
0.047984321791538956
-0.1369325892716079
-0.17940452617552255
0.02283917739840819
-0.010116386858580675
0.008611765330226133
-0.003123519547048802
-0.004506478265188625
-0.009079098832536528
0.012827775244967267
0.005805466750525833
0.005665569079307099
0.048589585335863
0.03546469145765211
-0.0037319865914100794
0.008240416065055286
0.02916004539369046
-0.03294672703131282
-0.03256490911074956
0.0272690938314243
0.01900482675553521
0.046921835450825414
-0.017425475522876394
-0.0011228189964437557
0.04746075622096178
0.0182098229071848
-0.03274862076743949
0.0014283857794278698
-0.05492136979523271
-0.008206941026118896
0.025532702189186685
-0.007124904622788075
0.031012813125044517
-0.004045828351303713
-0.003720221390290271
0.044219258360523185
-0.009526063751988915
0.011401140265553911
-0.009612584616219113
0.019942889548971377
0.03386430724882639
-0.024097818261810025
0.02788053095271112
-0.016017441142047128
-0.024996296435940157
-0.04688586925679289
-0.005968994392317569
0.019362434196574723
-0.013323221148786209
-0.006968720929942443
0.027691012806773826
0.009357790651704076
0.029859915785482805
-0.03215785738548388
0.01790596294053878
0.1691464409118918
0.03253623145861511
-0.020889871551482933
-0.0027234065694370355
-0.0035351935593211123
0.003161193593722617
0.0001615027748010581
-0.023237260450588475
0.02736758068505068
0.019614703050865698
-0.026715267342991626
-0.021012906378424873
0.004269730930811487
0.001594149130476323
-0.050128799471158815
-0.0811830401556628
0.005106377599333229
-0.0043817835318010765
0.04042242939971712
0.0029736139504789845
0.0013626003997382532
0.0015268266533954198
0.0016717389261954783
-0.06957207168301457
-0.05116319610969914
0.020095291735330246
-0.00741920280951862
-0.003358844533817132
-0.02747965164732403
-0.017045148327908596
-0.012786608191444542
-0.0018434986436530105
0.019007036226803296
-0.015191101927578459
0.010865151258537764
-0.015135990156508364
0.009880860602754749
0.014972446386053313
-0.0119939378608299
-0.038213146127539996
0.00598653958552641
0.06548536378936923
0.013519533156403491
-0.03954065863475414
-0.031227814725005663
-0.04213210183221601
-0.06815801311640024
-0.007921774410402484
0.05718791109657444
-0.0038598427140926574
0.013184815021905005
-0.0011551128076778237
-0.018141260012954356
-0.016287576073862452
0.03557895190648632
-0.013734177040005392
-0.01009382054070532
-0.02765353062126424
-0.000550391546867754
0.10797834800704575
0.008057231923491887
-0.019950363523060715
-0.01090440564674496
0.02714982982778717
0.043541885999376015
-0.03821550913665665
-0.010243502066999316
0.0005500007115259643
0.04596529823738005
-0.05756204350933946
0.06970890823571539
0.22986023212451973
0.10566255321608393
0.003642759333447525
-0.0303890182571678
-0.00631364420464356
-0.0006855895980297723
-0.03640621169234387
-0.010292233454871954
0.029935789111922344
-0.005435734461283485
-0.039398632981079464
-0.13310798128625448
-0.03031667794332437
0.04263793513424958
-0.05567676678376322
-0.03646360591323063
0.025269292888206632
-0.033355494360461056
-0.031540169100831975
0.0030106654094857192
-0.0063420888198254645
-0.04498515268417064
0.031815616565954316
0.003066326014952399
-0.056724360806573094
-0.003967761737463157
-0.02079351523983383
0.02743893395337045
-0.004500524117546272
0.006311217610311408
0.039989619535264996
0.052959357505631355
0.04693247729794814
-0.016446170132894188
-0.02360565951782993
-0.0004513473211205044
0.0186618147543078
0.010477856393146395
-0.037052095720410204
0.02045502432531087
0.010052510890752122
-0.038551611518034844
-0.0056340085767050884
-0.008379236459927953
0.04283079007381827
0.008762617287877182
0.005190552096063995
-0.007440019732427822
0.023812112553470356
0.056067907119448215
0.010339912253048845
-0.00563721886257615
0.005690903057232321
-0.009866140317168868
-0.034559823175222534
0.004908408272352728
0.04405796573287289
0.004081438550586521
0.014313474368522292
-0.010883209322055434
-0.0484353631121308
0.005892246249087676
0.04571490018075476
0.019289681480368175
-0.012436147576347926
-0.010865466568390289
-0.01934877341977835
0.01845933511737969
0.06067100629457373
0.0027497951702463927
-0.012681363040004064
0.05246868565049983
-0.15424392727895705
-0.11286847989381647
0.01464759879655362
0.0026133764793254462
-0.000843547015976385
-0.0037154211117096637
-0.01095649970160151
-0.02686600644099881
0.01036060212468618
-0.0032542056854058927
0.018016228094769004
-0.10660609306389003
0.006325121128822172
0.03116811165410964
-0.07043548600991513
-0.061254382676768485
0.024162254425293413
0.04975968789111178
0.005733839190497241
-0.023256527011189722
-0.03778506249100462
0.06103230837085448
0.0523968451014775
0.033388522789346335
0.14015612480645753
0.09348309610291329
0.02734892204796533
-0.004053472173199014
0.023291201542130744
0.06114819792873518
0.031018160193756583
-0.03204937882098373
0.00031863301497132455
0.051548553861717826
-0.001685093594160034
-0.03299380294353863
0.018901618695383697
-0.19678675486002745
-0.13541422872323006
0.05360768554383355
-0.011353990017260696
0.031548614620772505
-0.04888664053231636
-0.05440400180758149
-0.0009825037150466153
-0.04457230298674827
-0.040736941339406696
0.0037607798227537507
0.004979055393220717
-0.019909932557897615
-0.02260531854047366
-0.016851922739803148
-0.012530498828210699
-0.0076473982458882435
0.012147335850236692
0.07818180221607225
0.025109397428174474
-0.0014631443654907468
0.020908005503304364
0.01093749951976278
0.012269015250031299
0.02333006312913923
-0.019524089131013087
-0.007454655304077741
-0.02252054791908533
-0.022862314690624955
-0.011746028434091834
-0.06444755920995227
-0.04569240450889737
-0.016760385286441106
0.0802770542238294
0.0379648719275467
-0.019707316289550348
0.056869716888159436
0.08400777162886096
-0.04727519235678658
-0.005967279397105548
-0.01134342085962174
-0.010519245550142053
0.09442129046571532
0.11270623874401417
0.0476477722380451
0.08172331257595095
-0.042821312780094774
-0.019615919009842043
0.03817929581565386
-0.022966042986914008
-0.08013907538253351
0.008837729235099826
-0.017115535424205314
0.014562243891490878
-0.04105562440942303
-0.013597915480819766
-0.019127999903476814
-0.00506229211241352
0.020829811917637803
0.019255488488672937
0.008454711579679803
-0.005294771737116125
0.04480406310901836
-0.014815110358866117
-0.03009629912189796
-0.025982973052248507
-0.04910598392181425
0.015159381199109112
-0.020642023605082868
-0.04253271475448969
0.00037422055718099625
0.03970643992203232
0.0518461563198767
0.009724406461126035
-0.01773588890595194
-0.004230445273051048
0.0088125760381293
-0.024615379698249718
-0.028131117827671547
0.006000846892395092
-0.03682368980446102
0.02413435988833304
0.03209914467886817
-0.03883561581719194
-0.028035217698346666
-0.007647133488403135
-0.02865723690400209
-0.005604952596115314
-0.017855531969895342
0.015470960951070012
-0.006610739962377193
0.005124038980265579
-0.02386177596765389
0.008798180695872543
-0.021245412098297455
0.002208563992457708
-0.012182824449857453
0.09831194911270918
0.044522909981411354
0.030770442276915982
0.029277168987080757
-0.026322120923312733
0.029693083328974666
0.0014522326801540868
0.020595896145319065
-0.007081173265371431
0.0008444623699076195
-0.06659764617551218
-0.038186369846896044
0.01650599057628255
0.015570991947090392
0.0016678851072816964
-0.02241059051264907
0.1317369166580039
0.1311011518549263
0.019956162002462804
-0.01853637091935528
-0.06923817537275481
0.03778074111533774
-0.007624004015381806
0.01571499559931194
0.031487940125221964
0.037366797802545884
-0.1842819378031726
-0.11770057445289557
0.019934011422336865
-0.011089349093553875
0.033635823106318546
-0.03541925460564303
-0.0701162728660526
-0.0007631160839605664
0.013487697404429382
-0.016018236417432743
-0.060882170549324356
0.020227699289365107
0.004589036900412409
-0.030206989873519892
-0.04436304923706428
-0.0179523497971094
0.016064086779967943
0.004061182917903686
0.024720236206115295
0.02154714783657118
0.021934636135634806
0.0933311231493683
-0.019539957818915973
0.02297863083977715
0.007624797553853985
0.022344314412114055
-0.018506487425326516
-0.039657067465548944
-7.220310560375007e-05
-0.006807647798025566
0.004703235980851564
-0.023347655760718525
-0.013887690595218966
0.029887804623204388
0.023049179179241933
0.045820903157771466
-0.013403339052759517
-0.014448410583656479
-0.0005465310876038025
0.005671376616250662
-0.025694401714526957
0.009378216717085441
0.048569019251568556
0.020822880253518732
-0.03147868882775962
-0.006873114647752149
-0.00023234546891346205
-0.0191709984965938
-0.004897030328639754
0.03310372589687207
-0.003790813389252496
-0.06397909050282906
-0.01502905642696544
0.026277153889585764
0.007913113975240478
-3.061118014285588e-05
-0.048354105282870964
0.002699761436636723
-0.007908788611553396
0.034792157702304094
0.06594599696302453
-0.009098988276972383
-0.005911525689717875
-0.017137715160716136
-0.035037425134674206
0.014574025458145633
0.050671930570108846
0.011876542134064241
0.0017056426583993403
0.0024167146252914193
-0.01795823879671568
-0.004106899933613156
-0.0001334993325953279
0.043170647010981375
-0.01795987672946107
-0.006657650887865282
-0.005511078494935701
0.04194889043055065
0.1392808347870717
-0.012926067874095754
0.0037397578702455803
-0.02539673136337952
-0.016032625934360292
-0.02726839830725408
-0.07943494439571698
-0.03049055046721795
-0.00323516681244229
-0.015217337533492813
-0.031981893953310345
-0.032657249088407926
0.01741255715583636
0.008366379197374336
-0.006901792036365786
0.03279101919460257
0.058486114342917686
-0.0010101542779850402
0.024025290632391342
-0.01520621327581545
-0.038148813248588494
-0.006208176464957989
-0.006168329904869491
-0.004736664193429401
0.0002462045181277727
0.0032163848080752227
-0.06816668138133578
0.004210475384074063
-0.01902313617733767
-0.026752373059729127
-0.02468623107081806
-0.015143766968246732
-0.02530015409839
0.14466055299920902
0.07358471768042059
-0.02869122597876719
-0.004434482959789331
-0.06561255436729468
0.01100256269668279
-0.0028474185881482185
0.015758363433075916
-0.0005572913884063465
-0.012682448424083347
-0.02595140108512697
0.02400596743783432
-0.023148104958075885
-0.00461402730804757
-0.006984855036010353
0.010055519219636282
-0.011411680306787197
0.0002799017754359844
0.0236705973063561
-0.004056102889069316
0.05234283694101353
0.0431916249779716
-0.018760345084844247
-0.019731948021222696
-0.003954732917084003
-0.018017016954016894
-0.021909605539316403
0.03631276207151588
0.009029986224450264
-0.008751743127316898
0.1869901042332762
0.0755414722907183
-0.03462452940116623
-0.010443527587993304
0.0013900800748944547
-0.1449474714361017
-0.06489894020272532
-0.006475731231930729
-0.028625000519610738
-0.0013046103827211257
0.0024940951965366975
0.022634067751399846
0.0002516108546295316
-0.012525873464730015
-0.0016354679180057422
0.04549711149303048
-0.019396573680601277
-0.0069513925980817255
0.03327565931414453
0.05452744739457062
-0.05958171304667638
-0.05776889767619817
0.013805066347764135
-0.004320791318848418
-0.0103580683244666
-0.014603757148577041
-0.03019135487535397
0.11765576808215002
0.05157516715578725
-0.03764455966837344
0.007779858877439086
0.010669533466736917
0.037725113515722
-0.036997418519378066
-0.022697332179254626
-0.012837509690395505
-0.02944293162632717
-0.03811964164876856
0.007395055549753395
-0.016267238580576167
-0.0035117297770212437
-0.02009401216644058
-0.0022003744951556072
0.01751048137158791
0.03065066299984825
0.011869911186453721
-0.024885178422803297
-0.01572405200901276
0.008688032361538832
-0.020713546442232465
-0.022307199072186038
-0.001844902054367745
-0.03405385187473882
-0.0009805254608790488
0.017120645273413348
-0.010910692536093582
-0.027323947851724834
0.03021240613042076
0.06364619619350705
0.035815653783669875
-0.03015920791271522
-0.042648469950847756
0.01927234564165463
0.0013747962199464005
0.19487739532146087
0.06001252258535671
-0.002083419273455475
-0.0024636236630700917
-0.013227265836734194
-0.029169857462456775
-0.0468075531433584
-0.009993862681901744
0.01124780735491347
-0.03447619211157101
0.016288139831516536
0.011803577135688094
-0.01937168728025287
-0.018299303134479097
-0.003781017252172821
-0.0006070821599983967
-0.02313773185729811
0.032552668547753905
0.05605376697752088
-0.05556605371099322
0.008447994723456623
0.05252461235180306
-0.014933058442491223
0.005929884922278125
-0.04085527174499925
-0.048447328347947995
0.011948927588307939
-0.0020117840745266335
0.01748846147409381
0.021706195131651836
-0.029748078612961377
-0.036472763050822324
-0.006136761997954564
0.03857939243570579
0.029441784034866747
-0.01655799365733776
0.041456713338218126
-0.029472996725696577
-0.12157437888843001
0.008459453807567368
0.009474360087955191
-0.02688289157801826
-0.007668376997955462
0.040715515059272955
-0.047500420505967075
-0.055840321545203866
0.0795902713407003
-0.010893853186892906
-0.055174891086210986
-0.04297963703084937
0.06039881230166344
0.038866178343956774
0.005676598843773912
-0.037795450399360796
-0.03521250110741698
-0.025745233190725296
-0.02638072295212605
-0.005349865487568114
-0.027813412086140975
-0.09698292794717077
0.030229613795077197
0.12219437128988704
-0.026677924946715552
-0.024070702226892
-0.025572238952364903
0.012749866796041474
0.06980424925995957
0.18703806152785363
0.01079626697339529
0.013353852184269304
0.0712371875470142
0.004041420043353644
-0.006996154063343438
-0.011701176516802404
-0.03284327941586684
-0.024685800436592784
0.002284677854059254
-0.08072563048141351
0.0934210599034204
0.07772652775412228
-0.04871057907400977
0.013503018558654753
0.039403905529484674
0.012834534308846736
0.04376070005967091
-0.015666155572969766
-0.01908920412721422
0.02365987532544106
0.004925559654588425
-0.18265750222288327
-0.007240224714785393
-0.0071664487163764935
-0.038198858677950386
0.005227821860901497
0.001155617868188151
0.041022434228860774
0.08102919599417255
0.030497157678598546
0.03759631386449519
0.02080604382960667
-0.0026398306180417485
0.012856915117299493
-0.004630539933998636
0.005927402572495704
-0.041977413947540745
-0.0026059844143738694
0.005038055170588048
0.05260401852060978
0.00044267329625320934
-0.0672856175990004
-0.01880973177092663
-0.03099947316501974
-0.04841561703863945
0.0012293902491932684
-0.014309310558445573
-0.004669156125064546
-0.012443902270241662
0.01697430025090059
-0.05106020336302531
-0.14262620872814613
-0.009275589931483296
-0.01657248220588453
-0.007662572535234841
0.05025648779717307
-0.013960062325063484
0.013825444626640426
0.08119559947614087
-0.0024682100267707065
0.005627893247847366
0.060485848532974354
-0.009007399777131053
-0.006334472468156325
-0.006546302933894875
0.021245401469222776
-0.024149227264012706
0.00563268042415485
-0.056244974838650534
-0.033385363903574494
0.037888403385920616
-2.2920772694377955e-05
-0.012928867130691385
-0.0034316459249784993
0.020021792428760787
0.019977656498494437
0.014199001381993669
0.007627802882912485
-0.007236674647581315
0.008417921505146805
0.01275921704644406
0.0463376442250508
0.013550421860318258
-0.015832554612649163
0.012733655188041895
-0.06896333472022156
-0.016754807795155566
0.022511748687467234
-0.026683166888062812
-0.012793488023493088
0.005949089856508389
-0.004154854943570946
0.005131338961857385
-0.003544800109711938
-0.009848512404044805
0.012724980036107555
0.04595058564262547
0.00465968240767734
-0.1206666820150616
-0.03284551842045136
0.005106533605684716
0.12628396222633873
0.15034774371152435
0.0063784535162309825
-0.020379812613791445
0.021375919705267844
-0.03142631599608924
-0.010068976419745957
-0.011602100863630806
-0.014529301164988323
-0.012367013078233782
0.006268736285773383
0.007931332475884359
-0.012601195684400475
-0.053447526430794035
-0.015559882820717106
0.0004034891270258859
0.01050108024276879
0.02486870094365638
0.03425822046982366
0.051556048577357856
0.010470205190604943
-0.013720874371168366
-0.23579883780888505
-0.016484436827209025
0.020216351287191233
-0.0034797367455278107
0.031307937372799154
0.07852835442669974
-0.0033026973533294645
-0.015659020530386283
0.023013154211398414
-0.01149136179631889
0.014782275452826323
0.06970893485695019
0.02738395363601742
-0.0020321752169709835
-0.04336354551235002
-0.0905307070200412
0.06499346404305215
0.07688731883272647
-0.03658592367360993
-0.005712657097506964
-0.011143848479263765
0.031419724832259785
0.051338167677599474
-0.0055750332578715
-0.04298300358871245
-0.05145758221586496
0.006449546550495995
-0.05501893893142247
0.009475218394637257
0.0019846990900357583
-0.05729689171298897
0.04648847396949234
0.11781208802009363
-0.010611777419821162
-0.012384532697317591
0.006733521251302003
-0.057604911437401915
-0.03032396268706833
0.012312801935876602
-0.09810158741898721
0.014058441053364687
0.045682653023805794
0.016732524728891265
0.03353744098034104
-0.004482907819094647
-0.021695844619340102
0.03493041897967112
-0.012398632759165888
0.005622784545611177
0.04332820780690112
-0.02381620714673023
-0.008505816918683217
0.015535249291482088
0.023270854739154984
-0.01766755902035053
0.017420609291052512
0.05143829906195617
0.003932199519963111
-0.019060464794834975
0.017115752016164554
0.0030668175819484563
-0.04086210946670898
-0.027171448385760147
-0.0039051870281208143
0.012702175104157876
0.009114505314793778
-0.03700342470014904
0.020637552814858625
-0.05056983314626559
-0.12346861548516481
-0.007968047146109191
-0.017532707379568937
0.04291891951168802
-0.022426845761481566
0.009110562505528254
-0.03195814710199635
0.03403125808089466
0.11174108493981683
0.011787353977728843
-0.010165380764437217
-0.03864574117362211
0.025085208172066
0.010055311870831954
-0.015709689142517087
0.0332016514360165
-0.005130543218728131
0.013845974686993277
0.01937130695506156
0.00028553891313052486
0.012365117637643459
-0.03233586643883064
-0.1259004558198871
-0.008354800166042555
0.017291594659802748
-0.053300870841791775
-0.016001326722303744
0.002844898396264847
0.01895837746434807
0.019017899119948365
0.023627418613313796
-0.0016436979934957188
0.05764206069604105
0.01474728779162972
-0.0008344122264444803
0.04317482095706256
-0.008891721548283672
0.016655454341301022
0.051701568184761015
0.07838038874858917
0.10780688257731023
0.04288919043815285
-0.09470205703824942
-0.03832859669618983
-0.015657573681896526
-0.01728981265201949
0.01077533697434595
-0.0036916026383894815
0.0052692675728417925
0.038426131577113984
-0.0013972931616157258
-0.04160447884582995
-0.05244721405244165
0.019033971104191662
-0.007230406649895937
-0.013320475508272572
-0.027255707848280714
-0.01703720442357518
0.025682046937475625
0.012661473405416096
-0.054577993411417974
0.020964586983878278
-0.003932161311592734
-0.051536229329136304
-0.013967985463619291
-0.007622992544293501
-0.02540356324406706
-0.0038963995969801568
0.008306830205084914
0.012134202909333341
0.04250320454588045
-0.008495066233816797
-1.2293040258256583e-05
0.020540584045093378
0.018397452780740203
-0.05636168714308649
-0.0037775966497697227
-0.001660656662125249
0.03235156151525575
-0.019461333243717377
-0.0011196417547930718
-0.03970519033683716
-0.04355598512267341
-0.0021739199243630777
0.002881480012756237
0.029269878165676964
0.013885380822568415
