0
0.053344463860171436
-0.013920344939708588
-0.011225968508765888
-0.030616442386040565
-0.025059971211095867
-0.04373686301213575
-0.0011188210221004988
-0.00018502163108345584
-0.05284763915464118
-0.03724576686789465
0.04511152026811865
0.037289970141584194
-0.03801995857252615
0.008052183740410461
0.0264029876217756
0.0155294888189604
-0.023860401995124125
0.023333727875548365
-0.043435243009573445
-0.0027621142929665915
-0.008807656525861182
0.10967107959485367
0.12655063057276106
-0.018337908259614965
0.0018229810117485548
-0.04626513694025017
0.012016998765801392
-0.035821384255104866
0.016168363589619837
0.023595906564815285
-0.21796704919203175
-0.0032195627828155897
0.03140981591569398
0.1439669312176913
0.030190309754593362
-0.062329552481350456
-0.01144433257449192
-0.004657773111083047
0.0067258897998269075
-0.04166601886222831
-0.0009326755911660513
0.03810060814839848
0.001967266916793837
0.0024169168033063952
0.016276730186869495
-0.014788461956900232
-0.026037020527514457
-0.032808271800215796
-0.020187687790056877
-0.008809853582540892
0.011696022568395035
-0.0056343333787062504
0.012633149865871923
0.010809078667731427
-0.019930357414152746
-0.007120189478617928
-0.01586690578060134
0.014091517996854154
0.027871438283399882
-0.03167745281419804
-0.026641627745857842
-0.0015578828752622128
0.0034578103387684408
0.04209375903123678
0.0028766223194608494
-0.03962835151746987
0.006714759444400621
-0.020937081073011437
-0.012665646849176836
-0.004890481432798553
-0.029724897770100987
0.033861780545109896
0.011862249948568148
0.0068998264359663615
-0.007755975289989138
0.04629999007689724
0.01902241962734786
-0.0029183021683776636
-0.07941341883938727
-0.02287842408784412
0.04333501073561196
0.050378758094798484
0.07125958878028603
-0.03248940344947018
0.013915856067087291
-0.025153993733251882
-0.019501414448690108
-0.04270915710918969
-0.005924527159196351
-0.008594594709230014
-0.005903737454527656
0.023840587152848744
0.0026052959745503546
0.008213199489795982
-0.006308831236548093
-0.02097800458842761
0.01624092358189523
0.001395186336474953
-0.0009507620945388611
-0.018371440144350583
0.0024170095906497985
0.004682744289119738
0.02050774327569688
-0.0025245864873953837
0.0009746384083253901
-0.01103002536485601
0.008509904362757767
-0.015248026918478758
-0.0023843562122746686
-0.0012126897689594162
-0.013163564938998312
0.024628504549869944
0.0038599090786128045
-0.023793087687440876
-0.011509904021102978
-0.0009742133973634946
-0.012096591459356324
0.027844882489627645
0.07019037257969404
-0.03567848456893497
-0.05868365362375742
-0.04513557105834187
-0.010051519489585912
0.002443928554987517
0.008673349041835315
-0.0351163742193172
0.06623129025177152
0.17346743873252143
0.0250809491433274
0.035171671467181816
0.0005549235020710385
0.0031767846767061765
-0.025404202017099094
-0.0050012954669820375
-0.026078154790986643
-0.030313921125582226
-0.052425610826920974
-0.05663671807496752
-0.035235931767740994
0.0071425354741048485
-0.011553240229636061
-0.03676086403861921
-0.011848088813471169
0.009752907126808671
-0.021887260532292986
0.03778749234970922
-0.008250309518542883
-0.0073651560126381235
-0.04501235299405814
-0.026790355894055318
-0.006476114742237637
0.008409289919149262
-0.03212144924491272
-0.05834175535089628
0.03254745850851422
0.0768245000528212
0.04520551593770199
-0.01743689446194783
0.005671900488504214
-0.004598683244812873
0.00735747392668663
-0.008621072440355204
0.08551231932780205
0.018022118232185833
-0.018503054263903015
0.0544808675874592
0.177426319768077
-0.019564315154606635
-0.005157131140619754
0.011117394077075859
0.1005796300760969
0.06842085271631566
-0.03379839633507666
-0.032303465790270776
-0.002097889590858275
0.024381955985581037
-0.013348747603540047
-0.028751873266557367
-0.032848219914737097
-0.006827276839216041
-0.004526702793008633
-0.05005820034627483
-0.004168104941600004
-0.015155397820197543
-0.032940564260674356
-0.025120161336558047
-0.006484781814980245
-0.11794359016713339
-0.035138752964545134
-0.018134177076099184
-0.030624403016636496
0.011024583137425811
0.05081848524034465
-0.018879652850042006
0.0629655589174174
0.025173344341928094
-0.027099270506322475
0.03958859886733401
-0.006269481456027162
-0.016159228706936833
-0.06163937542441575
0.012744555475277218
0.03606094582648696
0.03328384408634232
0.04635521886760901
0.04310083683658476
-0.03638987315060706
0.0022275219772725763
-0.03696719158231284
-0.0012992244928235813
0.0187461479387051
0.029466266186781376
0.0313167128351569
-0.009445676924362345
-0.004328418663059594
-0.0058765544538952625
0.028709312916044828
0.007177306821929332
-0.03503016559654566
0.07598427853782419
-0.06348210825485956
-0.18823832366441734
0.032540994617540224
0.0005582619176699172
-0.007926469801991718
-0.021079421798757072
0.05241133623699157
0.0006026299629823475
-0.14805049506326887
0.00275910812338084
0.011472173234997409
0.0061052935179725385
0.0038622739387738983
0.030093192179569243
0.026542395044110618
0.02996965517928389
-0.008552300364804309
0.024223263243582253
0.013735416911238247
-0.0076133167148664995
0.016518164128430494
-0.029317083340297666
0.007840123063501885
0.00427116133022821
0.06259827914036271
-0.052070914019496796
-0.0695639129714471
-0.00576851789530646
0.0005489453768489596
0.008568678822285729
0.008544966876535182
0.030423748597382682
0.03484155654149267
-0.0023443455622914897
0.030685571526590946
0.059090356433395434
-0.046298195300611224
-0.026822501980848457
0.0038799314203804445
-0.011318368339997094
-0.05003910574736404
0.1493349042870319
0.02682066125788054
-0.03522384862823213
-0.014087056363640533
0.04049928465908455
0.030342665622047786
-0.003680844905848807
0.031330752658856306
0.0005825085755032563
0.005627836828915736
-0.02467651212017056
-0.008643623479420874
0.011469644717419267
0.004636745475350285
0.03248181365867547
0.00561607066410857
0.006731799565241799
-0.02165021165140134
-0.11702622393238225
0.0037778043861690824
-0.01406254858236881
-0.009817497656862718
-0.03321825942673734
-0.058162418678711005
-0.004347937780649575
-0.0035919513419475726
-0.05446963911914878
-0.06363055782599082
-0.01580478390536743
-0.009244521681629344
-0.005125946245993257
-0.03237560766992812
-0.0032818458254031263
0.060840488357554325
0.001036683461009253
0.08955316187879052
0.07414649704520249
0.032010126795122246
-0.028730156542858317
0.0001814432137871182
0.050042173429796236
0.010770151259642065
0.0013657580884885358
-0.019741201640732214
-0.05465654251814347
-0.02201124079512078
0.013452877947939267
0.026630901899875194
-0.00437449019115726
-0.010966176086426143
-0.016823207254907623
0.02868920355405428
-0.016407264675426293
-0.011589808619426031
-0.038514348953360075
-0.0037013011008421573
-0.032652802567916965
-0.03207869277127331
-0.07156294706423004
0.09837103066124742
0.08036758294785037
-0.012547418513598065
0.04219980230417122
0.045209045138749245
-0.008498230864503067
-0.004926956897120655
-0.029315793892341024
-0.030150836794586404
-0.004243602077271154
0.008353323280850755
0.012762915444098816
-0.048621466452708546
0.03933416149423017
0.07585043683986419
-0.04109464875291711
-0.009578781546031166
-0.015805903813444183
-0.011902869723843077
-0.005632780850441904
-0.040580641055053816
0.02459265157519371
0.025418639386053626
0.017744183180327923
0.018206119296590356
0.061112809271181456
-0.0025217339146602537
-0.0038801718118402382
0.015641686236510324
0.013108943830851818
0.16666068774925158
0.10932001187830673
-0.06157856995654961
-0.10267251593407502
-0.02825548002390846
-0.021189038560304366
-0.017501977417893447
0.0021235825503800373
-0.02375559277636796
-0.02820280481025689
0.0029038219009439366
0.05903128271611545
-0.009851596208801734
-0.01952943056627307
-0.0056075998364479894
0.01670173020055079
-0.0029018429127891827
-0.05277339777571249
-0.027878239008963513
-0.04937011695894331
-0.047559497046506576
0.030591994078606115
-0.019942563809510643
-0.0012254126472526347
0.021157078184475975
0.025511546866813343
0.00505517681245311
-0.04275288347274513
0.01402843137258127
0.0023461388643111402
0.006186891191016124
0.009689857500859633
-0.021319488296436512
0.04023721696193265
-0.007541111468090585
-0.007661067783951389
0.035506149298398744
0.004831602723475407
-0.005447448205458283
-0.01299642982820569
-0.007938872656614025
-0.02119208637356416
-0.03246418555676078
-0.002648807060179199
0.006975440325096948
-0.04304440191988368
-0.013293349037742496
-0.00683906218065301
-0.05650365525542442
0.06395367927739362
0.05040910108943136
-0.018926822882848863
-0.013689583953082384
0.06065158815938444
0.015586797103145707
0.0014018720028471275
-0.025061299367245948
0.010579084190485411
0.05760772091201398
0.024011170119582845
3.512442311311601e-06
-0.021637362119912764
0.01518396204467642
0.027077251749013972
-0.005955113763655359
-0.014798361854036933
-0.009914635190659885
-0.01227386860356309
-0.04040538327408726
-0.05712591772689015
0.019029191643419065
0.06115186942309253
-0.006505784526884217
0.009468627341785127
0.010216291577921028
0.01015785348094806
-0.005878151700279317
-0.02196370471127014
0.02688513398511851
0.003637114183634573
-0.025664058977400976
-0.04373211252280354
-0.007125682348078242
-0.03764270990254017
-0.013842855088573533
-0.025238913893439952
0.004030493161341688
0.034685168090346746
-0.003558885286377673
0.006280870447247547
0.053488114033414455
0.002278466890797445
0.07800697829830555
0.014341957480552059
-0.02093169421509211
-0.018178052838920964
-0.025058888408101516
-0.018389954147667052
-0.013007912105972115
-0.012288894376510342
-0.024028917216111615
-0.007809957712665087
-0.007171572355786199
-0.11251715009189574
-0.06568254331423438
0.014127462045703379
-0.023606488887301064
-0.009357793553211067
-0.007706485503231865
0.01399090106542398
0.05628577043478861
0.07734678704650953
-0.06011561686627149
0.06851797601371881
0.09716509517237688
0.007114637682647588
0.007445576117664941
-0.027070260194238742
-0.07538323012842979
0.0965168805866962
0.0594394303887607
0.015467071959988248
0.10525684859570458
-0.02190762583347207
0.010435879884011888
0.029198664764056578
0.0060685404825832345
0.012762884563539498
-0.009970911356355965
0.00816313764875671
-0.000793486284773843
0.017587165059131996
0.005523153143084918
-0.012359632858291307
-0.005760254608625979
-0.098933466486978
-0.033076372208504755
0.03257508398221071
0.031706373491973965
0.03909787173831218
-0.024859676956874664
-0.021567786411463414
0.01767924162000473
0.0026064513461515203
-0.01967053348837951
-0.02926973336138573
0.0033307422841490964
-0.048611322227998084
-0.042784362602755366
0.018388170016712207
0.022363402411996035
0.027089372853523162
-0.17600185686214725
-0.04447305676789397
0.025326554566777213
-0.027655994845378437
0.016169612514509983
0.02772925135056453
0.037110092376877735
0.0443326128458153
0.05517524943946851
-0.1303248249306068
-0.19955527398573553
0.05866598481057875
-0.0040282843614358535
0.004267456010039887
-0.02031830086342895
0.0002691419063907878
0.009451610719364392
0.006178432556706809
0.025686412053767125
-0.025825568749727152
-0.003953898523254502
0.10429901054627448
0.06501828304193963
-0.015018194372822348
-0.00516514695839733
0.04614075546732961
0.043987919577583766
0.015258721713400867
-0.01139543387346446
-0.03870968375673702
-0.0071208966468456125
-0.03418545444651952
0.019655699359412967
0.030868168774166743
-0.023038674173287827
0.06646583472272491
0.04139912205173962
-0.02640520095229271
-0.05176513086083333
-0.01761083620985677
0.026847012593018003
0.004905944672237462
0.015219840448729224
-0.0025368191909333044
-0.0407129299297529
0.029480266333045433
0.0228059863874442
0.03193107170930917
0.060797102204088
-0.01812410195785121
-0.07002315687234376
-0.04800394968503077
-0.0028888982979660663
0.01990177506812587
-0.0014604191968034118
-0.027713610414189276
0.0007915287138238029
0.0569424148694082
0.09199873476733154
0.021676225352723517
-0.024458612399007096
-0.02868468953694342
-0.010023478651357129
-0.01351943737098655
-0.029532475654798714
-0.04436929743673686
-0.014002423303713466
0.0036089000088822694
-0.022385679311848743
0.058346515640854954
0.0160048871966748
-0.041955373958559174
-0.03387862715508776
0.029427529140070924
0.01535726948266043
0.0037681567933285794
0.024943032022395728
0.019256902544940335
0.005493717950095441
-0.015013869982663222
0.0065492930584611165
0.0020136126855438545
-0.011984886024101539
0.005471718653926215
-0.0055729930906303704
-0.16402996733937503
-0.03079723618819417
0.028065847831968218
0.08335647830258384
0.1416333495171057
-0.015243949429605684
-0.010057988084227268
0.0008394579449313372
-0.00574441204292793
-0.018992411308976814
0.0011135395459759589
-0.03362970949487426
0.0014250289188305855
-0.020673394959787927
-0.015974885479316095
0.02486204875483039
-0.008762424967537152
0.0017775748733833234
-0.03989263199519611
-0.014855783807860647
0.033678067578734254
-0.035444377859509484
0.01850102549890683
0.005436942831840188
0.0023347647351493624
0.02126110823122821
-0.18099468049622847
-0.0721218292254634
0.04255393661161929
-0.023365261075655955
-0.01372158828957914
-0.025241949552826232
0.015855344032973926
0.02104684993653735
0.1526452103410472
0.18251126130407405
-0.013924078458706218
-0.02640800785433294
0.0031650247381835406
-0.022802420011102335
0.020879878429574915
-0.0026262244090277196
0.06916635686024394
0.06169596333172752
-0.026695376395601846
-0.02897160716229024
-0.014931610879323735
0.011806656570488567
-0.01016295034457478
-0.003874324291580994
-0.015663334239263495
-0.027519019007215408
-0.016782427372078534
0.012234054977328858
0.017825219459536905
-0.0008883834968999723
0.0027307197331137185
-0.032082190143059366
-0.011293163331618547
-0.0045347209281788765
-0.02954481417956433
0.12679366042487902
0.03192117371124973
-0.04635142272482006
-0.0008509589491102638
0.017926988623770203
0.05400528933631754
-0.14119649100386483
-0.09144356013972714
0.017034895698324944
0.07004636400506539
0.03697889597709271
-0.0184287593499749
-0.03646718349669209
-0.07951715403940364
0.05650526100481702
-0.024861278700577364
0.009242818536680093
-0.025328566670899777
-0.02454355702152678
0.012334222655383252
0.03846534951557829
0.020779510583015845
0.021385541481849332
0.026377174833660203
0.026840030586724312
-0.01135162018889368
-0.009828594254138314
-0.01579244289951715
-0.03023985423641727
-0.035015439227269046
0.019304643213035086
-0.19942167509203443
-0.05497142388072909
0.10234848474550351
0.010458105428868244
0.035464419432327206
0.017035588084532562
-0.019925519746824202
0.029521076328503818
-0.01906854875395995
0.0415900156636707
0.11007547615595374
0.040928607062790896
-0.0019043403668251172
0.0028321100429609444
0.013301171917804472
0.010281791092099759
-0.015410130963971438
-0.011806747928168503
0.008322345475339919
-0.04142185927372731
0.03923041434488871
-0.166994003279905
-0.12164105678861525
0.036084793125361836
-0.03337644408110867
0.009918968348709018
-0.09047451262183243
0.006545502575307658
0.15378905249966712
-0.00391249388251734
0.02026327375538922
0.0534960225968718
0.010038287696302267
-0.03900301344505074
0.011283010584202547
-0.018425810298369864
0.013686912214463382
-0.0030836590062576805
0.00715670722168389
0.17432572430710505
0.007953282251800961
0.0059749871598395255
0.04991055424637425
0.017391390213074613
-0.015084408767572555
-0.008548752693830113
0.012008762789872536
-0.02225771684802001
0.04851015885047403
-0.0974689172651133
-0.04721202643111369
0.020190730075762983
0.0038781101152742864
0.04556823934721449
0.00951096399394916
-0.0736411135106609
-0.17724719296766156
0.03880649081058794
-0.02477432986872423
0.04701861500982748
-0.07559764110014254
-0.037815641305816584
-0.009682858769892683
0.0473067941835277
0.047632003085757706
0.029169310582688547
-0.009783032658011554
-0.016201016269174126
0.02308136802017974
-0.009902947027285858
-0.03501042269421757
0.01391723212927008
-0.02308162572438325
-0.012447047947215692
-0.005999659155472158
0.04605864174513775
0.15796456638927553
-0.009411014597288235
-0.0049923267121500334
-0.020114291022061723
0.0010345884102954488
-0.0006462761987217453
-0.042244380073092655
-0.009922090243052042
0.02007548504622759
-0.006651128659748085
0.05912699807122987
-0.010290177581560799
-0.04974450172532622
0.04794780494515683
-0.04247128322811281
0.02166326501488784
0.08417773713793646
0.013640417286503132
-0.02012643554895442
-0.004313081162873332
0.004841758117838733
-0.0018556663714250222
-0.08713452636254734
-0.030391762370610677
-0.08914813577896298
-0.03074851023795978
0.013282331593408863
0.06833945084061298
0.03648078205040644
0.00652285815863267
0.004759222983561014
0.028783357712152582
-0.007826370534197647
-0.0037144428459428298
-0.03460383765280913
-0.004257942889912073
0.011281753471413525
-0.03610526089685336
0.02380766847696284
0.1110986778029912
0.03262676495500386
-0.07666365297215888
-0.16425361304868696
-0.012473731598678265
-0.029685607375173093
-0.0028296074071483724
-0.05420870354292956
0.0845444570612783
0.0742655743748269
0.004776498242834694
0.0220818207505799
-0.01909558787947041
-0.0054178190091434516
-0.01677468286677073
-0.011237637847422526
0.028544763035973808
-0.0014777860469097459
0.011190215278189683
-0.036293625974717934
0.1154613728142212
0.11975056730037922
-0.0350734904358312
-0.01862197855018436
-0.049524122537225004
0.04685725490894526
-0.004733771431329528
-0.017477261438264415
-0.027097009050053255
-0.007319912999492153
0.001291634568284233
-0.0032400058721790857
-0.011779631595004373
0.013846422280419933
-0.060906360567132445
0.007080338749008232
0.061670397656393226
0.006959158988272917
0.028448448616212277
0.005581553842041945
-0.004538196940629171
-0.01283002610817375
-0.02141592237244546
-0.03017793639915877
-0.001524376173961671
0.010726150712614263
-0.0018140370420139018
-0.009619360368604907
-0.0055579279745182186
-0.008989970112034014
0.024310815020374556
-0.05007417726585271
-0.03391311502399068
-0.004991429486260036
0.0022214219713596753
0.006334015948922549
0.02419907399309614
0.027262087204867308
-0.010672555759715756
0.029560364000192067
-0.009312999264133141
-0.013045459021862799
0.00538541758471557
-0.012054408401033183
0.01631071526056876
-0.015916448194402293
-0.0038886657628048166
-0.02486006227875008
-0.029638439756656598
-0.02078419824855608
0.04251909696730117
0.014584021590470089
0.06197689817997293
0.017348681810595394
-0.01828736610888394
-0.004670350567541784
0.013859709313329046
-0.05462197454301043
-0.004077943093929883
-0.010623382402706542
-0.057238154980749786
0.019992028006417032
0.026378837244509963
0.08654250169658532
-0.011393947406387673
0.03998331422452901
-0.013530570445531966
-0.022852278062006355
-0.0367658758876635
0.016770969654311404
0.021397300630116356
0.05272702518113587
0.011491987425416595
-0.005717047005853114
-0.01717268287320417
-0.01275111192572039
-0.1285302570437371
0.010115518998768565
-0.03496280319944143
-0.003330947019442104
0.04078564643943308
0.005460879199080014
0.01413220802658184
-0.02202223789077127
-0.02967217924900384
0.03303138107994738
-0.01321033291189932
-0.004478488446495411
0.005619994054140075
0.028989515959392215
0.019663339731529082
0.005823951870173505
-0.005850149284879393
-0.03535900866701162
-0.008997764565743891
-0.02076907754282676
-0.02582450472834909
-0.020250615619957682
-0.04203235380754136
0.008945036486052702
0.035693774082866774
0.032868691308708994
-0.0007050780421609369
-0.011811518787011383
0.03277698524415059
-0.002192856948366253
-0.0075177189566103635
-0.0633224634017873
0.18608581373730523
0.06664309276011957
-0.045531089528092455
0.05823793070494855
-0.017374694636205543
0.013136033306916674
0.0222515956170765
0.013487611653931749
-0.009934362757017486
0.015063689514993116
-0.022682927485487447
0.0018161341450247663
-0.03970949017952793
-0.056019747473055374
0.003553867207296695
-0.0062901552961658475
0.001484896027611908
-0.027983715998316974
-0.02572739513084689
-0.011764959112410708
-0.01941466097799822
-0.07165620117641613
0.003908238114449321
-0.05425341249925045
0.035951471508371496
0.04672347209813169
-0.02272781156543156
0.011483740194562053
0.0063227139374366905
-0.04569440443614166
-0.028570163515437872
-0.0313903351605092
0.08567233698918206
0.17292945908443566
-0.0002530051371244075
-0.008039861853328311
-0.0011420459292844159
0.021846688821532147
-0.003817616765140298
0.08517886803078352
0.037754719970471404
-0.027686064064930946
-0.04904735218373635
-0.009135065161498358
0.030570057280111113
-0.019198131785656082
-0.024263817703639105
0.043434980542296525
-0.03008107297430856
0.025831171004848476
-0.03406998695219178
-0.0788532640259895
-0.033788278077636916
-0.0024613807440639498
-0.007869773873795552
-0.06480721017477276
0.010028738878962322
0.008738796739347063
-0.0033691660778644916
0.02707089643549724
-0.036531819105827416
-0.024307953609806268
-0.004954951103495616
-0.0243307416636921
0.032718380274669334
0.0028378920030637422
0.01055568263956238
0.0012875740303480202
-0.04272635222653139
0.016128453272018353
0.04110125638153491
-0.008683711961621767
0.02226636502778029
0.026350930501902518
0.010400669260764462
-0.027663894132157574
-0.025403007632996726
0.024475461668726467
0.02978650211953354
0.043043426084131434
-0.0042664480077370635
-0.023046170387318973
0.02645476136536499
-0.004200093664210471
-0.03793240196970321
-0.01186107716277381
0.06551495305498248
0.07106758650457283
0.015777267473207027
-0.031003643403527088
0.009528386976510449
0.04544821945589371
-0.0291935554997532
-0.033126462659000364
-0.005590625486255974
0.06923941316741032
-0.005265224983190384
-0.03559758012394549
-0.016871041340226017
-0.0032510885893934677
-0.028705186988531757
-0.018401864622968445
0.006851444108942107
-0.07623269061538156
-0.019641708629206167
0.010284981776364211
-0.00013179023492995788
0.015786671288680186
-0.013327547659763801
-0.010106039510850609
-0.007271872444749051
0.01555073903264411
0.0010912665999005112
-0.060886969839125414
-0.14280614753816295
0.18615676016993774
0.09480720106973936
0.03518739117893052
-0.17685515445571542
-0.055593684272812215
0.09964667764893169
0.01549225510756801
-0.006244682845586594
0.03940670278474034
-0.003860316759082629
-0.016363090218632928
0.036790018621405185
-0.006527024764230818
-0.037482393571267335
-0.04743812567571486
0.040559183012621736
0.03819054757434382
-0.016435285455972042
-0.016751106428249164
-0.005547031758812242
-0.00045709623672708427
-0.031103186847597622
0.00685945792279057
0.004106718858622667
0.008032083618152662
-0.001501559379131809
0.020015051702868623
-0.022059118287484157
0.02102063269542266
0.07150479045984595
0.02717146571591463
-0.004447042718160886
0.07974788851179983
0.042238555150783744
0.0737993673551362
-0.11222527360338883
-0.08208035836738233
0.02878539574467716
-0.0312643227214328
0.01247981854529995
-0.014315749029498042
-0.009763785953365816
0.00783062193052658
-0.007661039270692662
-0.03833385337833532
-0.05554831725639644
-0.007953670717191734
0.050029332329553755
-0.01985421321051711
0.021270532852723248
0.0034528263907707807
-0.0289592758368755
-0.002498859492895152
-0.022746529079412835
0.008971630569288788
-0.016819095281209073
-0.06603062558562595
0.005863228447695281
0.023694644504835972
0.015495406968840908
0.019685736164487357
0.0215114483650006
0.04077444642368357
0.11402566553333641
0.020997637898737858
-0.04848298266625141
-0.02379815802353053
0.00820419973220703
-0.025661271082959847
-0.015071819422341873
-0.011682967496656062
-0.01913253307202678
-0.029203380242303893
-0.016568561125477645
-0.0224891628906111
0.004009100137067735
0.004177794874251278
0.016879005169508406
-0.004828546505319598
0.015559237292820672
-0.008954202931241472
0.020107963422258218
0.03295856049395504
0.05404181780445059
0.03563655671996199
0.031863662739755154
0.015623488078220057
-0.01595458683972146
-0.07561542146101785
-0.03834433049745788
0.05152202912429004
0.00967910980087424
0.03698512352159991
0.025327180845777182
-0.054019009598579935
-0.05806881954778965
-0.05060073531580668
-0.024571354187270078
-0.013136785537316998
-0.006355117506238642
-0.017904085868893607
-0.024560718409623504
-0.008965214936606174
0.05027833471360504
0.022026553236330945
0.0013440101800116966
0.0015293922123925327
-0.034950371668182593
-0.019609604499554865
0.004451871961131895
0.04869253483678116
0.011227555387061763
0.010349646705907841
0.014993202912682422
0.021575067815316054
-0.0025508454066997845
0.023242975255416465
-0.02695785118900686
0.033777406015626406
-0.024482509843419317
-0.053274876583082935
-0.0044179350053018054
0.003996080801072445
-0.02027095950906507
-0.002226001951897918
-0.020755699101457203
0.004978322129139048
-0.00234623421005103
0.013831647882521215
0.06757151218391057
-0.007780060123321951
-0.030690785105166773
-0.010304941165188031
-0.020074236154960384
0.00374420022332353
-0.00028974325312350227
0.022845684819134605
0.09378481341330114
-0.023474449565539134
-0.005978886978404717
0.024718542297215342
0.032868066607834444
-0.009229734323554674
0.0021372559086332422
0.0037865644780806316
-0.07470201350880462
-0.011928433502983197
0.003752091510584979
0.01785632510025697
0.03784860010647571
0.001596313185278672
-0.03746916978560148
-0.028017661155077426
0.01636474265388609
-0.058162997418904315
0.0010940101001005282
0.00579233496404509
-0.0018121557701189556
0.03337659870744686
0.009419942168244766
-0.016573280310819054
-0.004248793507503373
-0.03094571746701166
-0.033426714212659324
-0.007901126315513107
0.0725948837503761
0.05341725442508153
0.04761181519592225
0.08060690010463983
0.02967938788019187
-0.0678513990191623
-0.0566314340760488
0.017553355815912774
0.04397079682051925
-0.004496601333476971
-0.0475178753069117
0.06275148794392597
0.05571581144729128
-0.023008710468690845
-0.05237255784717831
-0.03194452790837195
-0.12755281410469868
-0.013050344094764348
-0.021659033575950306
-0.007716842088970749
0.05847072040649495
-0.02204501397809869
0.11292630132156468
0.09539527781173184
-0.15398976611948226
0.003859668191018321
0.05045192947110834
-0.030025552724534263
-0.01761749133456646
0.003930405326122324
0.014459223612329765
0.029032007011315277
-0.03310583287048702
-0.0056186497459039
0.0013761179455007266
-0.006630480549929591
-0.002234183976150365
0.002827857037902484
0.016645107632734402
-0.050363013252019036
-0.01719636031302891
-0.05899626474185364
-0.05034026278806631
0.029776456427192222
0.04892520840489839
-0.0031624274090790005
-0.0018809860849941084
-0.04760870230363179
-0.04795445798981015
-0.0052367532766122256
0.03423920643900325
-0.0009542178168494808
-0.02857155333139375
0.002560799722016533
-0.0009351451113557496
-0.0006095251690644147
-0.020795288678784638
0.10031867179905267
0.04695417765656117
-0.01212065330313239
0.013916757059348259
-0.025630391449992605
0.0531849722268407
-0.016716178410907143
-0.019678299773572636
-0.014740203404007722
-0.01791848690553396
-0.020023875126365408
0.015120144170764644
0.03354046682921765
0.02683658001332992
-0.03979013488059293
0.0587543801914616
0.09611809481951956
-0.054952044031707344
0.13507252218403565
0.022020314818722353
-0.03146965242957305
0.04883883221399823
-0.006366914841405092
-0.028771105096394127
-0.036845858268102515
0.04527484398582064
0.00611703561379111
-0.014054059043617971
-0.005215422076865468
-0.006145599091693231
-0.029675172750590798
-0.006102745325876057
0.04022317852436487
-0.01434997446652153
-0.03331588260531188
-0.02483114885126662
-0.0024126184250299267
-0.03436506092900281
-0.01578249734343836
-0.044278743962893635
-0.06761570681573445
0.01031918051637846
0.011235177837869112
0.010385203729706681
-0.014621682641864675
-0.017935944638099454
-0.01902065777752739
-0.004987582292158129
0.014663696710786846
-0.013423125887770001
-0.024317057348575952
0.016032779219832264
-0.015356802314677533
-0.02284283123540467
-0.011987973858188353
0.03095970245959754
0.020402313056691376
-0.00817065890902879
-0.015254996796272161
-0.005831042907628571
0.03293948388654024
-0.023590847511950733
0.07831309078040341
0.02270448870646428
0.005878522273204653
0.05524531545115088
0.013741611653960817
-0.02431081482448755
0.022724841081580422
0.014132909508497089
-0.023241356208680605
-0.00043232405016861903
-0.0008034394410454411
0.005731035871970371
0.1372899773153516
-0.03521003451746468
-0.025711238267859367
-0.013597296465589288
-0.03402185436903406
0.024501644988168324
0.0468474116533286
-0.02521189030204078
-0.03622392558299452
-0.012121137539549293
0.021372687334061252
-0.01628216679165121
-0.03652340979753761
0.03124603640537424
0.006622990043619388
0.012687347084578094
-0.044971505887475886
-0.17175398655182406
0.02644681732633665
0.010852633746064308
-0.004750679573618721
0.010515245647556931
-0.004919380202508727
0.032124771065494835
-0.002622219429641031
-0.008072399251585758
-0.028785595081463885
0.003749784350021674
-0.01954069232272557
0.002429932431469376
-0.02156767415815247
-0.06086078059492497
0.008354193969630571
0.19015486798796935
0.03569403786573926
-0.058614578589522494
-0.009447932031549418
-0.03712176583205958
-0.006477086854150421
0.004165489359099584
-0.029563858984804486
-0.051578517728276624
-0.002911197244882129
0.0718508401049455
0.06548992030814865
-0.00916486919160113
-0.027652489466386175
0.012824195684286804
0.0863643242890532
0.03662391451994871
0.0030168228992302547
-0.01377960221391874
0.006653058243820532
0.0032343496122621018
-0.019891513487986328
-0.03467014514702434
0.030635427499981147
-0.018512934925931077
-0.09775951671040821
-0.002392380958598302
-0.0330109156622317
-0.015537655736878217
0.08122749743718397
0.032416885986212535
-0.02167805678487368
0.06100354801853079
0.013974477409204227
-0.00950487674452175
-0.0534049506907515
0.02024216958651564
0.042153269334690026
-0.011348871266270967
0.040724427122451744
0.01453908113269094
-0.019656920797250284
-0.021389088600377772
-0.0005578313564313285
0.013216102787309792
-0.02173341323371673
0.008556392887633522
-0.015328524457929269
-0.06682575649888528
-0.055716093038076606
0.009120520522719777
-0.0199099912450138
0.01722388365001179
0.0035652101789548757
0.01995074404836801
0.07794422447296563
0.06585258962821333
-0.055073984474063566
-0.05671952245653889
0.014632878560556025
-0.03402642538563526
-0.011683893208146771
0.020128918188438354
0.006920367261334998
0.002660926938497357
0.03641242607920806
-0.016136274129675655
0.0023137159331008206
0.014247031924149344
-0.029388597241173136
0.016642132424682814
-0.007560191007887813
0.034554263259131565
0.003784572284193146
0.013471510398418901
0.029408583805407392
-0.005905349798956512
-0.010188652636792738
-0.01203118082395175
0.001590573112932973
0.008164650082326298
0.011616227143782633
0.012561036338215363
0.005858663082773358
0.02127499725145892
0.0014182609788946567
-0.02287679784828033
-0.04317496396104863
-0.04460609479171046
-0.06637389831551058
-0.030247973534078508
-0.10838208696597139
-0.011912054627400557
0.0830667297036098
0.02275110706246786
-0.03139954830736733
0.054084361415026205
0.03623099107200016
-0.026637913952300987
0.0014143528979115843
0.03532907212824406
0.0007054123034413946
-0.050963691068714574
0.003410470820806452
-0.020982871509509105
-0.03889963659270061
-0.01227793729801651
-0.01758473111358994
0.018823036592799932
0.007814633586511948
-0.04802202046127557
-0.02811383291077216
0.13009987961812738
0.12314690968099999
0.0034643510063859548
-0.01286286566295213
-0.04270423423518461
-0.004351547501956481
-0.004823912805412557
0.06020336087923136
-0.05453324543302293
0.017837576506804675
0.01682221303499756
0.01100138262431022
-0.023585486378893506
-0.011214741211947772
-0.010002441236710142
0.0030070211070615262
0.018819206365117854
0.007680839988198518
-0.01926908976170507
-0.059454476759505194
0.022291891596007914
-0.002014983095420421
