0
-0.04177379855460683
0.002348334596894338
-0.01703599483822945
-0.03857181499924155
0.004547973175640586
-0.008681137849469717
-0.0007863629207546362
-0.013775053763190577
-0.028407176310659338
-0.02445148405666117
-0.034532050468864914
-0.026238957530680646
0.012188184329526022
0.027935421479096424
-0.02702102746058347
-0.01068264039556177
-0.008628482308256162
0.05788055904518455
0.1445960120371201
-0.0882415669742125
-0.08530619238416158
-0.07724285380622134
0.014986982074282285
0.04537309752931807
-0.02732530928684939
-0.0327320140920085
-0.022658166652574026
0.0622234090841991
0.012456609909027343
0.09461771597312224
0.07270959632549659
-0.0409459311393256
-0.04288707341793146
0.026817943852692674
0.0511683799523637
0.0062202517205682
0.03642214920687893
0.001853277760741792
0.0054075116271048215
0.0380944549627418
-0.0015572321751296052
-0.05671285119317051
0.01569761439797515
0.019611869867477053
0.05647585343978893
-0.02947267066528055
-0.14992328219884385
-0.003086979194839714
-0.01439916179144394
-0.048163967883968456
-0.00939495703721518
-0.007531443767816825
0.01787067120787921
0.009843000508839034
-0.035534752512018486
-0.048891285271031905
-0.024143892690041257
-0.0496103055597477
-0.02063349151827682
0.004997781879787528
-0.06319839879030982
-0.008935720329935832
-0.021419705449884426
0.09553287367750433
0.06064285568369427
0.0019333286847379048
0.09438524409719562
0.0017184349465174124
-0.0024569354539934634
-0.018559311406641778
-0.011132307136707036
-0.007346067900224783
-0.023434387713813235
0.019709907361438784
0.056522067031312434
0.01736798662964193
-0.060129621042575715
0.023367173533593903
0.05588566538632473
-0.00478187179199688
-0.05926637876930751
-0.026801282559528586
-0.015419965705031694
0.0012083583291347963
0.008565490123023772
-0.04936589177209858
-0.0001655986663479294
0.0565426403647576
0.028753570486811823
-0.0010234269719210738
0.05104016329455809
0.009625208896142623
-0.011909239069382278
0.0017962437769662362
0.039212943043585226
0.02701207391683544
0.048083563770824685
-0.009336405910218443
-0.013954846907986134
-0.020769877408545495
0.012270103687232197
0.015836472663703756
-0.02060649723823699
-0.042505525964741095
-0.054859625868058606
-0.04487236283551833
-0.016044317660654683
-0.006170199721151215
-0.029771065050319238
0.01051159852600064
0.04753751878282695
-0.012681165025117399
-0.004750623967938671
0.0699698149567544
-0.00524574266868054
-0.009855802344164073
-0.03179197215158702
0.08709441447509803
0.08222645338877921
0.059831838571072646
-0.019529160205042098
-0.027069157119751257
-0.0011817382830306995
-0.016647066557506182
0.008970539303212316
0.03498530056833919
0.02584331738590283
-0.05642906365101218
-0.0005938407308617546
0.007130506254601217
-0.007452632599768832
-0.04144815119842413
-0.028265291077207978
-0.0012949243535031153
-0.08159535963750582
-0.08610275472135917
0.02535233429667126
-0.015731963545182002
0.015878344705978497
-0.028190649747047603
-0.03662911138978822
-0.03238172799650663
0.1522210933408214
0.08616431537577358
-0.014442898875561199
0.016807150400268214
-0.004689369218650977
0.037288955110710474
0.0029094360374563124
0.010792590773205652
-0.026949770978388337
-0.017575708117671642
0.0028875147070623083
-0.0344740184583386
-0.02581717880472565
-0.03329862107049799
-0.009302684655276632
0.027611956760850244
0.018698630346253374
-0.028957564523939397
0.00251119344852966
0.022845008770558763
-0.056476369510825894
-0.021849126796324825
-0.004502569823515275
0.007918274231667327
-0.002610553577254552
-0.016599105254586893
0.014747526016383268
-0.029350500445827925
-0.0002926896409104108
0.0026518186842339384
0.003292615915806915
-0.0005712869470253271
-0.05344062465617314
-0.025782804366466208
0.016761202363872893
-0.010958886720849206
0.0008326727336379586
0.005356405136301168
-0.009094244484815914
0.018951453047344604
0.03726527389814155
0.01780367674454448
-0.004663458981816898
0.041190754578281794
-0.005370231179644863
0.029809127127653733
0.001503815997176092
0.011844512033497066
0.03598002914290029
-0.0403461379393744
0.00565009557712548
0.1284131728637732
0.021572374520896675
-0.004978777600052542
0.05589500064291227
-0.048349637621881505
-0.022567603252101776
0.007005022349197202
-0.01814146559598916
-0.06132848323340921
0.01594012288150017
-0.02947601363130816
0.042646641382896144
0.12554167656716725
-0.013139876288710663
-0.023265001476941917
0.034766571700966524
0.035065841605310115
0.030243320416985357
-0.10258584290609626
-0.17211713598345751
0.06059018381553063
0.02605357047738354
-0.0008704835401680147
-0.05500131445537744
0.027556597172709495
0.006247559565650242
0.006127116607760953
-0.016480482605048852
-0.004538716811392422
-0.007296145590311466
0.023398656557661265
-0.01724351159344588
0.018892033434679992
-0.08148056596128256
-0.08775162913206952
0.04264489578608866
0.002237600415001837
0.048349681061884794
0.003271882471715088
-0.038273063746608896
-0.025978781689939882
0.028259323681930622
0.03304789565814197
0.0006062604108843196
-0.0037527806105254447
0.0047938186340897365
-0.023197573582502306
0.05140589219334558
-0.008594233984484978
0.021216362999621003
-0.0005970664104679026
0.014705732469298299
-0.0032556652260380173
0.009044051335027208
-0.042258558663989504
-0.08842117994312913
-0.049737595776799655
-0.012633670577470387
-0.06755388057226315
0.024111605987292676
0.0821733506603173
-0.0042355485287895464
0.0027036375564805626
0.009960253378937417
0.055376416987759455
-0.013406862135183573
0.013935748844531257
0.028805454968500788
0.008649221484361034
0.017257565612458038
0.03948630205144415
-0.006003401604132571
-0.00026228370887190457
-0.00551755775317848
0.03740982065583038
-0.002040540495119781
-0.0008133928495640176
-0.026773159704827458
0.010712590969362723
0.01721434676217649
0.03502718776625601
0.0006557012659528346
-0.0388977453578713
-0.04772101591905193
-0.03857690130082282
0.0030476664247144013
-0.003854417049449787
0.05754478672701057
0.009750810968274687
0.025903702606385443
0.04570647509398748
-0.023436990202957215
-0.0019485409837119408
-0.016039280502501214
0.03258387338181084
0.00542109401446259
0.0014315029115099472
-0.028045572716414342
-0.08566479764289263
-0.05804030833564111
0.07931499099233018
0.04726276029109242
-0.03241406348373663
-0.019930019729033965
0.001789077739276911
-0.012428750503286986
-0.01427083054008293
-0.0022047157028066244
0.024624952872020576
-0.027970015411725474
0.004036623611451246
0.012829246153734954
0.015577165283998981
-0.012282177098049456
-0.05545710590843096
-0.07470265272738054
0.014487322120379361
-0.012032792070951126
0.16155668091818903
0.03769278130969652
-0.00840038586560419
0.016352843422810487
-0.01889670842553813
0.020070952470213375
-0.014545929644916418
0.013272372181308884
0.005076393675944446
-0.05347876745178684
-0.014653533769669347
-0.003926703826123225
-0.03352583313187399
-0.03933837568498608
-0.01098948061776052
-0.11752967919151121
0.017045712621889714
0.03260746661020134
-0.031684927025234115
0.0020617952351379538
0.045070457910477764
0.010729502464869279
-0.018203591169450126
0.05108417865659016
0.028041414157812597
-0.009908968753831045
-0.00837262983760751
0.026987004623911078
-0.019034487150528686
0.01784695313271264
0.04826466594572031
-0.04475043650836424
-0.012924450201341427
-0.004345137448759674
-0.030084161753288097
-0.054303678775400176
0.029776918422291427
0.03341976682391372
0.03801388441412939
-0.020080510311064136
0.021364313239850732
0.1947376345491634
0.002354239352732417
-0.004890443347102354
0.004625421214201384
0.016296074184670245
0.0010250171709625996
0.010735424756084808
-0.09778681043893714
-0.057469516810759576
-0.02137024494603443
-0.0216847892095292
0.018455457737835256
0.06318465628884913
0.04522010002679757
-0.017824382324677517
0.035228677035732306
0.03861655093137088
-0.030923085167148548
-0.00015773283562908142
-0.01891995214517141
0.01678032886145343
-0.0017004412682075734
-0.004606546973823301
0.017792692132533316
0.03569985173939868
-0.0536939729772921
-0.009066804179548743
-0.03849194431744263
-0.034929985647350656
-0.07660084767617129
-0.2209821668412367
-0.022312210325197795
0.03368210739561857
0.004054658383351016
0.05961873158340055
0.03169082490089746
-0.018224013282760205
0.013196949215220948
0.005709835994356624
0.009408193018480563
0.06761646478127395
0.044158947780214085
-0.04628526090353151
0.00743254564791856
0.025538481113275512
0.02932425831755255
0.014645499238070165
-0.026152918720422923
0.0054497879678671165
-0.029817601301829845
-0.018278763236972126
0.01706126822725734
0.014821136796362242
-0.006087319805996876
-0.04443707955642568
-0.003090110781663435
-0.01990600704711277
0.004672915814454414
0.013537106298130194
-0.027030665898538125
0.0475869257662521
0.07681308782901482
0.021699561819999647
-0.00979285433143391
-0.028718761345791544
-0.008122714031548009
-0.014478698832300557
0.02391740869026201
-0.020827345632341933
-0.027190472422693034
0.0017541503716883122
0.035910726051454775
-0.01857323081404292
-0.03560999720108175
0.05498279537745299
0.00711753246227471
-0.008414916377064569
-0.03379085692105368
-0.011161326189364594
-0.0017382425464296956
-0.001298418294760865
0.006003594295981439
-0.0007146452896184051
0.04008294347692956
-0.02971823571641174
0.05360584646564597
0.12872651808448166
-0.016010956442750926
0.013280905643737472
-0.015611976276866986
-0.0003663645514617444
0.052176382040489494
0.009329726329134279
-0.08846948499884785
-0.005013292320516461
0.058898027639381414
-0.0001397882740660239
-0.029349225400737432
-0.012103354593585896
0.007603498743016309
0.029745763795956597
-0.002303851661872258
0.004488961524802175
-0.02039902441139348
-0.05475937173365065
-0.041865488386904584
0.005171035288898452
-0.013314552071213853
0.00016551322143625548
0.05351969315358614
0.00707061029855701
0.024916792980594776
-0.0015380092277123467
0.014516732422683063
-0.02296096284346963
-0.0487966592007619
0.0009873788598524721
-0.013858971887976083
0.07558638785621971
0.018956049694726557
-0.019976632719423466
-0.14082734093225344
-0.06371339928303235
0.030783533260412298
-0.0038170085655988887
-0.011116787959033677
-0.011550962993772522
-0.04502170889462099
-0.057331610278892504
-0.0029626605891532984
-0.028075305073110218
-0.12325048504555804
-0.02014683169361053
0.03273154658234153
0.1064287685554311
0.11492373483865663
0.05310612002261983
0.018611877055417128
0.10554299299144863
0.006857982816917127
-0.036240723639705985
0.009921996904639852
0.050944659370437184
0.04770593188543962
-0.007988616287443618
0.10760543016023744
0.039968461371010275
-0.036202797124989736
-0.034071650349243456
-0.18600794907076912
0.0033988300592203854
-0.04514779937131981
-0.05831896973778247
-0.05981421053272444
0.012700322405704163
0.03716304222285926
0.0031142189395476257
0.024609555574190856
0.04675733462622486
-0.022017724212753234
0.02415963691399472
0.021537364182151516
0.0318285557651766
-0.013702729878135218
0.00333361317912535
-0.039579016076706386
0.023711030137041986
0.04332899386735558
-0.07172912636105169
-0.015780181234513368
0.029666966060444586
-0.012796799917946364
0.010323486414413255
-0.014035469902219048
-0.071645757213838
0.006243879567034528
0.0145221570856371
0.05125929889214954
0.035962681919343674
0.008730494178579504
-0.009357828798666713
0.005832593021694789
-0.012920934877218375
-0.0034011283262012893
-0.016631419406556013
-0.04194493389531471
0.03457822749015254
0.0462354261583589
-0.04163968543046515
-0.018066653367442582
0.02633256935795279
-0.014904720553452473
-0.017250415363415816
0.024819124300572384
0.02448862175614019
-0.00912462090338484
-0.046483652629761375
-0.015594296538307689
0.043573727340207646
0.037529803631270585
0.017771242222516536
0.026986547131722927
0.010349438325632425
0.011502200090242326
0.0016643838671806586
-0.03338709908455355
-0.038293670189144105
-0.007774301312314327
0.017476304700888873
-0.00017264900982478243
-0.04756189361898731
-0.041463961582053295
-0.047221236702087076
-0.025494601846973122
-0.0056543370900505275
0.001600081831833397
0.028112568493528528
0.025635014797415093
-0.028537117340324974
0.018535714998942934
-0.023600653985663363
-0.005283985164133576
-0.032154913997039083
-0.05060702671757446
0.03226273976788472
0.14045070635046553
-0.025305730344353485
-0.03170744974026157
-0.01726933796989576
0.032420194437131226
0.04777753121541486
0.04973600623201204
-0.0058505195458214655
-0.010116363549639578
-0.0016519368048432182
0.005868763616801518
0.011274818813056817
0.0070939375324213395
-0.03455242066125535
-0.0017652073340182904
-0.050767435261596244
0.06633184305315198
0.10979355312385987
-0.060646581431220044
-0.06299596973238074
0.015031868828634136
0.09269214883059948
-0.003955333127134889
-0.0027935391299912763
0.01634294142518907
-0.046128719725318304
-0.04897090449155064
0.032430368789518965
0.0027594369267163435
-0.04076006499628835
-0.056138573782233435
-0.0021112519886389044
-0.03427383905649908
0.018737508946144846
0.06326450439929666
-0.002058820746053796
0.049066375871556406
-0.034361919154379174
0.0016916492154643334
-0.010931453145459789
-0.02808229345195729
-0.0034398135933129
0.010999861046996724
-0.0239920130395211
0.023260957587617107
-0.0038465726325665767
0.0037689655613764553
0.09046405930736083
-0.04625205755107993
-0.012043424101629304
-0.04046304780885883
0.057535935906303175
0.031050489253708118
-0.05614639093501407
-0.05369251499349114
0.01657066974999771
-0.008100287758299973
-0.016519589500149295
0.0538453393813804
-0.005507031314192897
0.020759637662268838
-0.035536709861791714
-0.06646390127940066
-0.020780932837107264
0.07037273070087144
0.05611574227668545
-0.040349722167705125
0.008094335451754234
-0.03551427346475811
0.03993183344832696
0.15434777821933143
-2.423789445150157e-05
-0.0284401069764871
-0.00019760284652562565
-0.015772454909709556
-0.046935536836562194
0.02030437692652187
-0.01582574699388826
-0.023902196451566556
-0.01671518230879752
0.01605316005136397
-0.008688642037713554
-0.02847745356223636
0.010832129807965813
-0.01059787183486887
-0.04020072401257561
-0.010330695847035424
0.010161157911096747
0.010733065763374586
-0.021643561884207234
-0.0282161734657812
0.005946082342910986
-0.016346407789031427
0.005302313084819566
0.009476526285282493
0.007249696244437143
0.05214130540562045
0.054562625177323514
-0.015770976228076102
-0.051047901353490084
-0.0028117820418775037
0.008553728194504291
0.09566966744656738
0.028992832973254327
-0.01190057032579036
0.015762956201686575
-0.01994355505551128
0.027157732544844784
0.08887406564071038
0.006052833836180977
-0.04851328702699287
-0.0015230086961445653
-0.08267662758321954
-0.2119536566828034
0.043372850566116124
-0.019655417710517903
0.040441236373416574
0.06910287138059781
0.012652902105089837
0.015715940196382658
0.018693142054328697
-0.015819435061660107
0.007085272176096676
0.017784285660986575
-6.034931685700734e-05
-0.01757994558760779
-0.03186045634783054
0.009814715677995732
0.02287376128434707
0.013864411462192016
-0.01794934638984281
0.010756230057932203
-0.06530441855560909
-0.0910279710960001
-0.004265831770722853
-0.07021415647833748
-0.015176713538531013
-0.002283225509421474
0.03471170850798417
0.010038925451289319
0.0719971439891108
-0.0302577288826747
0.0036358716863093745
-0.025720952263875257
0.009281033915657119
-0.009370842701473096
0.009112681286960024
0.027208478800503998
0.0966441806065974
0.047400685336599226
-0.049245699419209116
0.011443158711316318
-0.0162101221556634
-0.012913429851765962
0.018678803619966683
0.046315859438155256
0.021226986081191238
-0.008238887487722238
0.006004653925567339
-0.009911600388163251
-0.04786853223725804
0.009543748822718048
-0.010483786712396687
-0.0011761830357007981
0.031124984895488508
-0.030505919703955876
0.022768514952814456
0.04628380541735908
-0.015721434339066635
0.004866611295467325
0.036692915035527615
-0.043685530282636116
-0.11227056615715499
0.018494963937420214
-0.02117323623136967
0.016300442688849136
0.05663095506406758
0.032193445016054444
-0.007269842389475753
0.027683165462782783
-0.023905894962363353
-0.01846184791526736
0.014416430392228917
0.0018536552394026083
-0.10210092065168119
-0.004786802134464449
0.05231697061432766
-0.0200931973040456
-0.035270723341205734
0.015086085180662215
-0.003166271103142949
0.006873438239026257
0.005739448626314557
0.0495945589788445
0.012772903303640221
0.038458305075982316
0.06200704791382376
0.001413244825181231
0.0009320170704818247
-0.00411369179899838
0.003584391344073225
-0.04285878834706045
0.028201966596091647
0.030123808857978714
-0.011424915843426468
0.018466642166936827
-0.012017999213619483
-0.014579540360883754
-0.024568665005658
0.02020006929709493
-0.014834108183200622
-0.05733584324254973
-0.02542664951272192
-0.023006880757374264
0.023001013751746253
-0.02544759538839076
0.027981576097635703
0.0071429943334790245
-0.022601701435855614
0.03356328176367977
-0.010102031662118717
-0.00724500398598397
0.007439369411686764
-0.05782391115193519
-0.12435683601985663
0.008775853187809959
0.0026806867035590277
-0.0011465141677600554
0.007355323188329486
0.022393250802925844
-0.001232747839157476
-0.0042434718016481545
0.05162903597719195
0.041111488116840844
-0.00853992989679966
-0.041137610305656
-0.004404834940605659
-0.011429474750718592
0.0031716423657455308
0.02753913776057439
-0.008882210364282814
-0.04558601845938843
0.012456532379405477
0.04711186120441002
-0.004519252773895921
0.047810378619113574
-0.06437546043579807
-0.0704242672919005
-0.021747598832986038
0.036400207158479116
0.048816770785518444
-0.00894196730491578
-0.014505178079453842
0.10657938074474466
0.04927394779200351
-0.014111269792936131
0.030131795350770017
0.01380913152242054
0.005019432843888067
0.016094638448496387
-0.00424209499132028
-0.014345197264683255
0.05361458045263268
0.004455614973264247
-0.01484962734887947
-0.013234132643350925
0.005673256563511051
0.015124230393084083
0.018976860765395953
-0.09988963592143499
0.0025723228125262452
-0.015293253034247709
0.021657094695154405
0.02029314688403782
-0.059111286963528624
-0.02716316377510205
0.014789427756608351
-0.006518963911181433
0.022270229846844534
-0.0058091255039753095
0.006216201707793812
-0.014636452795761694
0.009300582007943366
-0.020611774363764636
0.046656714927315344
0.06216591448093383
0.009880624289752485
-0.019687569546526583
-0.014727899764648958
0.005567536056121834
0.021454905481689247
0.021783803970518423
-0.014537106981071793
-0.044731706967020515
-0.033472978372378455
0.0010236200272759656
0.015453773709961425
-0.02270170761798528
0.01275917548578961
-0.0017704241389297842
-0.014903940507956676
-0.032542561992901474
0.004924033744707172
0.02807166436741985
0.03047158332761366
-0.08362395192199104
-0.0574739951852171
-0.015632470430325743
0.03613446202498535
0.03378880046794131
-0.021335820284783875
0.01699093911978944
0.0021796263640953425
-0.01918966601635151
-0.024645625476475447
0.0058715279393752665
0.05345967545102776
0.04104977032590482
-0.046022774693920035
-0.01093325293184187
0.01091550019873421
0.025615056486186366
-0.012143458917622574
-0.0012814474915153863
0.001069354466338816
-0.02418959064730544
0.011746752939147783
0.0038502729728752596
0.009837292151999254
-0.0017610728245365736
-0.015146741901492747
-0.038362492730192904
-0.014946292189668366
-0.01588590588976175
0.02792062669231548
-0.004193248020767653
0.005434059666627928
-0.02746723176483622
0.0006744021121138246
0.008378035829395242
0.022445063564276058
0.007077170801495308
0.012659262003742799
-0.026982488669824875
0.05253649346223748
0.14552457164745256
-0.04703409142369338
-0.03410991646867876
-0.004337823859027355
-0.0004520396761484574
-0.012122283367093579
0.0014892830392651078
0.015007784381138537
-0.04382113398603811
0.03614675744065977
0.02586856511372029
-0.01823545154867519
0.0037948128698443323
0.005279977011137221
0.0045877420299070045
-0.025683796979650255
-0.026500579292870422
0.00028659817097791455
-0.0027404182208824127
-0.012897104918423784
-0.006887824885581573
0.011631350479789896
0.010290042384047342
-0.029048273773161725
-0.00783391388435343
0.006935043237041282
0.06416418995462693
0.015750037837831563
0.0008392351780156918
-0.009035407866350128
0.006986636716093044
0.014956939761222107
0.026566395203125655
-0.04353811147768578
-0.004635238708088636
-0.02701926303825015
0.010473013585449525
0.031181930053115047
-0.0032861065761859666
-0.01095793575718808
-0.0010011043028130572
0.0189187226087658
0.013240371734891326
-0.011069286053815932
0.0003852988680873971
-0.01608048910724902
-0.004508839662732846
0.056613129707930365
0.04791123673807096
5.478379853871013e-05
0.011060761596799326
0.011002559540699657
0.023809468968598643
-0.05406291977725213
-0.13305108444381228
0.006485171012613457
0.0034064200146943016
-0.012036175582030175
-0.0002351219652443895
-0.051548918016219254
-0.008397155220263873
0.023089924287541096
0.007183479814825624
-0.1609731319768293
-0.1316414964594388
0.12004821574272714
-0.038414309670781174
0.00946290442955772
0.009401155895653646
0.004381266124067903
-0.02295419103253968
0.00943083808819119
0.02464572444230395
0.035860743224411816
0.009385828810589305
0.0014828824567168389
-0.01594620242026271
-0.002498882525954311
-0.004872582432848626
-0.019602949609697856
0.005848224113089056
0.07469069716666106
-0.013325508724937653
0.019430544679082347
-0.017120093597028672
-0.0023049730244456726
0.15247615306160806
0.0832235156370863
0.007663231052774418
0.017371926057205937
-0.008282747138708597
0.02327291508862503
-0.06930931246331293
-0.06828498476208661
0.03869202120154195
-0.008646345064548549
-0.01932488967642105
0.04581241948179133
0.008187111056902943
-0.017683780514758468
0.005291298848713406
-0.002081573689324584
0.008346213449661502
0.03804681723655892
-0.01909470916178232
-0.013251574415056457
-0.0067407383287601125
0.025160053699586852
0.020340766267186516
0.006618267736905406
-0.051665928331818434
-0.03249732501789743
-0.003952036461903839
-0.014047616618765166
0.027857196981468643
0.017944941070254728
-0.03127726621553463
-0.01414040013533366
0.0027915558142012284
-0.010484256269763705
0.021172772932749613
-0.006250647383414639
0.021714497662482665
0.011882309323367632
-0.007213359781871802
0.006797198762433035
0.0011050647704606224
-0.0011586632731754234
-0.03698986768768883
-0.02352354975014234
-0.005896928645522741
0.006262402934220879
-0.011388093234133225
0.014648883659222737
0.04744732202930775
0.01705995929958181
0.011556766670874638
0.0003262371236439927
-0.003879728803794271
0.003537178599137608
-0.029991956095019503
0.01198011508852752
-0.06040443618559907
-0.10630446967708114
-0.00988578722860695
-0.029821031392964284
-0.0014457296325413552
0.05177534192097276
0.053470659722600934
0.0498641458245461
0.03651577470394459
-0.008822585432355043
-0.06271178799095818
-0.01301858685124202
0.03356959048958518
-0.03920519185529279
-0.004557920588816201
0.017404954314583384
0.03583609171380645
0.001007737621643711
0.0015007069437141406
-0.037835806725848825
-0.006278098313839587
0.03038143003981539
0.005178832588354961
0.021664775421434256
-0.007285193482554328
-0.007358776364833401
-0.0015369649937060604
0.033282197553482724
-0.05067954509228301
-0.05789639528794407
-0.03783538071391783
-0.004732642696612848
0.011887490542484166
-0.031362370777083926
0.00846399204504654
0.03988014916617613
0.02171744742479309
0.0018412759909104028
-0.015018002810801982
0.015419377719876804
0.01645647646932639
0.046010153434474954
0.016798993222430007
-0.01883606025928132
0.0013510778773839873
-0.03852123976075675
-0.019100499734629954
-0.01745291272869076
0.041029500343538396
0.039946910822019434
-0.028331469892648523
-0.0008068063964182125
-0.007897235511036714
0.0017438046463012806
0.011312022183657998
-0.01629597519158482
0.026998346246943722
0.0342867228025651
0.03924154076714534
0.01656489059422156
0.15438035680730708
-0.009081492101006087
-0.09332761125579112
-0.027130690590803735
0.018255882099202942
0.016998507758716773
0.017672043456785892
0.04576189903800684
0.025886034210083897
-0.03382613230113884
-0.006485094551224847
0.02599190583867447
-0.048706975009737426
0.04399029309397888
-0.04284675902565281
0.005294500287209711
-0.021797475877929903
0.05394517834403813
0.0009255027341179347
-0.1229965601757126
-0.09393643821573748
-0.06271578295023801
-0.013601497240494842
0.007097323425720485
-0.028372818376223272
-0.032690837164036195
-0.03174232423003805
-0.016876620619809653
0.028744055305982133
0.0009832227415271341
0.008161755698719558
0.007658758307911693
-0.010708387993373087
0.0025347754064372944
0.01140122311665231
0.031539278359257496
0.012582471844320023
0.007045856926256585
-0.04529640011288422
-0.03364240378402762
-0.009903551573278543
0.04587746445194259
0.008326854154573904
0.04276792491638821
0.011964157690827332
-0.08811400737377438
0.050322281525655904
0.06541677691976851
0.031100592409191715
0.0023758591089421237
0.00994676627310539
0.013109558920724972
0.016919391240557583
0.015159917766407658
0.04258434542853935
-0.031417414961003656
0.013559309923397492
-0.011704509210283877
0.010991319681613439
0.006051968458241419
-0.015064739069677124
-0.04193128129215998
-0.012016160797513685
-0.0020068021482294663
0.020561809442657383
-0.0014837224083296186
0.014085227167582228
0.010429084190523612
0.006693359351505326
0.011802368184484227
-0.005699962713894934
0.0026799832358277644
0.0011511063553970335
-0.02010106898662174
-0.048879019885385955
-0.014310170127784367
0.016133311343664344
0.03173683817119891
-0.010150467582254484
0.02336473777994534
-0.01808193505363006
-0.036671517037849086
-0.01691356347526541
-0.00474923961571427
-0.01018129552219115
-0.003169742803151509
-0.02019033525482737
0.0051425362762906905
0.04158119713559412
-0.0374889001115812
-0.02567155550498025
-0.04288211117782242
0.008658552284809324
-0.005147088932877273
-0.017713144584643174
-0.011067615654432626
0.048100256449881036
0.01598286720790386
0.043045139820630296
-0.003903346706791129
-0.01233493961299974
0.033593844449734435
0.019711729951256127
-0.04475313499239326
-0.007486158391640443
0.012747770992561644
-0.003895748213238331
-0.0015521918785306324
-0.021038698496678825
0.02689652416025046
-0.01510102219603097
-0.023531760869423653
0.06464426038685632
0.023295700054066663
-0.015191616801849306
-0.020846261537440108
-0.01002033454514817
-0.04161927805492361
0.06595770118741479
0.05192944867480959
-0.04854631887132213
0.09842281144635556
0.09179327117948051
-0.005311843779992436
0.009455534331209757
0.037799003045352025
-0.02330295922376379
-0.03478167276991971
0.04034091600972629
0.05143272881272167
0.004412293576131559
-0.037158461507362746
-0.01544397721923674
-0.010893124850458949
-0.009905411686824057
-0.017445079466588728
0.029064337211639105
-0.08181433456816416
-0.06368082699382696
0.014830654841297369
0.02142199935075494
-0.0015863377085075904
0.002731254354367982
0.015591384197244759
-0.022711081979426777
-0.008087732986072514
0.02374225980560499
-0.024350998663498366
0.011497117347136545
-0.012272002141067584
-0.016725586553260587
-0.0012742958738571914
-0.12395154125430169
-0.0885473251314854
-0.00421491008554189
-0.0298342296503198
0.003961165892455259
0.022842707973509114
-0.014205502756626461
0.006456597785180702
0.09226885286243645
0.005636921760294872
0.0073881887487895394
-0.001533674636733513
0.010328767652189647
0.016354153337400066
-0.023413597666787477
-0.011288602183279144
0.03147942381249823
-0.013498495895679096
-0.060614104812960305
0.022467744532440517
-0.008331486498104638
-0.00271916589231612
-0.02424435250298707
0.013677472269539933
-0.035832405906788996
0.01176322721983085
-0.009153912844739846
0.06726271883555056
0.10009791661877107
-0.00426518456557117
-0.0038619904751942924
-0.03410421775332545
-0.04531151004192065
-0.003830380197256708
0.05594588822477883
0.04629299437406242
0.0035211784488438165
0.00642952664708659
-0.01950167483365104
-0.014621856281187872
0.018478799291380684
-0.001201982749241183
0.01638625566307005
-0.003654450774821339
0.004969948551231137
-0.008483640141853757
-0.013022994846349315
0.009115886036647482
-0.005082043653687313
-0.0007308871504000689
-0.021018759204430415
0.005617310019074828
0.030249354269442197
0.002597604846603833
-0.0009724884601703043
0.0020157658625438407
-0.0076080482315224445
-0.008108774751637803
0.003907526601698554
0.0048670674997843165
-0.012546430460639055
0.009017922867295747
0.008897746699808336
-0.006296828065988095
0.0018036145861678385
0.013912021983949545
-0.03266273991614501
-0.011334689295067632
0.007601167042476426
0.04512893639126475
-0.08997260988808196
-0.1000321591571777
0.1873465345238709
-0.021670832211508388
-0.0073340498502017185
-0.04582200951458709
0.002512487388879519
0.026542972650297078
-0.0006435814131932569
0.004878078801251427
0.0005403679118442264
-0.046468112000399804
-0.006109800196884284
-0.032983879190784736
0.01391296856258136
0.03323047190681962
0.08762152928526773
0.03692455744320132
-0.010947518334488966
0.011938844320201704
0.023838840997055445
-0.006459056004576818
-0.05055035403915872
-0.03519387673941178
-0.05478985385772444
0.014163782450126835
0.02783892709210128
0.045256636908374365
-0.10789972976504902
-0.035843775924484816
0.03551857613758174
-0.052898295814417504
-0.010202163032300142
-0.012820816999870333
-0.017467596252109353
-0.018362924847954494
-0.00805672261702389
0.08704704415519599
0.044110194075428405
0.021910224713417914
0.059396352125145546
-0.026376639859042088
0.01561456624527833
0.16224437317906393
0.03977242564798138
-0.022721468840368467
-0.06373178459396917
-0.011605219402354513
0.009039362851787145
-0.029230446161088202
-0.008962548581660457
-0.008450594998614593
0.018948017537575072
0.013653429178839755
-0.022056535652508234
-0.027269853680779353
-0.02750638458985003
-0.03359694617478165
-0.027649654160488295
0.012968017546857606
0.018768976305327145
-0.04237932246859986
0.007365615100121233
0.008087713250320762
0.004631122797271195
0.00946553339502822
-0.00889315736093679
-0.006410110967440148
0.020589606233508462
-0.00625785117144028
0.02041543015879511
0.0156937258300126
-0.03128908061882764
-0.03590691800221743
-0.006739721465283533
-0.07505630647783926
-0.029902233017684278
0.029960255129631654
0.02689404376195573
0.024938718914761394
-0.05827998903729294
-0.016387113371124112
0.09061006327778381
-0.0038298237603993997
-0.01854425302629552
-0.0015034732219660993
-0.030312612102194016
-0.02939921523954367
-0.0004502529859201414
-0.015476980683323847
-0.02298894340582934
0.0066873944181120625
0.005150376629587477
0.004546918597403443
0.11501626029774735
0.03703198635718656
0.014434884681894283
0.046514668377488744
0.03487853381287758
-0.028877329317607277
0.028411795620352193
-0.03180973353127579
-0.03986118232017115
-0.08664010473248326
0.03423415714715088
0.0455639151267736
-0.04503130625622864
-0.0064557818252087866
-0.021994920057190365
-0.006285321104041336
-0.008619567521606102
0.03540013263314225
0.06563906216618548
0.02182302695901326
0.03477849103036133
-0.07476566064364118
-0.17345304576344014
0.03808556759310488
0.04085340387401973
0.027114448621983017
0.03790042289651719
0.017233516738447127
-0.00031949109442581865
0.02864324341709709
0.012616263704161034
0.004708933652264431
0.007151725772750184
0.005369181536197909
-0.01372582152971395
0.04789097119911449
0.026804977198748556
-0.017989438700157234
-0.002416823666027092
-0.03302535056130716
0.0016067516294348972
-0.019436427408983097
0.009620444085715385
0.003206515274524774
-0.040504611334923814
0.022618265362509157
0.00883602474182486
0.0012577544022086857
-0.02941045618974651
-0.09000607788779902
-0.006521178155997333
0.01890744885649836
-0.009117150174849382
-0.010344465651761085
0.008190293166175193
-0.03216905160842293
-0.002099702077511484
0.0486725579304363
-0.038275752184449174
0.02333842550904732
