0
-0.038969986096795375
0.08259356358297087
0.07325776827086522
-0.014354654158752962
0.0007701534724110178
-0.028216687680880863
0.0029551459529154737
0.009241197752561665
-0.02960560858095175
0.024598154101840224
0.03513265248293443
-0.018018047526287016
0.00515068888261356
0.050908400809901895
0.08049997177943433
0.01270797131420758
-0.007623260516391205
-0.01736378504180743
-0.010272432800220204
-0.03236746923031621
-0.01958012759258673
-0.046216118238944476
-0.004052015513409934
-0.01750443553780759
0.0013092391449136447
0.010811841099879716
0.02752453765508803
-0.03146534189677881
-0.009590846392870217
-0.005496572858111358
-0.025228511445131163
0.04491200218003282
0.03546033915886238
0.019347502368357066
0.017110775155247594
0.015024345756668337
-0.02398535389816114
0.08793427932970063
0.008525608660570609
-0.030936523130723353
0.007857134694357554
-0.0009132189491509081
-0.04431494924743561
-0.03135427234905056
-0.020415570253724497
-0.01610623642176112
0.04122393503889051
0.08405312959711415
0.010151047259055093
0.00012374638383195235
-0.11617792971603802
-0.08390652120032588
0.05733558363846869
0.19765123253872754
-0.04629186871989762
-0.13875795756960874
-0.15693612987465846
0.02127241738526046
-0.015177349690224724
0.037000105872764366
0.004826258026773436
-0.04597313039212248
0.04676955260829263
0.01857306031682805
0.0028614614898467075
0.0008664178830874742
-0.04966777986682276
-0.007498696914991628
0.01222512676227959
-0.021289846528231196
0.01505952974789244
0.056315849782181945
0.025612914185337773
0.018956648342542425
-0.005693991152075108
0.005759907474900424
-0.01895032566818163
0.06161510290249399
0.08766318762917963
-0.06029837947454475
0.0028536699243589237
0.12914927369722765
0.06765886104857981
-0.04976154681804063
-0.0026596263237286203
-0.017912568492011907
0.01974877817490129
-0.00126256398659424
-3.2201089993129585e-05
-0.0596153385228756
-0.07870378054939271
-0.020888843673343024
-0.008131813990534038
0.041219128654146044
0.026265649665499043
-0.01877778986704473
0.017019130264387557
-0.03371824483145262
0.0009212913278684333
0.023022059150585115
-0.02392344832113759
-0.1077681850911902
-0.002163830520582106
-0.026139172921025557
-0.0002521400829170687
-0.02034050779910689
0.03426296624337505
-0.00576469981413086
0.0019528082454296648
-0.019295976305155785
-0.022178103237016536
-0.0023244699366955592
0.04978198147781693
0.08316925036314489
-0.01752230860793879
0.0010841384410356222
0.01018004147979303
0.0071584158345615965
-0.004895324328709138
-0.036439443674133966
0.06534505561758087
0.11692718961475801
-0.027283307515749193
0.007174458211502832
0.00019974155454444563
0.0034523192418652376
-0.031702234375184456
-0.002173418520352969
-0.04451891082944787
-0.0038368586581619753
0.0014693427377661683
0.024437901668228276
-0.21727403606871803
0.013309962312672025
0.14471648193456
0.005169415383482231
0.015565550659774061
-0.09061907706285123
0.010932595186283834
-0.009203828511227542
0.003854389105273222
-0.031664733204789894
-0.02936727978748217
0.05355486643212946
0.11841156534694762
-0.022039843806395194
0.02216474356138974
-0.02559572589668695
0.033667358422212114
-0.06731127078726841
-0.17368697524265925
-0.013378111645503201
0.009993012855581617
0.016746397073821508
0.06884009734445787
0.04137900155605973
-0.012043504137736204
0.028764295060260545
-0.013362577466457871
-0.03258597048833993
-0.032592774173591764
0.031148152309167603
-0.024872469299311823
0.00931460559781947
-0.0030045434628929936
0.09674078873244801
0.0782038557077664
0.028429449390129424
-0.026461256137559154
-0.07368753351728312
0.004080031528160993
0.030682115969658388
0.031181864934712967
-0.01196981108137077
-0.023233922958875552
0.04793225729176595
-0.009218190108311257
0.038336433807163235
-0.027900166984756843
-0.05719959001886245
-0.01778125358525635
0.0232650626601795
-0.021353508491034675
0.07866820740392398
0.00043706758237052395
-0.019934813319737784
-0.06198079975510466
-0.033291303380642144
0.016492356305209663
0.009007256921132889
0.07414670061928967
-0.00291562352812586
0.01672565891080027
-0.18279652057601659
-0.021930796839439097
0.030132605756256377
0.004712345448606339
0.011025810527819086
-0.0031301910328564524
0.030761998026862747
0.01265118226114093
0.06315322410977955
0.0006900114456662839
0.005752193765452558
-0.017419541679205237
-0.04592745526208602
0.0058568097023602855
-0.007176823299805464
-0.04920420494589198
-0.030455048640175793
0.02090237872391953
-0.010068836184204736
0.004693107433025911
0.023402077739647212
0.07636190225105538
0.0049895948160086365
0.026226047346846384
-0.026941502237204512
0.007378812851139293
0.0069337756538422
-0.037545372374336375
0.04456536483914044
0.012655502288357413
-0.005269336264126652
-0.0532919371983327
-0.08313362087310736
-0.004305365584025021
0.02839137878070991
0.059723064606492036
-0.013007804032267737
0.014104575266711187
-0.017877542182575024
0.01580589283562321
0.03574354983247382
0.015352171192281978
-0.02037093629871316
0.018648474001581997
-0.0033005857944910155
0.0017284049228428915
-0.028629904613056777
-0.00017230333920758225
-0.007708485488504514
-0.028282284161075893
-0.0016022576259980164
0.07576008145444761
-0.012975540900522607
0.020977634231036744
-0.004162850256164833
-0.010815062946655494
-0.03296591953358645
0.01768694756496119
0.06455243875997127
0.01541559669207152
0.02823675504879235
-0.006093613619010635
0.04448628780286501
0.005097792222684363
-0.0641779573245839
0.01767511794484081
-0.020629336002239797
-0.034911415868672656
0.0026349235260740424
-0.018437390058037746
-0.018640665415449585
-0.02846641394987358
-0.0006373746734605988
0.06356724355745678
-0.022207551689383855
-0.004728552297341096
-0.0019560541463341436
-0.009528349007368656
-0.02352694998033853
0.019356642726834235
-0.007583608648078753
0.0018596578727464398
-0.03729425585977332
-0.052736646072189114
-0.015283701935430575
0.008250868855037728
-0.016386833790822057
0.0075964214783975385
-0.0036567758341510496
0.045402505242105096
-0.027604897431380313
-0.10307818951810208
-0.010937974036269964
0.008954069492668502
0.07530730437967165
-0.007160436865608763
-0.029694498254016058
-0.026633505050909584
0.04328741156886817
0.020747994333093083
0.0507115033944597
0.0400665321831795
-0.030593523596020362
0.022537305147463847
0.005521728473750865
0.009626928970883264
-9.218813226440291e-05
0.009711064486229881
-0.008035366793109735
-0.03515186605920981
-0.03399780992767509
-0.01394686896241353
-0.02894218504134592
-0.007674913966873683
-0.009743155761638431
-0.039781882013599786
0.004248880290257115
0.049828013667234654
-0.0428119549099717
-0.010147073923852707
0.007122100019519337
-0.0014344714302511332
-0.0028699257496896083
-0.0293243733137425
-0.015062664285774147
0.021706775152802827
-0.017902669025991795
0.01740942299353383
0.029243296644989782
0.07956702715794806
-0.014707373650390649
0.1500513392904609
0.10654906562916179
-0.030350884080507526
-0.02624781637897559
0.013370134411833292
-0.011304468357260329
0.038105611008066545
0.08890191837561592
-0.030332670299145412
0.019216698593404337
0.006393662986428045
0.005566616088233712
-0.04204122476968913
-0.013636444284884988
-0.06912378769838319
-0.027424696291067297
-0.024552687339265054
-0.017567405893882213
-0.0331072910364687
0.023034263299264546
-0.02019739471142801
-0.007009467005440966
0.016670256015029097
0.03957649066226497
-0.02713205391063754
-0.02814102089069381
-0.01582805102056927
0.01611421778639985
0.060499735352856104
0.0027539331403898847
0.0008079976169827408
-0.003006444014204378
-0.04440391881299227
-0.06864327713345272
0.10648937887068748
0.06035249588629142
-0.03689158467228743
0.0012529607255916395
0.01743975199587637
0.018611544497666395
-0.023753257334231594
-0.00739966228213998
-0.020747803854232413
0.03598391207623657
-0.00452882811922605
-0.022989642542974725
-0.03288461966691276
0.0037926755124265852
-0.009776453555512267
-0.08903831643872848
0.0012953045317963268
-0.014228367653538784
-0.02415875217342007
-0.020062659490372142
-0.015070842558880193
-0.01919643546534383
-0.0227883875016064
-0.011376127184080105
0.014188465023509901
-0.024703959493457335
-0.023687948302404435
-0.01219300012694027
0.04196640135772036
-0.004228507565004871
-0.0002771659668961084
-0.0001209829854116433
-0.030237974455107012
0.15178229143647942
0.06771797795243839
-0.0067280676890103365
0.01670370429468355
-0.020791791048237987
-0.0912194883619276
0.07342338693402604
0.11736151282711459
-0.034727866965996196
-0.019532059668549873
0.03900693451745149
0.04877854690657655
-0.0325071514359765
-0.0002809029268927095
-0.03097582038512671
0.012142595952020495
0.042905538458060284
0.005060528087628099
-0.02682277153162613
-0.021039030606075197
0.052475225593741855
-0.00805498640941782
-0.031375184645347935
0.013581228624208212
0.0043830974569606445
-0.06329354409572177
-0.14577817963798984
0.02970748735176097
-0.028457214801433407
-0.01702834439416235
0.06898533392413432
-0.009357926262453924
0.007285183210320268
-0.004578351598209934
-0.014801904546613452
0.09435896959148109
-0.025362642395883168
0.00039669831304734875
0.023905206984967564
0.03235088750739812
-0.02903626727034033
-0.020662040377579034
0.025304085404218375
0.025198212367311842
-0.037682073663091516
-0.02098792077319624
-0.005014824906982992
0.008743365297251336
0.003726736624594905
-0.02143248622687544
0.0006862375848642812
0.0419824895350084
0.011366256311596169
-0.03787345092444524
0.002063228424998544
-0.02635196527211573
-0.06941578641131436
-0.006415953211018871
-0.004129954323868086
-0.012425044207429807
0.023556788238092378
-0.019963519004932206
-0.014716293885895178
-0.010178437871056652
-0.009084148808583577
-0.018756162703310094
0.04030409335119423
0.04567187305792513
0.03413208165856818
0.060850414811645936
-0.010709811409716717
-0.027962445234391686
-0.0013366768634733147
0.07241851218063862
0.03131777256182347
-0.02982009029753832
0.00825065903223415
0.006864422626506775
-0.038572070716423455
-0.017687658760984628
0.0596429873453767
0.010321044716329997
-0.0045523575757646225
0.006031043365440086
-0.01618293174402653
-0.061672112095658135
0.03560435005162239
0.015473330840320402
-0.017874062844376117
-0.04360615870564601
0.020860739272424288
-0.029032056365112913
-0.03265516730224604
-0.005950055493039588
-0.00822207821411706
-0.005610913937157232
0.03589996004742484
-0.048443550208180725
-0.01675500185893696
-0.023822455841042506
0.0011045211128133487
0.005685880567227823
-0.019853666190251255
0.0021222938125768144
0.010482726124447036
-0.03682255186263832
0.016626526166453572
0.1705210877891556
0.006958870240926937
0.04280004589362416
-0.005298748961774626
-0.030150715013480257
0.015312453108349387
0.018110386396647263
-0.01735270140492862
0.008274079879409198
0.015519206933653253
-0.03299452743981714
0.009463063557150979
-0.06460569806016653
-0.016317051259496514
-0.008068287838191968
-0.008381750629020272
0.003522099362853827
-0.043779855600826714
0.0018049666895967233
0.026939125610005027
0.09616054868782037
0.04849414903330374
-0.019608875580933643
-0.009033059171632439
0.0023844982913541115
0.0406056416682226
-0.07714743436113887
-0.036346724572341164
-0.0045220436879638195
0.0058781727180040625
-0.004651341345380769
-0.028494333293773697
0.0024252219142769957
-0.0052190075600262705
-0.05250613709829604
-0.021256269690884573
0.05634267069990981
0.1134940394635366
0.017003722759311186
-0.03339881950646919
0.025394269741779475
-0.011215575328336521
-0.020209300048259323
0.021893213168493696
-0.004779624065333458
0.025586841365088344
-0.008836617670330027
0.054108046086631396
0.029321509293228156
0.011329314144297647
0.0024526574341929308
0.040945463285848985
0.00390946534717345
-0.003997723388122677
0.022457552223486967
0.028217826329073003
-0.14961696237667282
-0.0834331319995779
0.018538503101550096
-0.03024561587156448
-0.013184796678930194
-0.050441284008728715
0.018121709672014957
-0.01241802752286095
0.014738342477624749
-0.040979915704967194
-0.027079081012741733
0.014178243139941286
0.032348489951789065
0.0016943847072142194
0.03615455755732328
0.029204494212288868
0.029843170982881317
-0.019299581599624197
0.056194187931174644
-0.13798724274217916
-0.09429200880252608
0.00410013001796759
0.0052746489484647545
-0.020969695526353707
0.0697737710334012
0.05813205389568685
0.005101018675463645
-0.00616272980591829
-0.008321295664178451
-0.05673729024420289
-0.11918861816040986
0.03242745965546293
0.0030927691686419047
0.013222532951672139
-0.006612925983184494
-0.022470534572883442
-0.05441304468755619
0.02592096734722784
-0.004153082473598618
0.03880199852746369
-0.001457341507914779
0.09133073803770693
0.06292878664576036
-0.03866007925537798
0.014905167417587618
0.003878940798042964
-0.003060086290095762
0.0027395554701750376
-0.018639420706113418
0.03865945519621084
0.03922564538257187
0.04529981657893231
0.006310029385379071
-0.02184059186956424
-0.0013528754626508505
-0.05428654713511799
-0.011043722197112003
0.07327070966975557
-0.008099266535045556
-0.0134432146950917
0.004392192810388271
-0.003741755167838379
0.041350468388177
0.031550491110551894
0.012221388425220359
0.017660535931638497
-0.039075843239948206
-0.021434994172171134
-0.0019978646513871636
0.1366247257313853
-0.0187330976760947
-0.01272174031392045
0.033196331070724686
-0.03994147868821377
-0.005081655122376859
-0.0031856507513647195
-0.049994596773159386
-0.03283431593831174
0.03552682419448805
-0.028063048086139346
0.052155780694037465
-0.004216753158215282
-0.06417611637183065
-0.010146704044326733
-0.018392734144843076
-0.02525482337821007
-0.02204018128424028
-0.040517039067274434
0.011594631083434843
-0.06370379614403285
0.007823852379756666
0.027360572240778872
-0.025643365259599853
-0.026924696274158437
0.02047212942612134
0.0035088970718683147
-0.014270756959210295
-0.0029084633442484913
-0.00298602527790055
0.032769236891861106
-0.04429851921556099
0.1121769007532044
0.19067052751679278
-0.10900584938596927
-0.02047390071943707
0.010586282288494933
-0.005149191483563126
0.01972782134951964
-0.14577549145931823
-0.017317339262376462
0.055941721693569944
0.001700680794630584
0.022179232423811295
0.04087317562195188
0.010741292180400439
0.028794880072764314
0.022001155822115842
-0.006754595421213311
0.0003166557344881185
0.029237222597018837
-0.033197675549751976
0.029060407365640684
0.019242346674284337
-0.015413921663289929
-0.0016204839479413377
-0.010761335857704064
-0.009105147383345379
0.016875911982981665
-0.008851129581354105
0.04087378155834092
0.027970549977847807
-0.0021536657003443857
-0.005507812931203415
0.05701875685290214
-0.114830876455718
-0.07502136128503288
-0.016429514728017253
0.0033163899550395152
0.0415429385389551
0.04172016609899038
-0.22671430410964563
-2.7419947840291758e-05
0.039573296281479355
-0.008602710168688089
-0.00430377869548909
-0.005219984401492436
-0.03241184502691127
0.047931671381788214
0.014905890891172906
-0.017777788190427427
0.03666795726582137
0.030747667167130673
-0.02782180134211743
-0.002452894326253384
0.021217541704136606
0.0063696824801231285
0.02161305656337861
-0.004965549816991691
0.011764007579475102
-0.09077247526739843
0.04248237363408542
0.11629493054498456
-0.05557316365351664
-0.06562808281211405
-0.022386007083211222
-0.013232655529075283
-0.016865080158384147
0.025307396859600543
-0.0019409901836265249
0.00880463203191555
0.016426730172655543
-0.002969902435978293
0.012027214723664657
0.06488981398359657
0.03727323538733885
0.0018819558757549506
0.007237219493313613
0.028914581388926084
-0.04560005538830216
-0.008209925859542942
-0.01902634798221349
-0.050340134330203845
0.028951430838720427
0.02165918917755472
0.05965084882659803
-0.010801846552317996
-0.07953520616664658
-0.0032325041208393934
-0.03422547714329644
0.023923970447153727
0.04783379726664313
0.02592944864866899
0.010286998810751902
-0.02436471318090517
0.058001792125589174
-0.008117213697614834
-0.04489264485113707
-0.023078073459988954
0.012528129882622125
-0.025732869060849956
0.002781083024468492
0.022874362283582368
0.03145389348771999
0.09354231961546991
0.008428919892820203
-0.029252826931169554
0.018701817756610294
-0.00427267661104207
-0.02081447907223092
-0.004274104403438849
-0.05321193222120011
0.012460386208047658
-0.02605665032650764
-0.0758365463278538
0.012498429885984158
-0.019941303810610527
-0.019686424043688158
-0.024700736409452455
0.06743826439416706
0.003342008915058353
0.005456977889274751
-0.0188706870243823
0.007267569343073005
0.02637958245854765
-0.0012831903037904878
-0.006553925334378881
-0.006014910443402085
-0.034812081987619446
-0.11580621002805065
-0.02147596665903613
-0.00863470387754611
-0.003653439059136891
0.05623038841216359
0.029701952853552625
-0.08134846685311324
-0.010392259739640577
-0.03175459219045194
0.03756915874445557
-0.0330428486779195
0.06935511776168572
0.06713444259510047
-0.005732766892759116
0.003267811174037037
0.003026417287586798
-0.009909070410008873
0.14814227536772664
0.028072544128457923
-0.03386087756530144
0.013719429677295138
0.023988097886846478
0.029566646841412997
-0.0029144646722532672
0.009326900001286267
0.03913329781480379
0.02529653065268078
-0.031226744729958025
-0.006419976442782702
0.02284870285748175
0.024836731890932863
-0.026390197984248565
-0.0025139040282306383
-0.026856893907660138
-0.009882759740857451
-0.04526308790738808
0.02050457476140684
0.0025025023278420506
0.0034717272059366856
-0.016945920823231733
-0.005512046371952727
0.02400668349969787
-0.009432237073146516
0.00475263378581206
-0.06972240062911353
-0.12053799025037566
-0.003956505993363719
-0.057657070479313205
0.006693429648325195
0.003949661174911589
0.02351018410634548
-0.007203104345897539
-0.0316880409705942
-0.08102818910917862
-0.021206531309993924
-0.034589104253263656
0.009433363251033102
0.03419434992687487
-0.04529858357183666
-0.06789043904538833
0.11378405858358914
0.08015394451824347
-0.04352282079531455
0.0808671726962818
0.00661475884761483
-0.008283659102661314
0.000617865243087928
0.04672229724231064
0.05099336582432595
0.062362539699230175
0.003733551484944085
-0.010844400421462253
-0.005623743710308808
-0.023125019506858427
0.008936327345277937
0.013328753667426814
0.01505734523430085
0.17458150482049908
0.05169065587736623
-0.010327495388295405
0.015317929579752532
-0.05212587435723412
0.019563680482516922
-0.08538533062776607
-0.05904467528173004
0.015598880521776194
-0.015676503785801526
-0.0129735241330055
-0.036021817228228614
0.024356847233321797
0.018130701415974306
-0.05537443406330778
0.017589317095362676
-0.008523535679660806
0.02748581795270024
0.021229384201146298
-0.003943958797049369
0.013763627726861564
0.008156530424328982
-0.08829514776539554
-0.039686959449852274
0.014922734736387727
0.023049622413587868
0.029705057655670955
0.020612680213036867
-0.037868155634019796
-0.010255218201558903
-0.0104280136035577
0.11652590400014964
0.06698018270275122
-0.03961241612474152
-0.008592021890672558
0.031858678887108846
0.04972403978978583
0.031070992056046694
0.013517906732073232
0.02647488345478598
-0.12469503403761929
-0.04580059895096837
0.03891108438538119
-0.07097527185214565
-0.04389710581898776
0.02282541060638889
-0.12156126134625318
0.0027287513942465666
0.012962216016165111
-0.016108054657984466
0.02190459679770008
0.05060010869501304
-0.022474950591393112
-0.07241138597021157
0.030079704442670448
-0.05044419821359063
-0.10217389151211385
0.04292217559238061
-0.011375498119398234
0.011707889804563854
-0.04165205980600917
0.006273485757135153
0.05111104825071987
-0.07716335808360231
-0.03930660115387417
0.003483051494415189
0.020017596087340613
0.03890929032232209
0.0023416662543675345
-0.009461292503982657
0.005287887950356101
0.013017218554420049
-0.006857193142645945
0.007398137077858918
-0.013108751119343055
0.09082500124592134
0.06936527608364786
-0.03611090919429566
0.017541760738613788
0.0226989290566804
0.0032898372965449577
-0.014850905917252747
0.04864541853911162
0.07187274150589891
-0.0292605319993857
-0.015236753150457442
0.005600828584115437
0.003316548481138572
-0.0054442082083106125
0.04588921216804372
0.026222959434872645
-0.029012530541317378
0.022902764927248163
0.00223994075015453
0.0043105882932095475
-0.014572349375783902
-0.05650479565432681
-0.018758111504133368
-0.003161297294297904
-0.0106854997945303
0.015352233198576383
-0.0069155781207171155
-0.01054824569265868
-0.0371093489458984
-0.020374587151052725
0.014637896611706376
0.006240180730773562
0.03957981278278749
0.030655304914659297
0.004878740713594892
-0.020160326705336448
0.017946562865386033
0.003943689387868013
0.007384049166986866
-0.016779628012585247
-0.05864230596911787
0.011676093507620984
-0.0048260634631602795
-0.00572705471067069
0.02403428784301763
0.029930900684448883
0.02778651470568746
0.04713402768334539
0.01128510294934162
-0.02116453013076255
0.0034010628055966387
-0.0015114309743777881
-0.16201569247364592
0.043485238750065235
0.03174891321619444
-0.0007092252423946093
0.021148159552626226
-0.010685773100870103
0.002570348041031557
-0.003328755688854354
-0.002827398968501531
-0.009766268060633004
-0.023498649229993226
-0.014764057878850297
-0.004569487018844883
-0.03071066039734328
-0.060067317483532154
-0.003197586962047962
-0.01761762112674646
0.013002229389881477
-0.003084191557105672
-0.06667286139062512
0.1014965886136301
0.04705068718721367
-0.02724182218791006
-0.00328403441604309
-0.014657960271139853
0.04327835991032585
0.01659529430548923
0.07222879053967002
0.04142088543634276
-0.0028367269041893496
-0.0118761388050796
0.02810117059473839
0.03514471506572336
0.01025123883603931
0.0002267801915357968
0.005880726091709406
0.01919693569666551
-0.10546936091412668
-0.05569304359087043
-0.01875659765998027
-0.01727244112366378
0.004036487538220204
-0.029468827397688524
0.0020787459378686798
0.1404465500806039
0.007287351462819932
-0.01805830446575657
0.011263909184577594
0.01530279340379466
0.04815419733120527
-0.09667322110530364
-0.039341998355835184
0.022494325369993462
-0.011780526453100279
0.013625873972756688
0.0009547673995198017
-0.020654391149783603
0.030961130664773996
0.007015782571322642
0.027999861666053588
-0.011752247157346013
-0.029448941921699882
0.02466162227726234
-0.011757211728575925
-0.023916388884219736
0.0016846864149856016
-0.040205593375627006
-0.004485316920477933
-0.008620084391305741
-0.020056079103547394
-0.05706615885448743
0.008050728562386793
-0.0028918845359756085
0.0046380762595928425
0.004001354467932311
-0.02916756701079034
-0.026946716599573477
0.008913481203050064
0.02790473390278049
0.025090247925989996
-0.017156832581219913
0.008053826719241814
0.0038827616049428365
0.002263456965339745
-0.01230743453735991
-0.011815865099275008
0.017839547726168345
0.004330954124533215
-0.02387079543733391
-0.013524297566531904
0.024116092344300826
0.07207563357780263
-0.010046075650967988
0.05857314739317517
0.03396749459466796
-0.00017140128001335187
0.030535697489924473
0.022843724223202497
0.01658876343835985
0.024179563498904703
-0.058048559325455454
-0.03141500594290767
0.00733435435275866
0.024560939170862675
-0.011945820890649852
0.10491417330989901
0.003959540125613891
-0.037101414708460845
0.017505640491572733
-0.014189811898814155
-0.028771712060425295
0.001016303094440117
0.0045144440832821965
-0.05951144729120332
0.01381949445856814
0.016883755532747288
-0.029640882842036316
-0.10653699934846032
-0.010260864798268501
-0.023313868962133808
0.026495521491633027
0.1090752032955241
-0.005702476044214827
-0.03179231729380314
-0.035722760656771116
-0.005317024026266506
-0.010790660060747621
-0.029122686285641027
-0.02706350145384208
-0.012643040373684642
-0.014586566543072875
0.013675369700329475
0.11087156052617099
-0.021046196391875605
-0.04878907809204162
-0.04190316435791004
-0.025085887403374158
-0.052051033773836575
-0.0252778726495425
0.007087626622177859
-0.008581343655371944
0.019742133051547792
0.018760982430746143
0.03797141495075504
0.07442168095423361
0.028848326945538905
-0.03060656379139234
-0.0382107754190683
-0.037130592850930795
-0.020887026433328352
0.036458221586684984
0.07948574293179946
0.05144261911622302
-0.011737344272189571
0.030643457316791384
0.0201792831209906
-0.016345249494406675
-0.007779730156016252
0.005745835716302736
0.02129488130952989
-0.021968277522549075
-0.031757462064715886
0.01769167839672487
-0.02130370368467651
-0.0035574665732139355
0.020562570969644124
0.11610673600389146
0.022203722458928935
-0.00052139143182568
-0.014565304755562303
-0.05094443737153087
-0.07782728349416115
-0.047086088647353405
0.0064760582578371525
0.0070918121939323835
0.006049831323400049
-0.008260795118836706
-0.04164776030431008
0.030603893772508897
0.1425922550925799
-0.005635315355207334
0.009814819856630776
-0.04749347750849667
0.015133578404279325
0.018351486331668596
-0.03418327363031818
-0.013542487026994163
0.008824641476095152
-0.016472314229465913
0.01582491222716436
0.038076669948452525
-0.031511053293976715
-0.016695461228453796
0.026240528548638627
-0.0027037246374106852
0.0014379588955301986
0.009157648011665532
-0.012170133505976325
-0.04278806126321042
-0.010918262260103855
0.0010202463100431119
-0.005648242344638851
-0.03339048729232285
-0.12560542506748754
-0.030439178059949227
-0.022943695677717004
0.004807611479944769
-0.024886839181369705
0.002935119195746477
0.05431504074678629
0.005299980698184356
0.07316454856310872
0.01212649257066259
0.020747758950894257
-0.019828050510586545
-0.0027883102714338897
0.01570311015488551
0.021088589351457087
-0.0003837951463019909
0.01933423582618659
0.01479451911483785
0.03814517884053667
0.029923323373660434
0.018747898091792482
0.006048995343295876
-0.019967013236582308
-0.00035271773942028943
0.03761027080361551
-0.02237191672092912
-0.0009518816716768438
-0.0006487526073442049
-0.03897587584390789
-0.05109839546960958
0.03810554154812832
0.03038621547933022
0.0009580348556787741
-0.029136719734071167
0.006725320260127556
-0.012338913443853981
0.03737766507812782
0.004429467369747037
0.04485967255542287
-0.07520972495966313
-0.10563380870261199
0.02192739958849695
-0.03449998672985778
-0.02251843203793799
-0.003223600378790091
0.10179933010571476
0.004320145213529087
-0.022977124420137572
0.026654653931989986
-0.006857130300324772
0.007418525489965326
0.028083540674177506
0.01968070625961915
0.01563965507675831
-0.08161746199382078
-0.07671170831652438
0.011708190289638052
-0.006766630622151002
0.008461603343324579
-0.01574471308878556
-0.011573629635924286
0.05083396130032268
0.00040192722723389164
-0.033386062672470206
-0.01565256274247886
-0.03966395658609974
0.00931950031966575
0.042590054067670656
0.010302101564502264
-0.018644170462578075
0.051131776402021406
-0.0753863950145288
-0.017718268402188306
0.021521538773094696
-0.0017702659990935401
0.001550511533856957
-0.0004010481855499076
-0.04805860378155557
0.029125735359050237
0.023435846904621454
0.023275192697886107
0.024284906314659793
-0.014309850755843323
-0.044186404237877966
0.16775057604757684
0.06511793761262295
-0.03841714211079077
0.0063020540793902275
0.015345322450186036
-0.0006737403259664857
-0.0015732929231247056
0.017439546278552185
-0.02087260763554655
-0.03145635330648991
0.004305495944324925
0.03371405638247564
0.01716230842246962
-0.03726118969168597
0.006107511886262613
0.0017140450375797988
-0.008388509482092125
-0.00826795657856767
0.0032360410509517036
0.018757297160820446
-0.010177721193760274
-0.013900511168007836
-0.001954876850228173
-0.00639730456356977
0.03910058000236441
0.03387908068406054
-0.025799005167524768
0.012342059920730133
-0.009847509330214853
-0.008452863435823028
0.004036917643922675
-0.007871451927961843
0.008348276441784113
-0.001126265163400899
-0.021800823808741935
-0.03090062628347593
-0.00807625361892115
0.0333361287656871
-0.031657597861453425
0.01768116278293991
-0.12253379589693367
-0.11129363179313974
0.03155964487616408
-0.021621053009725406
0.017291757915750747
0.031378167278446015
0.0021146476812367574
-0.015805365636546408
-0.015601996703644441
-0.012624118261022112
0.11019000945431182
0.06632029973023605
0.007621339202427752
0.024913153591891786
-0.03648386365742748
-0.04601673035852039
-0.0744380508516
0.014797743292677044
-0.008464286635798374
-0.01496530117892596
0.0282759094264824
0.16031747630295495
-0.05993873921405443
0.06791945140866174
0.039499277853079925
-0.025843558082144898
-0.006312513656189554
-0.04705548566049012
-0.025235422864812746
-0.006096361798090757
-0.021805871287169678
-0.008706247041296312
-0.032100145070389885
-0.045426282870925636
-0.013044158754885075
0.05006984707812678
0.015209923402027786
-0.032014064247142475
-0.00028182628923920436
-0.02311544977632226
-0.01935153575349273
0.026673049621439293
0.008513082605848257
0.02512256751929511
-0.01565601043353318
0.03868163503585849
0.13844487414125095
0.025398335888129793
-0.025920789888735266
0.0031078790436912694
-0.03841458452928921
-0.002206051389411483
-0.016954716607903642
-0.004804404031181467
-0.0027791517266754855
-0.010389417430056641
-0.06753894392656425
0.04521365008010844
0.039621213984615
0.062418901252376924
0.05059861123608035
-0.025151306088108377
-0.012685956804872377
-0.14463991782555016
-0.07370434499517912
-0.05337697520681027
-0.045890146794949405
0.013841607434054793
0.014784924716618842
0.1150683817629623
-0.0010206630773028033
-0.027766598448409084
0.068910934536202
0.006528942392503636
0.01525433729843292
-0.028066621519643915
0.00454022647049256
-0.034112525787257146
-0.011934265948015908
0.047178008137328906
-0.018485833382966436
-0.03129035680129013
-0.01682139393067322
0.10248865593227108
0.057440587941990015
-0.01134276242757136
-0.027047680199325085
0.01088644098965268
0.025478855584151576
0.027412126644374948
-0.019951725671676176
-0.007874933406855794
-0.040566491230197343
0.007460724273213646
0.024824719457750208
-0.01616660621511618
0.03011597623272202
-0.01979754364851757
0.0010153956994575035
0.01710577259321711
-0.022481847989615812
-0.01200200489722922
-0.008369966311071371
0.009898107821484196
-0.017538498575101577
-0.02564205115836779
-0.033404261167661375
0.08138966954137988
0.006581869614354678
0.00039399115048705565
0.01488187694529332
-0.030017180536362938
0.02316313187631612
-0.0055357274512385524
-0.033609251248450205
-0.031051266082608716
-0.05197198592734728
-0.007261843310918041
0.010271935747754864
-0.04569027783521596
-0.008350656363475808
-0.014079142420757834
-0.014996629251632924
-0.02122719990218385
0.018678618640745402
-0.03284885120610477
0.0015713310476630955
0.018670427634646197
-0.027309636178176656
0.019530049409800077
0.06734957512615186
-0.010014065791250137
-0.009117397720822325
0.005120101834739695
-0.006276621713917935
5.3065007797712414e-05
0.0625968238476469
0.05732037782518868
0.05243947743547679
0.0034333309876882815
-0.01216566427820704
-0.01188091981718239
-0.04587057258077319
-0.02377314139056458
0.013957120097751942
0.0004908428911421129
0.05703018656661024
0.03792241288881519
-0.01671202914335314
0.022512569720951326
-0.05301056194338785
-0.02013185576341613
-0.014403610793095177
0.012707818482973884
-0.034585885914691826
-0.014436492940539749
-0.04530274360285643
0.06127234195790614
0.051032681990919336
-0.05884859968325113
-0.03625989713191498
-0.020472336549546357
0.054110621009701404
-0.02447696601044853
7.04488846867505e-05
0.016950595608519074
-0.018387956369849398
0.0035541319508206074
-0.0054760117226778015
-0.008354148818982936
-0.02244203904623793
0.12285375005685267
0.09497000791947494
-0.09235516188555193
-0.03902914319166887
-0.006979999325922876
0.008379553871045402
-0.003036238900297739
0.006242305863903711
0.09481527861697066
0.10605749477454963
0.002234670224041545
-0.007844329826616122
0.05698847447940413
-0.11808396662732491
-0.12124535824986386
0.05452753113480371
