0
-0.04489264485113707
-0.023078073459988954
0.012528129882622125
-0.025732869060849956
0.002781083024468492
0.022874362283582368
0.03145389348771999
0.09354231961546991
0.008428919892820203
-0.029252826931169554
0.018701817756610294
-0.00427267661104207
-0.02081447907223092
-0.004274104403438849
-0.05321193222120011
0.012460386208047658
-0.02605665032650764
-0.0758365463278538
0.012498429885984158
-0.019941303810610527
-0.019686424043688158
-0.024700736409452455
0.06743826439416706
0.003342008915058353
0.005456977889274751
-0.0188706870243823
0.007267569343073005
0.02637958245854765
-0.0012831903037904878
-0.006553925334378881
-0.006014910443402085
-0.034812081987619446
-0.11580621002805065
-0.02147596665903613
-0.00863470387754611
-0.003653439059136891
0.05623038841216359
0.029701952853552625
-0.08134846685311324
-0.010392259739640577
-0.03175459219045194
0.03756915874445557
-0.0330428486779195
0.06935511776168572
0.06713444259510047
-0.005732766892759116
0.003267811174037037
0.003026417287586798
-0.009909070410008873
0.14814227536772664
0.028072544128457923
-0.03386087756530144
0.013719429677295138
0.023988097886846478
0.029566646841412997
-0.0029144646722532672
0.009326900001286267
0.03913329781480379
0.02529653065268078
-0.031226744729958025
-0.006419976442782702
0.02284870285748175
0.024836731890932863
-0.026390197984248565
-0.0025139040282306383
-0.026856893907660138
-0.009882759740857451
-0.04526308790738808
0.02050457476140684
0.0025025023278420506
0.0034717272059366856
-0.016945920823231733
-0.005512046371952727
0.02400668349969787
-0.009432237073146516
0.00475263378581206
-0.06972240062911353
-0.12053799025037566
-0.003956505993363719
-0.057657070479313205
0.006693429648325195
0.003949661174911589
0.02351018410634548
-0.007203104345897539
-0.0316880409705942
-0.08102818910917862
-0.021206531309993924
-0.034589104253263656
0.009433363251033102
0.03419434992687487
-0.04529858357183666
-0.06789043904538833
0.11378405858358914
0.08015394451824347
-0.04352282079531455
0.0808671726962818
0.00661475884761483
-0.008283659102661314
0.000617865243087928
0.04672229724231064
0.05099336582432595
0.062362539699230175
0.003733551484944085
-0.010844400421462253
-0.005623743710308808
-0.023125019506858427
0.008936327345277937
0.013328753667426814
0.01505734523430085
0.17458150482049908
0.05169065587736623
-0.010327495388295405
0.015317929579752532
-0.05212587435723412
0.019563680482516922
-0.08538533062776607
-0.05904467528173004
0.015598880521776194
-0.015676503785801526
-0.0129735241330055
-0.036021817228228614
0.024356847233321797
0.018130701415974306
-0.05537443406330778
0.017589317095362676
-0.008523535679660806
0.02748581795270024
0.021229384201146298
-0.003943958797049369
0.013763627726861564
0.008156530424328982
-0.08829514776539554
-0.039686959449852274
0.014922734736387727
0.023049622413587868
0.029705057655670955
0.020612680213036867
-0.037868155634019796
-0.010255218201558903
-0.0104280136035577
0.11652590400014964
0.06698018270275122
-0.03961241612474152
-0.008592021890672558
0.031858678887108846
0.04972403978978583
0.031070992056046694
0.013517906732073232
0.02647488345478598
-0.12469503403761929
-0.04580059895096837
0.03891108438538119
-0.07097527185214565
-0.04389710581898776
0.02282541060638889
-0.12156126134625318
0.0027287513942465666
0.012962216016165111
-0.016108054657984466
0.02190459679770008
0.05060010869501304
-0.022474950591393112
-0.07241138597021157
0.030079704442670448
-0.05044419821359063
-0.10217389151211385
0.04292217559238061
-0.011375498119398234
0.011707889804563854
-0.04165205980600917
0.006273485757135153
0.05111104825071987
-0.07716335808360231
-0.03930660115387417
0.003483051494415189
0.020017596087340613
0.03890929032232209
0.0023416662543675345
-0.009461292503982657
0.005287887950356101
0.013017218554420049
-0.006857193142645945
0.007398137077858918
-0.013108751119343055
0.09082500124592134
0.06936527608364786
-0.03611090919429566
0.017541760738613788
0.0226989290566804
0.0032898372965449577
-0.014850905917252747
0.04864541853911162
0.07187274150589891
-0.0292605319993857
-0.015236753150457442
0.005600828584115437
0.003316548481138572
-0.0054442082083106125
0.04588921216804372
0.026222959434872645
-0.029012530541317378
0.022902764927248163
0.00223994075015453
0.0043105882932095475
-0.014572349375783902
-0.05650479565432681
-0.018758111504133368
-0.003161297294297904
-0.0106854997945303
0.015352233198576383
-0.0069155781207171155
-0.01054824569265868
-0.0371093489458984
-0.020374587151052725
0.014637896611706376
0.006240180730773562
0.03957981278278749
0.030655304914659297
0.004878740713594892
-0.020160326705336448
0.017946562865386033
0.003943689387868013
0.007384049166986866
-0.016779628012585247
-0.05864230596911787
0.011676093507620984
-0.0048260634631602795
-0.00572705471067069
0.02403428784301763
0.029930900684448883
0.02778651470568746
0.04713402768334539
0.01128510294934162
-0.02116453013076255
0.0034010628055966387
-0.0015114309743777881
-0.16201569247364592
0.043485238750065235
0.03174891321619444
-0.0007092252423946093
0.021148159552626226
-0.010685773100870103
0.002570348041031557
-0.003328755688854354
-0.002827398968501531
-0.009766268060633004
-0.023498649229993226
-0.014764057878850297
-0.004569487018844883
-0.03071066039734328
-0.060067317483532154
-0.003197586962047962
-0.01761762112674646
0.013002229389881477
-0.003084191557105672
-0.06667286139062512
0.1014965886136301
0.04705068718721367
-0.02724182218791006
-0.00328403441604309
-0.014657960271139853
0.04327835991032585
0.01659529430548923
0.07222879053967002
0.04142088543634276
-0.0028367269041893496
-0.0118761388050796
0.02810117059473839
0.03514471506572336
0.01025123883603931
0.0002267801915357968
0.005880726091709406
0.01919693569666551
-0.10546936091412668
-0.05569304359087043
-0.01875659765998027
-0.01727244112366378
0.004036487538220204
-0.029468827397688524
0.0020787459378686798
0.1404465500806039
0.007287351462819932
-0.01805830446575657
0.011263909184577594
0.01530279340379466
0.04815419733120527
-0.09667322110530364
-0.039341998355835184
0.022494325369993462
-0.011780526453100279
0.013625873972756688
0.0009547673995198017
-0.020654391149783603
0.030961130664773996
0.007015782571322642
0.027999861666053588
-0.011752247157346013
-0.029448941921699882
0.02466162227726234
-0.011757211728575925
-0.023916388884219736
0.0016846864149856016
-0.040205593375627006
-0.004485316920477933
-0.008620084391305741
-0.020056079103547394
-0.05706615885448743
0.008050728562386793
-0.0028918845359756085
0.0046380762595928425
0.004001354467932311
-0.02916756701079034
-0.026946716599573477
0.008913481203050064
0.02790473390278049
0.025090247925989996
-0.017156832581219913
0.008053826719241814
0.0038827616049428365
0.002263456965339745
-0.01230743453735991
-0.011815865099275008
0.017839547726168345
0.004330954124533215
-0.02387079543733391
-0.013524297566531904
0.024116092344300826
0.07207563357780263
-0.010046075650967988
0.05857314739317517
0.03396749459466796
-0.00017140128001335187
0.030535697489924473
0.022843724223202497
0.01658876343835985
0.024179563498904703
-0.058048559325455454
-0.03141500594290767
0.00733435435275866
0.024560939170862675
-0.011945820890649852
0.10491417330989901
0.003959540125613891
-0.037101414708460845
0.017505640491572733
-0.014189811898814155
-0.028771712060425295
0.001016303094440117
0.0045144440832821965
-0.05951144729120332
0.01381949445856814
0.016883755532747288
-0.029640882842036316
-0.10653699934846032
-0.010260864798268501
-0.023313868962133808
0.026495521491633027
0.1090752032955241
-0.005702476044214827
-0.03179231729380314
-0.035722760656771116
-0.005317024026266506
-0.010790660060747621
-0.029122686285641027
-0.02706350145384208
-0.012643040373684642
-0.014586566543072875
0.013675369700329475
0.11087156052617099
-0.021046196391875605
-0.04878907809204162
-0.04190316435791004
-0.025085887403374158
-0.052051033773836575
-0.0252778726495425
0.007087626622177859
-0.008581343655371944
0.019742133051547792
0.018760982430746143
0.03797141495075504
0.07442168095423361
0.028848326945538905
-0.03060656379139234
-0.0382107754190683
-0.037130592850930795
-0.020887026433328352
0.036458221586684984
0.07948574293179946
0.05144261911622302
-0.011737344272189571
0.030643457316791384
0.0201792831209906
-0.016345249494406675
-0.007779730156016252
0.005745835716302736
0.02129488130952989
-0.021968277522549075
-0.031757462064715886
0.01769167839672487
-0.02130370368467651
-0.0035574665732139355
0.020562570969644124
0.11610673600389146
0.022203722458928935
-0.00052139143182568
-0.014565304755562303
-0.05094443737153087
-0.07782728349416115
-0.047086088647353405
0.0064760582578371525
0.0070918121939323835
0.006049831323400049
-0.008260795118836706
-0.04164776030431008
0.030603893772508897
0.1425922550925799
-0.005635315355207334
0.009814819856630776
-0.04749347750849667
0.015133578404279325
0.018351486331668596
-0.03418327363031818
-0.013542487026994163
0.008824641476095152
-0.016472314229465913
0.01582491222716436
0.038076669948452525
-0.031511053293976715
-0.016695461228453796
0.026240528548638627
-0.0027037246374106852
0.0014379588955301986
0.009157648011665532
-0.012170133505976325
-0.04278806126321042
-0.010918262260103855
0.0010202463100431119
-0.005648242344638851
-0.03339048729232285
-0.12560542506748754
-0.030439178059949227
-0.022943695677717004
0.004807611479944769
-0.024886839181369705
0.002935119195746477
0.05431504074678629
0.005299980698184356
0.07316454856310872
0.01212649257066259
0.020747758950894257
-0.019828050510586545
-0.0027883102714338897
0.01570311015488551
0.021088589351457087
-0.0003837951463019909
0.01933423582618659
0.01479451911483785
0.03814517884053667
0.029923323373660434
0.018747898091792482
0.006048995343295876
-0.019967013236582308
-0.00035271773942028943
0.03761027080361551
-0.02237191672092912
-0.0009518816716768438
-0.0006487526073442049
-0.03897587584390789
-0.05109839546960958
0.03810554154812832
0.03038621547933022
0.0009580348556787741
-0.029136719734071167
0.006725320260127556
-0.012338913443853981
0.03737766507812782
0.004429467369747037
0.04485967255542287
-0.07520972495966313
-0.10563380870261199
0.02192739958849695
-0.03449998672985778
-0.02251843203793799
-0.003223600378790091
0.10179933010571476
0.004320145213529087
-0.022977124420137572
0.026654653931989986
-0.006857130300324772
0.007418525489965326
0.028083540674177506
0.01968070625961915
0.01563965507675831
-0.08161746199382078
-0.07671170831652438
0.011708190289638052
-0.006766630622151002
0.008461603343324579
-0.01574471308878556
-0.011573629635924286
0.05083396130032268
0.00040192722723389164
-0.033386062672470206
-0.01565256274247886
-0.03966395658609974
0.00931950031966575
0.042590054067670656
0.010302101564502264
-0.018644170462578075
0.051131776402021406
-0.0753863950145288
-0.017718268402188306
0.021521538773094696
-0.0017702659990935401
0.001550511533856957
-0.0004010481855499076
-0.04805860378155557
0.029125735359050237
0.023435846904621454
0.023275192697886107
0.024284906314659793
-0.014309850755843323
-0.044186404237877966
0.16775057604757684
0.06511793761262295
-0.03841714211079077
0.0063020540793902275
0.015345322450186036
-0.0006737403259664857
-0.0015732929231247056
0.017439546278552185
-0.02087260763554655
-0.03145635330648991
0.004305495944324925
0.03371405638247564
0.01716230842246962
-0.03726118969168597
0.006107511886262613
0.0017140450375797988
-0.008388509482092125
-0.00826795657856767
0.0032360410509517036
0.018757297160820446
-0.010177721193760274
-0.013900511168007836
-0.001954876850228173
-0.00639730456356977
0.03910058000236441
0.03387908068406054
-0.025799005167524768
0.012342059920730133
-0.009847509330214853
-0.008452863435823028
0.004036917643922675
-0.007871451927961843
0.008348276441784113
-0.001126265163400899
-0.021800823808741935
-0.03090062628347593
-0.00807625361892115
0.0333361287656871
-0.031657597861453425
0.01768116278293991
-0.12253379589693367
-0.11129363179313974
0.03155964487616408
-0.021621053009725406
0.017291757915750747
0.031378167278446015
0.0021146476812367574
-0.015805365636546408
-0.015601996703644441
-0.012624118261022112
0.11019000945431182
0.06632029973023605
0.007621339202427752
0.024913153591891786
-0.03648386365742748
-0.04601673035852039
-0.0744380508516
0.014797743292677044
-0.008464286635798374
-0.01496530117892596
0.0282759094264824
0.16031747630295495
-0.05993873921405443
0.06791945140866174
0.039499277853079925
-0.025843558082144898
-0.006312513656189554
-0.04705548566049012
-0.025235422864812746
-0.006096361798090757
-0.021805871287169678
-0.008706247041296312
-0.032100145070389885
-0.045426282870925636
-0.013044158754885075
0.05006984707812678
0.015209923402027786
-0.032014064247142475
-0.00028182628923920436
-0.02311544977632226
-0.01935153575349273
0.026673049621439293
0.008513082605848257
0.02512256751929511
-0.01565601043353318
0.03868163503585849
0.13844487414125095
0.025398335888129793
-0.025920789888735266
0.0031078790436912694
-0.03841458452928921
-0.002206051389411483
-0.016954716607903642
-0.004804404031181467
-0.0027791517266754855
-0.010389417430056641
-0.06753894392656425
0.04521365008010844
0.039621213984615
0.062418901252376924
0.05059861123608035
-0.025151306088108377
-0.012685956804872377
-0.14463991782555016
-0.07370434499517912
-0.05337697520681027
-0.045890146794949405
0.013841607434054793
0.014784924716618842
0.1150683817629623
-0.0010206630773028033
-0.027766598448409084
0.068910934536202
0.006528942392503636
0.01525433729843292
-0.028066621519643915
0.00454022647049256
-0.034112525787257146
-0.011934265948015908
0.047178008137328906
-0.018485833382966436
-0.03129035680129013
-0.01682139393067322
0.10248865593227108
0.057440587941990015
-0.01134276242757136
-0.027047680199325085
0.01088644098965268
0.025478855584151576
0.027412126644374948
-0.019951725671676176
-0.007874933406855794
-0.040566491230197343
0.007460724273213646
0.024824719457750208
-0.01616660621511618
0.03011597623272202
-0.01979754364851757
0.0010153956994575035
0.01710577259321711
-0.022481847989615812
-0.01200200489722922
-0.008369966311071371
0.009898107821484196
-0.017538498575101577
-0.02564205115836779
-0.033404261167661375
0.08138966954137988
0.006581869614354678
0.00039399115048705565
0.01488187694529332
-0.030017180536362938
0.02316313187631612
-0.0055357274512385524
-0.033609251248450205
-0.031051266082608716
-0.05197198592734728
-0.007261843310918041
0.010271935747754864
-0.04569027783521596
-0.008350656363475808
-0.014079142420757834
-0.014996629251632924
-0.02122719990218385
0.018678618640745402
-0.03284885120610477
0.0015713310476630955
0.018670427634646197
-0.027309636178176656
0.019530049409800077
0.06734957512615186
-0.010014065791250137
-0.009117397720822325
0.005120101834739695
-0.006276621713917935
5.3065007797712414e-05
0.0625968238476469
0.05732037782518868
0.05243947743547679
0.0034333309876882815
-0.01216566427820704
-0.01188091981718239
-0.04587057258077319
-0.02377314139056458
0.013957120097751942
0.0004908428911421129
0.05703018656661024
0.03792241288881519
-0.01671202914335314
0.022512569720951326
-0.05301056194338785
-0.02013185576341613
-0.014403610793095177
0.012707818482973884
-0.034585885914691826
-0.014436492940539749
-0.04530274360285643
0.06127234195790614
0.051032681990919336
-0.05884859968325113
-0.03625989713191498
-0.020472336549546357
0.054110621009701404
-0.02447696601044853
7.04488846867505e-05
0.016950595608519074
-0.018387956369849398
0.0035541319508206074
-0.0054760117226778015
-0.008354148818982936
-0.02244203904623793
0.12285375005685267
0.09497000791947494
-0.09235516188555193
-0.03902914319166887
-0.006979999325922876
0.008379553871045402
-0.003036238900297739
0.006242305863903711
0.09481527861697066
0.10605749477454963
0.002234670224041545
-0.007844329826616122
0.05698847447940413
-0.11808396662732491
-0.12124535824986386
0.05452753113480371
-0.042148296034838335
-0.008458296697714439
-0.023558224917882724
0.015315343882732384
0.07392164653985603
0.06821153350557502
-0.02920663142274136
0.06555577059234727
-0.017781890876270304
0.002545362460484187
0.035852018442676686
0.013969462056708588
-0.04630785522634888
-0.010029498570243307
-0.027932395114211913
0.005535294946107839
-0.015374974640446296
0.08147652583725211
-0.10705861413810377
-0.0919982010934249
-0.10393570192840819
-0.12780680962409852
0.037433974689701464
-0.013818147447251747
0.05642970109507467
-0.008036074581762623
0.014836764339256037
-0.012307295817916359
-0.0038113523084891
0.018643527063709985
0.06627738819669891
-0.014718489487333961
0.008088431983300403
-0.04654781972733981
-0.01585645304534515
-0.04824039981583724
-0.020437339232914263
-0.028037948635578392
0.005427141030676225
0.018330147606455016
0.007874117388869712
0.03936465879388933
0.020981501254983416
0.01706507637291035
-0.006851970582353354
-0.025824191416122785
0.06557997813729725
0.029668490424379957
0.03483141703692806
0.008093443999835973
-0.012568404123422012
0.01733719065101426
0.024059769030822898
-0.007996199092599889
0.009713161137232685
0.03547405151721918
0.015038155534752249
0.009979777636786638
-0.007075165535178153
0.016918491818553247
-0.0020771782001955045
-0.00046249252279973336
-0.0158332428622587
-0.013999112104822544
0.012572919342416933
0.003916804621845235
-0.015639164721157926
0.002864310785826388
0.019520358457998814
0.018622999761960475
0.013270369519253152
0.01496377796401427
0.0006036822912031347
-0.008811700109397762
-0.004354614236910355
0.009262818793957397
-0.08580135354669466
0.011680880118749374
0.018852071112098075
-0.01661636822510446
-0.014275958947446892
-0.028511227842684336
-0.005099733139487105
-0.013850810987805967
0.09666035596956453
0.02159979598608679
-0.03052707002291853
0.010219985873542772
-0.03997854537187985
-0.011998162197456006
-0.07149795792505599
-0.014710237885246348
0.0006319395053917891
-0.00683030222018207
-0.009782350624624429
0.052322183770273645
-0.12767710348068922
0.021882425364978853
0.10105448520920778
-0.010263989274441818
-0.0004464080431729361
0.004312942980963815
0.02469809630105183
0.005866534277289287
0.02100324263689634
-0.0063207766629732615
-0.15360719554001911
-0.03849245382239858
0.013758364780851894
0.01774106932545466
0.008638291303526427
0.05079466138472668
0.06575809175075685
0.012444686832733183
-0.016187951942436215
0.00536623606174539
0.004584240422483249
-0.02596148462074173
-0.004099441065482375
0.028499349271859653
0.0873104428466829
-0.023158223389962068
-0.029639960751950904
-0.00023102773319934338
0.024767267266052145
-0.027348504676452296
-0.013195804365033717
-0.008163961129921994
0.01995573558390058
0.02912627422504415
-0.058443870046949856
-0.057851157316557815
0.027674311832286125
-0.011240183300863732
0.011344486132751963
0.02021965136172952
-0.008095895468307399
-0.02473980456162939
0.018389845782096684
0.00265780776171818
-0.010141053279784398
0.002052653890150431
-0.0016517742418862137
-0.01978066646499751
-0.011597514181896756
-0.04219038648791777
0.014742660284736697
0.04726624629668916
-0.008660269395682542
0.015718571255824303
-0.00798369002298017
0.0021392619847395954
0.03474756793697432
-0.012243434714579466
0.06962435961390691
0.034947246391282945
-0.04372556653635808
-0.013546204330257354
-0.05768742063133388
-0.04939829318244435
-0.013279558075583018
0.03554665825264391
0.038867951999668214
-0.006277252567929198
-0.03673994099384696
6.873927733136513e-05
0.0238068697806277
0.007294849990109536
-0.03154480660268893
-0.007190187830498077
-0.048541668200900855
0.06165232399495032
0.19130961310056066
0.024966043664459748
-0.0113968766264812
0.011066273241347038
-0.015197291169570809
0.009325842451596915
0.038694082742137995
-0.0077962571193827815
0.00407732954716874
-0.026584321351140215
-0.03738924663325706
0.012319964626637916
0.005315289989708417
0.019650720389840916
-0.0010497642691715682
0.05655591407481248
-0.0023015959069908587
0.03364364660039431
0.033136873265431355
-0.039162376433701365
-0.01596790951266697
-0.047051665871453416
-0.0415326806783238
-0.04846264031671352
0.03986746831347478
0.012199476901611812
-0.009878989797815707
-0.073542822362628
-0.12380410333662369
0.019096787627119565
0.017087726676304222
-0.11678566967173849
-0.0170530397175538
0.048271193097759395
0.02285266157729128
-0.01295178248088054
-0.04951829658772718
-0.013843079045837653
0.014313434409495722
-0.028189080760408
0.008128896436454414
0.029695800107072002
0.00674131326576019
-0.0032684953530877
0.0221977573225476
0.055044614892823425
0.02911240412502914
0.021845775672108374
0.00019797605733268105
-0.025148344755244332
0.039075804384938635
-0.01452492926724164
-0.04224796798757243
-0.001461479234100893
-0.025522954421294833
0.045047937396051896
0.045401153942130186
-0.006996397007988646
0.004350701969270735
0.0029364192841488984
-0.01206171805512931
-0.0380896041774747
-0.04919315660507314
0.009090560090760239
0.017324146416633646
0.0010725571625131258
0.0355896175338246
-0.024648126161920428
0.02159254421515089
0.03413741617145791
-0.0140070437121911
-0.020916451045085386
0.06763328396642398
-0.014609793827582105
-0.007020946956573019
-0.012318386759267887
0.0069505462078106464
-0.005034306997528126
0.02722268711011342
-0.0044655735669301535
0.019959155396293858
0.01532585268598007
0.009452104158571275
-0.04236635288060956
0.043601831765924554
0.03991485336453611
-0.021313074674297793
-0.06485406085131983
0.016334297488073298
0.02647734029265584
-0.012140431907091019
-0.005970914180238132
-0.014377295551224687
-0.05186348728173172
0.08597210725433166
0.08121445370580979
-0.013894888057062465
0.016789950777879346
-0.0339303607278004
-0.012687639703388333
-0.040452948892292145
-0.002925500298526521
-0.022322549285637674
-0.009000186880214853
0.022506209040783303
-0.008517762098154717
-0.019777817058925305
0.004851173064092245
-0.0019797948718445744
0.014977103154668726
-0.02585506372504557
0.009793511593532757
0.01953664286580021
-0.17544992377152596
-0.08525059939261131
0.05462708148053937
0.08028032235549615
0.01998158692373798
0.012328068100220996
-0.003345131172592328
-0.05968952388963325
0.0764486477177737
-0.005876732543722815
-0.007766953421833203
0.017490903129022416
-0.002333003198308148
-0.001198743551395539
-0.06850010842859933
-0.026845581066820584
0.039606501190756566
0.08198186603566587
-0.061468752732272106
0.11945459228316031
0.04487021827925555
0.013431121648617431
-0.02323144199133728
-0.03133998836245799
-0.017199918285507904
-0.04352985894039185
-0.037863252672149045
-0.01859396241452826
0.023690128847861945
-0.010126811573953622
-0.023988182367135288
-0.015335141066900315
-0.04313709604450604
0.07197870629939586
0.14145117938865007
-0.06610354050982595
0.028200383483616302
0.02049013050443739
0.0029340960269351258
-0.02347884852080283
-0.028825848275096707
-0.025432002431879028
0.09842524551664174
0.11277468356005534
-0.06462193800346858
-0.05035218171811839
-0.03177029716268785
-0.04714332066651966
-0.04602693899645811
-0.010507652357141772
-0.05773445422851328
-0.09333462867490697
0.010254510099721998
-0.03327406971812367
0.06263308922796568
0.08488113773991743
0.12608288958375138
0.007134798160248273
0.0011418826870571918
0.011516433902805604
-0.05815184410425023
0.011095672589300063
-0.05199987830147641
-0.026209081968924488
0.020428282841996315
0.024179673805379952
-0.00037548470622985567
-0.010972510237631265
-0.010294259530318785
0.008742873043616107
0.05517716676902618
0.00635591495477934
0.0046417184169037975
-0.006895757815990575
-0.04679670058192105
-0.005456510986264204
-0.013789741280658603
-0.001101482345335418
0.014557058022004346
-0.0034330462360260368
-0.031177962320859624
0.07161993991077974
0.020734488038397322
0.0020556193595397828
0.04483525457280131
0.008846032952196633
0.003908783091842966
-0.016705508344899606
-0.012991057324512
-0.0029484299505112203
-0.0027563051948445434
0.10390523279464173
-0.024272088891607937
0.026929386382939978
-0.04025563050748052
0.04408457310467827
-0.036573305814812766
-0.08507014420327311
0.08904129861526493
-0.015012340000458096
-0.03586454874911308
-0.019420309341737323
0.05896567880900657
0.021802126511796516
0.007638652230302814
-0.026407187193276966
-0.001185108536709555
-0.011347984969211168
-0.11038869740127523
0.017632100064361046
0.03471405266504454
0.00940011155710193
-0.03268988404298737
0.021869697729012955
-0.0008170487646963896
-0.10290311854060562
-0.008204834261525386
0.04308667229911111
0.004624729454844382
-0.055318420444751215
-0.03810893612391438
0.041748489468821565
-0.013602446685502019
-0.06445706546192458
0.004251084923202053
-0.02763048381970259
0.01485821037449358
-0.014132499271412115
0.05313101034715719
0.08030479875335923
0.02622447714919974
-0.011236186337995493
0.032721445238533646
-0.029623642585219222
-0.07082018929792015
-0.008431048375708705
0.0008396481003223423
0.03343202156428502
0.0468183260155221
-0.012946660469092838
-0.01688385926520016
-0.021337256217759473
0.01278851720239007
-0.01949860188389648
0.008673248875505737
-0.007099328086592698
0.02850979829153059
0.0025203380015112156
-0.007786772282030862
0.0082308224598724
0.007813015443959613
-0.034729595794226485
-0.06408396808584364
-0.0528378787005833
0.007887554150995107
0.06343833155130837
-0.011546724447817739
-0.052588938869651373
0.022649770675593393
0.022944773807755982
-0.028249845657822247
0.03462475780522223
0.014596361371041842
-0.004484443945907073
0.06934977730845088
0.07342812624748528
-0.019897133255783062
0.10289716056613685
0.03324924864518285
-0.027112202787447366
0.022528043088946553
-0.004873781607453889
-0.03420171777107798
0.009382529137830525
-0.02342103898404472
-0.017708746600184486
0.05859730600485778
0.013961648690046388
-0.03942082335581678
-0.020013535814046104
-0.023467494552943703
-0.0112536207640506
0.0565017124248906
-0.005835213494278931
0.015310555960823646
-0.019235103077918314
-0.07170762632631841
0.009044956797852909
-0.004999613787232353
0.030368932168827554
-0.004698675557428974
-0.09813547769203074
0.11468686822099233
0.03202154963472361
-0.0533907501361695
0.016127209641613807
-0.022816178935327346
-0.004973041246059472
-0.07209528485839069
-0.05133191849183202
-0.007864614094944595
-0.021543749402453707
0.014377087248886254
0.009221221902654278
0.010713947953459096
0.004554582108372357
0.027208371915853333
-0.004924489791157094
-0.009651169238168035
0.002015019719595421
0.010395370400296037
-0.0025621449374759304
0.005720401004183386
0.024480578010657568
0.024067737461368845
-0.005220199106211954
-0.03348423126282317
-0.045180381556318795
0.012195990615279165
-0.003319101258838582
0.021138944706531094
0.024510632248283943
0.025302553175079262
-0.0037232876989790535
-0.040511591175459535
0.04749492079932144
-0.010054060330162791
0.003190242192057113
0.07550420859024447
0.005414429647544125
0.022215993022346187
0.09064568076621084
-0.03263163597453023
-0.0958148106561098
0.0007001218397765477
-0.022641041486084534
-0.007622849313441595
-0.0677679817260982
-0.03741636526042673
0.058293122598241515
0.03376502710644236
-0.033569267864029
-0.026472647381312216
-0.00935638446872152
-0.01690996976545377
0.053698553360842345
-0.01961029171099347
-0.0012137825260206583
0.028332776575903645
0.02103592560513884
-0.006992616077876189
0.0010300389591550772
0.022458805670021884
0.011879590970894803
-0.013422513629778561
0.0020667127596598906
-0.0051240423130176965
-0.001992681237022722
0.03528120159938094
-0.016577378281861177
-0.043535408297523864
-0.016459376250542626
-0.0504344450940986
0.03795589091298803
-0.027656380258255113
0.014578420256488712
-0.011672396827265017
-0.012553803830165812
0.033863474933068176
0.016741348564684285
-0.0004964924422566374
0.014929522124823824
-0.01323689350774833
-0.03350628279112077
-0.001264599668404609
0.07415830595324031
-0.0959166191224344
-0.12040959899674694
0.028327042857305397
-0.06384987207467159
0.0034822763099267655
0.0513130941644838
0.0474525820105454
0.00996293128119944
0.007580430761610923
0.02568343322010876
0.0020000973510116457
-0.01252255148992212
0.05933075226530151
0.004790169563028574
0.05170432353006213
0.09026512306249192
-0.015118683656417591
0.0439879258946114
0.001189357602913862
0.007770048850145533
-0.11494867895321707
-0.026660376433924472
0.07349666079819564
-0.09446138979889598
0.059678002837474875
-0.028542196444806794
-0.1306785855688051
-0.023957305654984974
0.020739958166114847
-0.024052424180942132
0.025708538892839427
0.09807667687582448
0.07522210527370084
0.013965164991427121
0.011363864147850119
0.08238721423206516
-0.03703045216674112
0.08233285244560809
0.06744484950883776
-0.07169150587427715
-0.021673637323474333
-0.10652799321680119
-0.10925949953634803
0.026628723825631938
0.0006579098016837499
0.03506577299057835
0.001845750070535308
0.04062747110210794
-0.009987570893255623
-0.00981887991652289
-0.0025813800559596513
0.04363298889526414
0.002139709316181393
-0.02832896862785487
-0.03453968394328248
-0.0017032827295187705
0.0274309631738014
0.009758121796205122
-0.18525381957515136
-0.05541529090826652
0.03204074473087297
0.002595421015430861
-0.004099957859379902
-0.00036856772815311976
0.013791711001616243
0.027098524476473655
-0.024484107626273507
0.02043844075398315
0.04681747437333297
0.00944853297960997
0.0088594686972756
0.03465144934717475
-0.006357209974124325
0.029382415959038285
0.03161188234180649
0.032048675241037
-0.016350612160503004
0.014667692092970051
0.02950558396681864
0.018927244553026565
0.020920481060125857
-0.027528642463183213
-0.11307107308224575
-0.02643744811129171
-0.03149013412473541
0.04077255687664068
-0.003202711437508881
0.06126658549432553
0.023847262762994925
-0.008334555149704112
-0.11788545059124013
-0.05828914960960022
-0.021488554158503714
0.026570840330708976
0.023413333410853582
0.03351523562590539
0.03088561545746762
0.010317477799984882
0.03693725356698136
0.033997955272634967
-0.10476222016367846
-0.13461883595506413
0.056738378821978006
0.001548237030407071
0.02267825044065657
-0.016715240736390198
0.04284889741063053
-0.0006931344602267011
-0.018713281892582097
0.05690438502386727
0.06462660463505965
0.042851648698454085
0.029444088851017167
-0.013530587532658584
-0.007695806031229444
0.0012730468031191362
0.02307615872423292
-0.016946197020462676
-0.00036100788676738424
-0.002166713102692482
0.07033865068009858
-0.08963035292667268
-0.14923287523285297
0.0029269111989863317
-0.018327147923731062
0.017068619706685977
-0.030367595845405423
-0.0029300257026428776
0.03500618183173288
-0.003782395360804676
0.053626352982367224
0.05613373157183128
-0.018843350146826837
-0.01984821299732895
-0.018742299376294857
-0.013741317871297204
-0.027770470697174855
-0.033216101262184314
-0.020359954626443893
-0.0503748851017027
0.08398977866180322
-0.00952444813836197
0.003683519050846209
-0.00039358754084776977
0.0322125073975758
0.004128428988633407
0.014156007715119896
-0.011385897211303467
0.06267638830632619
0.0311377604733418
-0.012357009566666726
-0.0054187216524335
-0.03681750852897529
0.0410126769687395
-0.0016070869782868794
-0.009940294914984585
0.05202727739305489
-0.020767245817092106
-0.03349469896310871
0.05158090650039148
0.01629530919500266
-0.011727745510603887
0.03869921068558483
-0.020123946119212723
-0.011234454994904991
-0.017955310511936894
0.004425846509470291
-0.015596370540286383
-0.01471697671056353
0.007581040923369074
-0.018491817630484672
0.03970026936862832
-0.005221936075041058
-0.047181001323201764
-0.004916616685207936
0.015095126941590183
0.025380271010504236
-0.0005270187885418008
0.0007682207487765435
-0.0027802924053598045
-0.042914695451026004
-0.021059141222538214
-0.03072244797342363
-0.017484823243197934
0.00019170550308042272
-0.0007253515860131897
-0.0123570712032375
0.0034887926803663168
0.05794415762564295
