0
-0.042148296034838335
-0.008458296697714439
-0.023558224917882724
0.015315343882732384
0.07392164653985603
0.06821153350557502
-0.02920663142274136
0.06555577059234727
-0.017781890876270304
0.002545362460484187
0.035852018442676686
0.013969462056708588
-0.04630785522634888
-0.010029498570243307
-0.027932395114211913
0.005535294946107839
-0.015374974640446296
0.08147652583725211
-0.10705861413810377
-0.0919982010934249
-0.10393570192840819
-0.12780680962409852
0.037433974689701464
-0.013818147447251747
0.05642970109507467
-0.008036074581762623
0.014836764339256037
-0.012307295817916359
-0.0038113523084891
0.018643527063709985
0.06627738819669891
-0.014718489487333961
0.008088431983300403
-0.04654781972733981
-0.01585645304534515
-0.04824039981583724
-0.020437339232914263
-0.028037948635578392
0.005427141030676225
0.018330147606455016
0.007874117388869712
0.03936465879388933
0.020981501254983416
0.01706507637291035
-0.006851970582353354
-0.025824191416122785
0.06557997813729725
0.029668490424379957
0.03483141703692806
0.008093443999835973
-0.012568404123422012
0.01733719065101426
0.024059769030822898
-0.007996199092599889
0.009713161137232685
0.03547405151721918
0.015038155534752249
0.009979777636786638
-0.007075165535178153
0.016918491818553247
-0.0020771782001955045
-0.00046249252279973336
-0.0158332428622587
-0.013999112104822544
0.012572919342416933
0.003916804621845235
-0.015639164721157926
0.002864310785826388
0.019520358457998814
0.018622999761960475
0.013270369519253152
0.01496377796401427
0.0006036822912031347
-0.008811700109397762
-0.004354614236910355
0.009262818793957397
-0.08580135354669466
0.011680880118749374
0.018852071112098075
-0.01661636822510446
-0.014275958947446892
-0.028511227842684336
-0.005099733139487105
-0.013850810987805967
0.09666035596956453
0.02159979598608679
-0.03052707002291853
0.010219985873542772
-0.03997854537187985
-0.011998162197456006
-0.07149795792505599
-0.014710237885246348
0.0006319395053917891
-0.00683030222018207
-0.009782350624624429
0.052322183770273645
-0.12767710348068922
0.021882425364978853
0.10105448520920778
-0.010263989274441818
-0.0004464080431729361
0.004312942980963815
0.02469809630105183
0.005866534277289287
0.02100324263689634
-0.0063207766629732615
-0.15360719554001911
-0.03849245382239858
0.013758364780851894
0.01774106932545466
0.008638291303526427
0.05079466138472668
0.06575809175075685
0.012444686832733183
-0.016187951942436215
0.00536623606174539
0.004584240422483249
-0.02596148462074173
-0.004099441065482375
0.028499349271859653
0.0873104428466829
-0.023158223389962068
-0.029639960751950904
-0.00023102773319934338
0.024767267266052145
-0.027348504676452296
-0.013195804365033717
-0.008163961129921994
0.01995573558390058
0.02912627422504415
-0.058443870046949856
-0.057851157316557815
0.027674311832286125
-0.011240183300863732
0.011344486132751963
0.02021965136172952
-0.008095895468307399
-0.02473980456162939
0.018389845782096684
0.00265780776171818
-0.010141053279784398
0.002052653890150431
-0.0016517742418862137
-0.01978066646499751
-0.011597514181896756
-0.04219038648791777
0.014742660284736697
0.04726624629668916
-0.008660269395682542
0.015718571255824303
-0.00798369002298017
0.0021392619847395954
0.03474756793697432
-0.012243434714579466
0.06962435961390691
0.034947246391282945
-0.04372556653635808
-0.013546204330257354
-0.05768742063133388
-0.04939829318244435
-0.013279558075583018
0.03554665825264391
0.038867951999668214
-0.006277252567929198
-0.03673994099384696
6.873927733136513e-05
0.0238068697806277
0.007294849990109536
-0.03154480660268893
-0.007190187830498077
-0.048541668200900855
0.06165232399495032
0.19130961310056066
0.024966043664459748
-0.0113968766264812
0.011066273241347038
-0.015197291169570809
0.009325842451596915
0.038694082742137995
-0.0077962571193827815
0.00407732954716874
-0.026584321351140215
-0.03738924663325706
0.012319964626637916
0.005315289989708417
0.019650720389840916
-0.0010497642691715682
0.05655591407481248
-0.0023015959069908587
0.03364364660039431
0.033136873265431355
-0.039162376433701365
-0.01596790951266697
-0.047051665871453416
-0.0415326806783238
-0.04846264031671352
0.03986746831347478
0.012199476901611812
-0.009878989797815707
-0.073542822362628
-0.12380410333662369
0.019096787627119565
0.017087726676304222
-0.11678566967173849
-0.0170530397175538
0.048271193097759395
0.02285266157729128
-0.01295178248088054
-0.04951829658772718
-0.013843079045837653
0.014313434409495722
-0.028189080760408
0.008128896436454414
0.029695800107072002
0.00674131326576019
-0.0032684953530877
0.0221977573225476
0.055044614892823425
0.02911240412502914
0.021845775672108374
0.00019797605733268105
-0.025148344755244332
0.039075804384938635
-0.01452492926724164
-0.04224796798757243
-0.001461479234100893
-0.025522954421294833
0.045047937396051896
0.045401153942130186
-0.006996397007988646
0.004350701969270735
0.0029364192841488984
-0.01206171805512931
-0.0380896041774747
-0.04919315660507314
0.009090560090760239
0.017324146416633646
0.0010725571625131258
0.0355896175338246
-0.024648126161920428
0.02159254421515089
0.03413741617145791
-0.0140070437121911
-0.020916451045085386
0.06763328396642398
-0.014609793827582105
-0.007020946956573019
-0.012318386759267887
0.0069505462078106464
-0.005034306997528126
0.02722268711011342
-0.0044655735669301535
0.019959155396293858
0.01532585268598007
0.009452104158571275
-0.04236635288060956
0.043601831765924554
0.03991485336453611
-0.021313074674297793
-0.06485406085131983
0.016334297488073298
0.02647734029265584
-0.012140431907091019
-0.005970914180238132
-0.014377295551224687
-0.05186348728173172
0.08597210725433166
0.08121445370580979
-0.013894888057062465
0.016789950777879346
-0.0339303607278004
-0.012687639703388333
-0.040452948892292145
-0.002925500298526521
-0.022322549285637674
-0.009000186880214853
0.022506209040783303
-0.008517762098154717
-0.019777817058925305
0.004851173064092245
-0.0019797948718445744
0.014977103154668726
-0.02585506372504557
0.009793511593532757
0.01953664286580021
-0.17544992377152596
-0.08525059939261131
0.05462708148053937
0.08028032235549615
0.01998158692373798
0.012328068100220996
-0.003345131172592328
-0.05968952388963325
0.0764486477177737
-0.005876732543722815
-0.007766953421833203
0.017490903129022416
-0.002333003198308148
-0.001198743551395539
-0.06850010842859933
-0.026845581066820584
0.039606501190756566
0.08198186603566587
-0.061468752732272106
0.11945459228316031
0.04487021827925555
0.013431121648617431
-0.02323144199133728
-0.03133998836245799
-0.017199918285507904
-0.04352985894039185
-0.037863252672149045
-0.01859396241452826
0.023690128847861945
-0.010126811573953622
-0.023988182367135288
-0.015335141066900315
-0.04313709604450604
0.07197870629939586
0.14145117938865007
-0.06610354050982595
0.028200383483616302
0.02049013050443739
0.0029340960269351258
-0.02347884852080283
-0.028825848275096707
-0.025432002431879028
0.09842524551664174
0.11277468356005534
-0.06462193800346858
-0.05035218171811839
-0.03177029716268785
-0.04714332066651966
-0.04602693899645811
-0.010507652357141772
-0.05773445422851328
-0.09333462867490697
0.010254510099721998
-0.03327406971812367
0.06263308922796568
0.08488113773991743
0.12608288958375138
0.007134798160248273
0.0011418826870571918
0.011516433902805604
-0.05815184410425023
0.011095672589300063
-0.05199987830147641
-0.026209081968924488
0.020428282841996315
0.024179673805379952
-0.00037548470622985567
-0.010972510237631265
-0.010294259530318785
0.008742873043616107
0.05517716676902618
0.00635591495477934
0.0046417184169037975
-0.006895757815990575
-0.04679670058192105
-0.005456510986264204
-0.013789741280658603
-0.001101482345335418
0.014557058022004346
-0.0034330462360260368
-0.031177962320859624
0.07161993991077974
0.020734488038397322
0.0020556193595397828
0.04483525457280131
0.008846032952196633
0.003908783091842966
-0.016705508344899606
-0.012991057324512
-0.0029484299505112203
-0.0027563051948445434
0.10390523279464173
-0.024272088891607937
0.026929386382939978
-0.04025563050748052
0.04408457310467827
-0.036573305814812766
-0.08507014420327311
0.08904129861526493
-0.015012340000458096
-0.03586454874911308
-0.019420309341737323
0.05896567880900657
0.021802126511796516
0.007638652230302814
-0.026407187193276966
-0.001185108536709555
-0.011347984969211168
-0.11038869740127523
0.017632100064361046
0.03471405266504454
0.00940011155710193
-0.03268988404298737
0.021869697729012955
-0.0008170487646963896
-0.10290311854060562
-0.008204834261525386
0.04308667229911111
0.004624729454844382
-0.055318420444751215
-0.03810893612391438
0.041748489468821565
-0.013602446685502019
-0.06445706546192458
0.004251084923202053
-0.02763048381970259
0.01485821037449358
-0.014132499271412115
0.05313101034715719
0.08030479875335923
0.02622447714919974
-0.011236186337995493
0.032721445238533646
-0.029623642585219222
-0.07082018929792015
-0.008431048375708705
0.0008396481003223423
0.03343202156428502
0.0468183260155221
-0.012946660469092838
-0.01688385926520016
-0.021337256217759473
0.01278851720239007
-0.01949860188389648
0.008673248875505737
-0.007099328086592698
0.02850979829153059
0.0025203380015112156
-0.007786772282030862
0.0082308224598724
0.007813015443959613
-0.034729595794226485
-0.06408396808584364
-0.0528378787005833
0.007887554150995107
0.06343833155130837
-0.011546724447817739
-0.052588938869651373
0.022649770675593393
0.022944773807755982
-0.028249845657822247
0.03462475780522223
0.014596361371041842
-0.004484443945907073
0.06934977730845088
0.07342812624748528
-0.019897133255783062
0.10289716056613685
0.03324924864518285
-0.027112202787447366
0.022528043088946553
-0.004873781607453889
-0.03420171777107798
0.009382529137830525
-0.02342103898404472
-0.017708746600184486
0.05859730600485778
0.013961648690046388
-0.03942082335581678
-0.020013535814046104
-0.023467494552943703
-0.0112536207640506
0.0565017124248906
-0.005835213494278931
0.015310555960823646
-0.019235103077918314
-0.07170762632631841
0.009044956797852909
-0.004999613787232353
0.030368932168827554
-0.004698675557428974
-0.09813547769203074
0.11468686822099233
0.03202154963472361
-0.0533907501361695
0.016127209641613807
-0.022816178935327346
-0.004973041246059472
-0.07209528485839069
-0.05133191849183202
-0.007864614094944595
-0.021543749402453707
0.014377087248886254
0.009221221902654278
0.010713947953459096
0.004554582108372357
0.027208371915853333
-0.004924489791157094
-0.009651169238168035
0.002015019719595421
0.010395370400296037
-0.0025621449374759304
0.005720401004183386
0.024480578010657568
0.024067737461368845
-0.005220199106211954
-0.03348423126282317
-0.045180381556318795
0.012195990615279165
-0.003319101258838582
0.021138944706531094
0.024510632248283943
0.025302553175079262
-0.0037232876989790535
-0.040511591175459535
0.04749492079932144
-0.010054060330162791
0.003190242192057113
0.07550420859024447
0.005414429647544125
0.022215993022346187
0.09064568076621084
-0.03263163597453023
-0.0958148106561098
0.0007001218397765477
-0.022641041486084534
-0.007622849313441595
-0.0677679817260982
-0.03741636526042673
0.058293122598241515
0.03376502710644236
-0.033569267864029
-0.026472647381312216
-0.00935638446872152
-0.01690996976545377
0.053698553360842345
-0.01961029171099347
-0.0012137825260206583
0.028332776575903645
0.02103592560513884
-0.006992616077876189
0.0010300389591550772
0.022458805670021884
0.011879590970894803
-0.013422513629778561
0.0020667127596598906
-0.0051240423130176965
-0.001992681237022722
0.03528120159938094
-0.016577378281861177
-0.043535408297523864
-0.016459376250542626
-0.0504344450940986
0.03795589091298803
-0.027656380258255113
0.014578420256488712
-0.011672396827265017
-0.012553803830165812
0.033863474933068176
0.016741348564684285
-0.0004964924422566374
0.014929522124823824
-0.01323689350774833
-0.03350628279112077
-0.001264599668404609
0.07415830595324031
-0.0959166191224344
-0.12040959899674694
0.028327042857305397
-0.06384987207467159
0.0034822763099267655
0.0513130941644838
0.0474525820105454
0.00996293128119944
0.007580430761610923
0.02568343322010876
0.0020000973510116457
-0.01252255148992212
0.05933075226530151
0.004790169563028574
0.05170432353006213
0.09026512306249192
-0.015118683656417591
0.0439879258946114
0.001189357602913862
0.007770048850145533
-0.11494867895321707
-0.026660376433924472
0.07349666079819564
-0.09446138979889598
0.059678002837474875
-0.028542196444806794
-0.1306785855688051
-0.023957305654984974
0.020739958166114847
-0.024052424180942132
0.025708538892839427
0.09807667687582448
0.07522210527370084
0.013965164991427121
0.011363864147850119
0.08238721423206516
-0.03703045216674112
0.08233285244560809
0.06744484950883776
-0.07169150587427715
-0.021673637323474333
-0.10652799321680119
-0.10925949953634803
0.026628723825631938
0.0006579098016837499
0.03506577299057835
0.001845750070535308
0.04062747110210794
-0.009987570893255623
-0.00981887991652289
-0.0025813800559596513
0.04363298889526414
0.002139709316181393
-0.02832896862785487
-0.03453968394328248
-0.0017032827295187705
0.0274309631738014
0.009758121796205122
-0.18525381957515136
-0.05541529090826652
0.03204074473087297
0.002595421015430861
-0.004099957859379902
-0.00036856772815311976
0.013791711001616243
0.027098524476473655
-0.024484107626273507
0.02043844075398315
0.04681747437333297
0.00944853297960997
0.0088594686972756
0.03465144934717475
-0.006357209974124325
0.029382415959038285
0.03161188234180649
0.032048675241037
-0.016350612160503004
0.014667692092970051
0.02950558396681864
0.018927244553026565
0.020920481060125857
-0.027528642463183213
-0.11307107308224575
-0.02643744811129171
-0.03149013412473541
0.04077255687664068
-0.003202711437508881
0.06126658549432553
0.023847262762994925
-0.008334555149704112
-0.11788545059124013
-0.05828914960960022
-0.021488554158503714
0.026570840330708976
0.023413333410853582
0.03351523562590539
0.03088561545746762
0.010317477799984882
0.03693725356698136
0.033997955272634967
-0.10476222016367846
-0.13461883595506413
0.056738378821978006
0.001548237030407071
0.02267825044065657
-0.016715240736390198
0.04284889741063053
-0.0006931344602267011
-0.018713281892582097
0.05690438502386727
0.06462660463505965
0.042851648698454085
0.029444088851017167
-0.013530587532658584
-0.007695806031229444
0.0012730468031191362
0.02307615872423292
-0.016946197020462676
-0.00036100788676738424
-0.002166713102692482
0.07033865068009858
-0.08963035292667268
-0.14923287523285297
0.0029269111989863317
-0.018327147923731062
0.017068619706685977
-0.030367595845405423
-0.0029300257026428776
0.03500618183173288
-0.003782395360804676
0.053626352982367224
0.05613373157183128
-0.018843350146826837
-0.01984821299732895
-0.018742299376294857
-0.013741317871297204
-0.027770470697174855
-0.033216101262184314
-0.020359954626443893
-0.0503748851017027
0.08398977866180322
-0.00952444813836197
0.003683519050846209
-0.00039358754084776977
0.0322125073975758
0.004128428988633407
0.014156007715119896
-0.011385897211303467
0.06267638830632619
0.0311377604733418
-0.012357009566666726
-0.0054187216524335
-0.03681750852897529
0.0410126769687395
-0.0016070869782868794
-0.009940294914984585
0.05202727739305489
-0.020767245817092106
-0.03349469896310871
0.05158090650039148
0.01629530919500266
-0.011727745510603887
0.03869921068558483
-0.020123946119212723
-0.011234454994904991
-0.017955310511936894
0.004425846509470291
-0.015596370540286383
-0.01471697671056353
0.007581040923369074
-0.018491817630484672
0.03970026936862832
-0.005221936075041058
-0.047181001323201764
-0.004916616685207936
0.015095126941590183
0.025380271010504236
-0.0005270187885418008
0.0007682207487765435
-0.0027802924053598045
-0.042914695451026004
-0.021059141222538214
-0.03072244797342363
-0.017484823243197934
0.00019170550308042272
-0.0007253515860131897
-0.0123570712032375
0.0034887926803663168
0.05794415762564295
-0.018588669262344756
0.051338370471109306
0.009556436355392786
0.05357604162108335
-0.0010132013829879725
-0.15689916970293638
-0.0021249114350731777
0.028324712063253897
-0.027859233901299185
-0.036408317036259914
-0.015242445593092622
0.005807794634768017
-0.04171743931484617
0.025275354715767077
0.04510566757135511
-0.017172059793882078
7.12845475561259e-05
0.0051655045370620385
-0.023106355719964902
0.005941281844993114
0.007032720998892461
0.007306028003334672
0.02649272399215319
-0.00025519544084583607
-0.024462809649876235
0.17071926498282666
0.08207487604442483
-0.03291290855137732
-0.04896062132966706
-0.002481086030368579
0.004485448057333196
-0.005745720237431289
0.020675718795062928
-0.006481394642586766
-0.017656773055835285
-0.021088303832210522
0.014327590147883788
0.027666367174254452
-0.003602850698595966
-0.005367662204349269
-0.009722408291341925
-0.056309872309772725
-0.02087266104487694
0.0364293256336523
-0.03554575297176585
0.09261517698517263
0.09110069708603759
-0.01420832359148114
0.007072676805781304
0.01331912697386977
0.015166565024319343
0.028748699789132692
0.010920432046191468
-0.03573388618969454
-0.004039561257823628
0.01125353097932733
0.011875915283410666
-0.18334097946501912
-0.06678113589470581
0.11122068704766788
0.10415531884757992
-0.03534170309308856
0.06598446322866162
-0.11524967959835725
-0.03203736808314635
0.034630185978779565
0.018113285629659855
-0.05638724387644422
-0.1316338552010366
0.00964771797682737
-0.009316919918348402
-0.01839462919401811
-0.046111844483730645
0.014582040916747268
0.005286705607494618
-0.02613429160144354
0.005941558343867983
-0.005503394205267807
0.004033222574520151
0.015863284060428758
0.011852144089294171
-0.0001227546678976934
0.03658257748513044
-0.012837906782364504
-0.04222115837101113
-0.0005330634820198368
0.014247650603523124
0.1213535162934272
0.0047742276685181
-0.01513901107592407
-0.017581144264482682
0.01056348720422926
0.01235967047952599
-0.006541488190671555
-0.0024453137095522947
-0.010974757830280726
0.029496793515667006
-0.0026198602926516402
-0.023002651535562774
-0.007334400663393448
-0.01863324798854586
-0.009518294387974498
-0.0024706044791473337
0.004778776997141432
-0.0028084784843449657
0.04566023922861316
0.01749122754084135
-0.026679618062091192
-0.04143586645626436
0.012970040580915065
-0.03197144590483613
0.0399334931306033
-0.001640811142889565
-0.022043921701656782
-0.0008471996631579997
0.011928102110213822
-0.0946336102367653
-0.012697498623915556
0.10819688672659186
-0.014337840570346214
0.015683503991316107
-0.018171128980957865
0.021167972621758225
-0.0028174254565226423
-0.02747071728232299
0.023737166881620402
-0.0002413682020329689
-0.0450145123886681
-0.004181970349321911
0.015492325878458866
-0.022691806535009598
0.08356194876889829
0.017368562874435826
-0.06124703120096701
-0.038491031691268524
-0.02926642018727727
0.020235428198863783
-0.029714102665090565
-0.024289213289466843
0.022446602093458102
0.164114622578919
0.05020303424049502
-0.02790892466279869
0.02006292144825517
-0.024291217521024457
-0.026696732578116084
0.010961509943647784
0.06697197191219297
0.09285519513481684
0.03887119518842321
0.0043349682395811
-0.029720895314085165
-0.010926404068291097
-0.012321505592516874
0.023224340866829014
-0.02034607903216191
-0.0005448954010216776
-0.00986952118794987
0.0023368483393380324
0.016480449171058915
-0.006275300593136154
0.0038956699224893024
-0.007405239618107386
-0.007793684955233465
0.012254035159557537
-0.02413277104910506
0.0044628148297568985
0.013376016994645966
0.003484381101969184
-0.0036560406866974773
-0.008153523631736655
-0.006167593496662498
0.053855077250672484
-0.05168047104414967
0.013100240247877185
-0.018872919972972628
0.004748412715420133
0.009603630904666602
-0.013892216333082194
0.024754607172670317
0.014346176811245363
0.0049403436217563355
0.02670365930938889
-0.05283445009384423
-0.06873001917602609
0.06632549913032863
-0.07428010979061503
-0.02695478606091302
0.003946027493271819
-0.13426029669530512
-0.026884702303677233
0.01604626434301894
-0.007547804648053048
-0.03799044167301087
-0.1301946393542997
0.0003502366770703388
0.04317555335328317
-0.017931832089387263
-0.10214845000230485
0.05124493845750581
0.05428048298898499
0.0067383356379184375
0.03275923898282423
-0.005255883009148855
0.00956417968640593
0.009221592426257617
0.034947867340677355
-0.13877285317859353
-0.08215950571931722
0.04143386626855849
-0.013125204817003938
0.07132865461314322
0.01688298128797009
-0.009083033689468513
0.0010835931601872262
0.02639071597210524
0.004165119249088244
0.013235636338462406
-0.01315268550391617
0.06297503034278747
0.11866912447103395
-0.03206422523870665
0.11936523345503518
0.11794575427898556
-0.03346078393283305
0.02459983768262099
-0.0012708808635971105
0.0053780111338746
-0.00992025825962554
-0.00898951850210377
-0.011726191082208017
-0.022019118529524987
0.028916090975977377
0.07897051393459989
0.034343547689032264
-0.042919467791857874
-0.103617787441595
0.039997315819335466
0.014853714204684149
0.008326981628274414
-0.005338685715461571
0.01137580567001214
0.01119456477947373
0.02543864741711632
-0.06605955810772032
-0.0005961327296495379
0.010518509214510663
0.014096114905780872
0.020016019949153228
-0.05744055261996451
-0.06038119198271236
-0.012076357030508486
-0.08691139227007998
-0.11812452374084792
0.016327602124605232
0.029819434158015818
0.01762209455006373
0.0066630408084035085
-0.015633115960834512
0.013169898299307255
-0.05074436061489703
-0.027419040486925728
0.017959176901720886
0.0036385201359614384
0.0013867161144331807
-0.010090710607159407
0.06370939146311487
-0.025261956533975432
0.0050556515883339245
0.05616680874645358
0.0034408943587360213
-0.00479055812530746
0.020930319785268884
-0.03004234019386129
-0.018759936320195535
0.012073762058321984
-0.032614184851894816
0.02096657212004619
0.05803614395183088
-0.02793557212914818
0.05589443798384263
-0.023595213053248184
-0.012970051262455835
-0.01809628578321252
-0.004409166722098053
0.05598489626714144
-0.008315061188854375
-0.021942783295345707
0.007443055900892404
-0.013234224781374062
0.03410463073676835
0.012306095835302766
0.012766285539693766
0.01648731125371913
-0.021944096972919703
-0.019969924562212426
-0.004791165281080319
-0.003221802272244084
-0.006343434990002165
-0.007697730722642421
0.02561332920304246
0.008538056081084086
-0.031917737727186216
0.000999586332973832
0.010866102409395263
-0.011083420242443806
0.06575741552432084
0.027809908405690142
-0.0024816167527418765
0.010085805631313005
0.019269776293322625
0.0030379840692456236
0.009773651996750267
0.0009429725257563176
0.012136573447456734
-0.07631707566462975
-0.11899091751400132
0.038097224593032206
-0.003923770427457786
0.07141329785913868
0.02086995636125287
-0.021153573642275117
0.008373923588862176
0.013480998162446745
0.002700750693236928
0.017891792270463783
-0.018781165719778968
0.004407950283182085
-0.004530327711027738
0.01144190380372054
-0.0033187184154626036
0.0009253465107842544
-0.12249272698586956
-0.08398885010598797
0.03238363872187833
-0.022110060705308212
0.09898755518494148
0.055381711793791165
-0.03434652650394283
0.0338824311740736
-0.03142893955634115
-0.0032035289132441875
-0.030824335853777685
-0.057759945560294075
-0.05119396169334698
0.010421535835625583
0.023144725626637212
0.03723780330482632
0.06625518228090072
0.052698864746294885
0.015045873580770067
-0.02931543299646918
0.0723220221454383
-0.13146731819122728
-0.0831434297130966
0.03200224391967527
0.016968021387544885
0.030774309496372047
0.0007480618387255094
0.012162994713247909
-0.04811862439200482
-0.02034661486084641
-0.02173973433796709
0.05079929412497503
0.03114132896423276
-0.012849553100548985
0.03821673893085453
-0.008589975749156079
-0.012865437693531396
-0.010841766913033513
0.050406763880226
0.13066538000886607
0.03298349820950525
0.003865819427173617
-0.01913555617256688
-0.03751397623362442
-0.035576723371945375
0.01829413076362706
0.014276709201006469
0.0037133831930503437
-0.058410121198333914
-0.017565639294322113
-0.00276899095123696
-0.006092226647554174
0.02235872786366961
0.015118307083986966
-0.023287296538514975
-0.010004464555654175
-0.0015661342302030192
-0.1376645729171341
-0.023643751756506456
0.021989707193379036
-0.02979894512677664
0.028280698555581366
0.03381433786197179
-0.010755262360136337
-0.019403690021036823
0.022614010670914824
-0.018060730572137647
-0.005390609103927119
0.0019487253254905845
-0.01280105947183055
-0.022018255072204722
0.0391628058448059
0.009416453822419684
-0.054990838953749364
0.036527752313462766
0.006236254031936458
0.010174436351952152
0.03740787098872464
-0.023589031879387462
-0.010225358557228406
0.031004033768493432
-0.0035558633565359425
0.01777108056294304
-0.03191665099332448
-0.0010173573741107597
0.023821250493518326
0.030994996335259248
-0.038260736809949694
0.015258629019786429
3.4980419627783396e-06
0.007019864131628197
-0.001066508238868899
-0.02257722463760729
-0.026538809927114215
-0.028722556864571033
-0.031942923851535854
0.03661679576620216
-0.00974989800942145
0.0059412823328866705
-0.043880909399012985
0.09472807824158902
0.11341687027089192
-0.016755171553558098
0.003085108254797087
0.12416893844570538
0.02962046045904966
-0.029326830526433135
0.01974338901913025
-0.026589432813529424
-0.028961521518266368
-0.010176555178128224
-0.00983724836485876
-0.005150060312120521
-0.023818775110842055
-0.12214941045384263
-0.09403412633369089
0.012590330529432222
0.013967602772488954
-0.0014511151909191347
0.0020566826986403116
0.043949710844409615
0.033014378642976266
-0.0021354632232489052
0.04946419506356277
0.01741764981515186
-0.019805416939627923
0.04256609096992284
0.00013633256419698662
-0.009437699050876774
-0.07278963146654838
-0.049767416935437646
-0.0004754018874444132
-0.02912236631782349
0.04189848106727616
0.03377826063883394
0.004619344904247013
0.005175345709357071
-0.013861734588099604
0.001213515651687486
-0.002915234317435257
0.06413665034980688
0.017855246073193887
-0.009930055974721274
-0.019074460555200116
-0.006468131760825794
-0.0008289080471088561
0.07531822937678186
0.08311147107335781
-0.006381697976644373
0.008671605995372898
-0.007665586154193318
-0.00801095664444408
0.007972384081207455
-0.01127742025377846
-0.07653023939432105
-0.05366532858906562
0.06426700162445492
-0.04031833425248607
-0.04889289879628912
-0.02637874399312964
0.012665734027813824
0.01943856731446849
-0.02865813259365774
0.01890487520776726
-0.02350222200947384
-0.01766865594821743
0.013622445612029169
-0.04220023203176019
0.016168170320502377
0.03292909971315618
0.041063265661624784
0.0047537682197929575
0.003936642746963219
-0.011721184935742498
-0.0755511393818826
0.020021530212590094
0.014448718372889868
-0.0012521736261165864
-0.014357096922574338
-0.021495772305998074
0.002176405236551598
-0.033440454431872865
-0.013168822893224756
-0.0666870165132934
0.015750196790187618
0.013549733677736136
0.059941304254953136
-0.007504285252332796
-0.0028067236055028272
0.07164774415726413
-0.018074442315969753
-0.060832793369307844
0.009981266505399253
0.006222838524534218
0.003830863938226802
-0.00047176687846249907
0.02082647433697828
-0.041521268139609824
-0.016293201651636332
-0.024979235546879818
-0.014564074548222464
0.016427216442382344
-0.03299290222941486
0.04413147630953682
0.18207812208071505
0.059473533996893174
-0.01083000208099748
-0.012688662685426589
-0.023594543245824644
0.03394491787327692
0.06274572338938723
-0.013073500963021874
-0.00772984747424301
0.039923108978532525
-0.014704174958260041
0.02235500172140297
-0.020123076935486147
-0.1127099275971328
0.0008993057544113319
0.045035727551695735
0.008688551263041628
-0.05645227664754195
0.009934372567054693
0.0017720641358325395
-0.02836722819303255
-0.020602198822667662
0.0033846005731790834
0.04612026567586866
0.012196838983633327
-0.049219328976181385
0.011244218747768774
-0.05027344773777705
-0.026671567980220887
-0.1131928922545734
-0.0038423055094828464
0.01984619697894794
-0.03229862186103967
-0.02319861302305069
0.0024655901479208537
0.0621133945548904
0.0300887598831222
0.003375416007878765
-0.01905156053596812
0.047155044012559794
0.012430644738047681
-0.04494398691840819
0.01054819141597513
0.01149747974686539
-0.0028084231822424486
-0.04072885395730049
-0.032865670753943095
0.04487434276342079
-0.014147115730675886
-0.018476116077078053
0.0527188290725074
0.06814390144687868
-0.008131255545482096
0.024257856924304676
-0.028291191060295585
0.06764035184272939
-0.007329506325993399
0.04006301303364764
0.11662673061475343
-0.025734113834720036
0.01153518093546877
-0.012743483456969457
7.367554140693675e-05
-0.03255667246497367
-0.03913068557483394
-0.02407696825205956
-0.05541407689897762
-0.0062586995954747975
0.07470781583293645
0.08041301880524776
0.009612385823258029
0.05386815743928407
0.009212577402677408
0.09229846572196078
-0.11112965841854205
-0.16736366460852767
-0.02385906299591235
-0.052688564037646164
-0.01393313746471768
-0.03290302921482761
0.0025862080072142626
0.013413114226435067
-0.008675440603748471
0.0065500663430298756
0.04629277680522443
0.029037455523859383
-0.07900938270385521
0.02492489598445269
0.05637984179679221
-0.02301786843169902
0.016127687887746316
-0.011350546241801667
0.04274973418337824
-0.06724616774865254
-0.16424190706240865
-0.009584422825634278
0.015891107277909346
-0.009703374929643554
0.006269075847606015
0.00761463593073241
0.014543613620177996
-0.024435945045411783
0.038139729087063895
0.12177657299950839
-0.03755071626253701
-0.01272999157136713
0.05981438997128794
0.03997337766180589
-0.0014979485300673037
0.0177147596609671
0.016913163262830114
-0.006436530185162963
0.05457759865723537
0.003574542606870447
-0.06704649602850228
-0.003071115275821508
0.01343504819818027
0.025267400495769036
-0.015999639864864662
0.019523084222636405
-0.03412046920551138
-0.03528080054935545
-0.02637394100475554
-0.0009586364222724594
0.037365490762217866
-0.0007239726192369928
-0.04778169960799373
-0.04416589635898082
-0.017710437179482477
-0.021836862882503305
0.06828204096235582
0.05125084400942882
0.03165317727501629
0.021268620298640475
-0.039821736966569724
-0.0018628975983758641
-0.044428421774759606
0.012147628921872235
0.02354773290733533
0.016283097813927873
0.009156067386047267
-0.061389363415387185
-0.0033936257978198414
0.004916489436909114
-0.01345472524927348
0.04074845576050431
0.03822236825234402
0.02336884665104661
0.007116230234079576
-0.007739940809831575
-0.01630898802228975
0.002748452485920776
0.02226004823755057
-0.01112577930037956
0.0009562345317427953
0.036139759772669984
0.019355324339898877
0.037033054923900466
0.0006353592059641838
-0.046363772132562577
-0.030446592128590154
-0.11488389830383158
-0.05915319939757391
0.03532765981584241
-0.03525881094636974
0.019137636823778014
-0.009960537883798307
0.00430972705583923
0.02683514609465526
0.005211547786650805
-0.11404226993494251
-0.014035436002006626
0.04780671466819548
0.005573410027275722
-0.009737943499103459
-0.02195536942304698
0.04205280840788038
0.07035048495583644
-0.0008419788349612817
0.021350842913984276
0.0034168178959844467
0.00825639759062725
-0.011503170661423002
0.005416464381097171
-0.013343381533509922
0.01290966656907657
-0.006086224107148464
-0.017519645228150454
0.010040354605935527
0.011727258622392312
0.038354480554157
0.016229877434267112
0.01681831460529044
0.032337844196092265
0.013156010250846433
0.025000191091903334
-0.001051814045655627
0.008533509135253517
-0.0037475925091906247
-0.0047579448015231535
-0.04653645940590163
-0.054282795054597564
-0.028596790163916978
0.03585208454430135
0.04282001943411729
0.0021758169028256434
0.029006554343442657
-0.007658588203821877
-0.010317160491976918
-0.00089661317580219
0.11647182702975614
-0.007171904068232135
-0.06506207373935048
0.11014459445639611
