0
0.18734850155068852
0.06277244709343084
-0.04656906813205767
-0.022280928659912772
-0.030979027199045404
-0.04929654403987795
-0.016651510641195598
0.050756317579474554
0.034150331084567206
-0.028830631086033558
-0.04924591209350691
0.014052765723816068
0.01157917871361677
0.015848897245984414
-0.0494122354846892
-0.03983415868846995
-0.027195291838085094
-0.029116810087297423
0.01983395938364182
-0.016387433947207583
-0.009691173327543446
-0.009617657939228008
-0.02444933237023856
0.06504719646393148
0.07449938960505521
-0.013659349857892897
-0.04285002072892543
0.08272424472746835
0.10734908454447455
-0.055827183104318265
0.0028675694327990526
-0.008509533513296724
0.011757990700600612
-0.04037470324593126
-0.013503222278004531
-0.0037140633523844585
0.0019075749718228735
-0.032403219969294204
-0.04657182707740085
-0.009566616133713412
-0.03485541937498656
-0.016089869967059633
-0.013074217490470622
-0.026208051531808788
0.026889769511157156
0.00016559097781276892
0.0960541166980781
0.06172110693242068
-0.03249838397880548
0.004059577611285868
0.0122622921066073
0.0022726876678158645
-0.035326991255289965
-0.04998162450643922
-0.01728424653367303
-0.008366790282963266
-0.01521522714003586
-0.03150851636856526
0.06731385172820106
0.009991437542237348
0.03232915259560615
0.03941145771111507
-0.030031235871295005
-0.026498248974068196
0.06166281805360185
0.04501484615224241
-0.04218895076681211
0.008728369922084015
0.006305534092611718
-0.026135404219884112
0.016365785286304776
-0.021909434424585098
-0.05173790315226026
0.03547819603034172
-0.01557510190631775
-0.04201107824985343
-0.0017568943026082477
-0.01720527997272092
0.00827161356211297
0.03296698580786108
0.002481106360564686
-0.018881661159898835
-0.05112968939164278
-0.003241637813026186
0.022185580716606958
0.014176798143979317
0.03136318192511704
0.011168134229208785
0.028256229800941966
-0.005048306274837767
0.002859924515651
-0.03234380781231386
0.030371000050318515
0.010712169128995763
-0.020210986978699653
-0.02054589296067242
-0.02156293106625681
-0.021143871952651067
-0.013725105669687345
-0.02855076874413228
0.022551866220503265
0.013257031040078042
-0.028591145748066767
0.022128844430960373
0.030714937759842947
0.0059871022477943825
-0.00578696533316921
-0.16392438183373742
-0.022531269766934543
0.03306002784627767
0.08920265389572876
-0.02775981638162115
0.05283294062062165
0.04770078115260958
0.04066499532309596
0.07158832131234881
-0.008537648588533718
-0.009913482524356462
0.023612467767737108
0.005976450322420632
-0.01977603283111567
0.007862860648270312
0.04837415844201307
-0.002830936300829131
-0.04031311641024086
-0.027794637302838307
-0.01015154922549115
0.014169011292002242
-0.01236630738439818
-0.004818427223705976
-0.04333330699854443
-0.026720245487758705
-0.020940515634587206
-0.0371027273092757
0.0013966814524300102
-0.017406393439544185
-0.0057447844847326075
-0.029387765887756618
0.023493328829815124
-0.04248356695272532
-0.057661058188434214
0.014746000441042432
-0.012852449871785165
0.0503023646512759
0.021518584587515852
-0.005466588567425537
0.019184325341211957
0.0018594173405965147
-0.013450543818439667
-0.0008238935911702315
0.08480570174391895
0.13747038103189932
0.00012779433528175007
0.0058267399214484246
0.0660825616476164
-0.0055542921001384
0.041916280327140384
-0.00032505680618349675
0.02076102311994783
-0.08370711128333519
-0.044206351686651366
0.05148001199793838
-0.051774721706432464
-0.009067484408420512
-0.011599915222794743
-0.02280204454194538
-0.004024642433641135
-0.038729698640361285
0.0047484315047501835
-0.019942239032114294
0.014618585396241194
0.033178468391162036
-0.0457337964507386
-0.04707201096314801
-0.008919699636224245
-0.023851412296502932
-0.014255561400858808
0.023888205354647016
0.008670945062712586
-0.034380014806370734
0.012663550123886301
0.007746688761016765
-0.0011207721530000338
0.007221060701743283
0.043722496455110824
0.016088131409513786
0.05460917943202042
0.10306158136517983
-0.005412571724652819
-0.004515683638409845
0.047453638964000996
-0.02908179441114384
-0.2374021918968613
0.029935238916226226
0.02844052735656753
0.03056934680044837
0.013427695017713029
-0.01434816068378288
-0.046636915034075695
-0.009420118274906781
0.015791170542307633
0.00013630712091409306
-0.01041002226405896
-0.02458620831589318
-0.017845864812954627
-0.006415686624650299
-0.008601823201181915
-0.013618490976905463
0.03258872119977662
-0.010764230656789888
-0.029217260033476244
0.05852186448419907
-0.017450601423854777
-0.02371308268268448
-0.03132155925840168
0.07051310510203
0.08408478752446893
0.03161497415062328
0.044903912850401045
-0.014735572270020154
-0.01906465916734643
-0.01477680710298102
-0.012309603181143143
-0.015090866754479824
0.011043147803701543
-0.011168571432128628
0.0266178417246617
0.011163169000264293
0.010574275004465708
0.004657932585527715
0.005842996721895979
0.0035355833072611667
-0.071475009685638
-0.013348292385912565
0.022394963626529433
-0.01930374059188459
0.013178501022743982
0.013636059630871276
0.002487542211568161
-0.027875825325292824
-0.04823093668921625
-0.016583643940007442
0.025077999169691334
0.012721841150941366
0.0024549560417259386
-0.002725204602468209
-0.019509860978253916
-0.017043968930607424
0.020543872173777886
0.009512476016301341
0.056256324244081064
-0.008937177505707175
-0.00031849986535521053
-0.04121020668620227
0.0017004538560812035
0.006998844423808274
-0.002614119325959349
-0.0017371501569255542
-0.030400869960796013
-0.06992347780017741
0.04819453240341937
-0.002219011479808477
0.06501029322442932
0.002803736685846108
-0.0073940462414322766
-0.022434593827442374
0.019854588701041183
-0.059655993709766084
0.15214176265811102
0.1081979059538075
-0.06793717161602061
0.0925377642722283
-0.007516582075844748
-0.0963658501064451
-0.13638066425057027
0.04829846112709726
-3.518661600436078e-05
-0.00815069597977318
-0.03087944618562426
-0.06723626602171859
-0.022399638540352446
0.03717362043359318
0.047060474259418644
-0.0012581739426826264
-0.009415588792489068
0.005726671819932741
-0.017533989038472943
-0.0010536528166171738
-0.002873682261547733
0.015390583288742208
-0.0032692000310435157
0.012970940631497408
0.0056732152855895985
-0.03775405705511784
-0.034386880698232536
0.005740743574813931
0.05244862511101598
-0.01959509701840275
-0.006035110799216326
-0.04612718448012714
0.1365287927629534
0.07241658973705616
-0.04955640081419736
0.05609422482157594
-0.025891263470372572
-0.02646477511583145
-0.03191229401376601
0.0768509987711681
-0.005225231015996245
-0.0018355967484749275
-0.01924708398893611
-0.01641626349031048
-0.0041585134830873375
-0.028559124808711013
-0.02082741784691665
0.032252331138146274
0.015910191150005627
0.028141353970539667
0.0275872747998767
0.00636111385896513
-0.010400343483747012
-0.012183146815104056
-0.03995659987141226
-0.013996887234200438
-0.0438527187797398
0.017794297627488184
0.0064476295237148274
-0.02219131759070902
-0.05988544146027813
-0.021639145672964707
-0.0024341027540230498
0.024092432405313155
0.0056358672832642395
0.0359472162725563
0.06027263529707445
0.012919828650076019
-0.01710106554323361
-0.008325876426516896
-0.01678402566025995
0.02502798925546602
0.031231313705639124
-0.032796469242185246
0.01690558002038184
-0.01762157558930772
-0.025865094635971836
-0.025127976869779415
-0.015736171096294636
-0.028092368926609348
-0.01869416525560194
-0.020112437890304598
-0.0262268034714319
-0.016906581838241386
-0.025505593199444395
-0.018805924491956748
-0.014261626604454016
-0.009281321745673064
-0.0008192557276491897
-0.017375965319290258
-0.01748270839503975
0.05483298434930014
0.02428269578417648
0.015414171533577116
0.00016786639758015675
0.025956837689406865
0.06081821107372884
-0.03412301612265616
-0.04870605388598005
0.0008212645843508683
0.01342930021911546
-0.019589554245608973
0.17568744389316937
-0.01669740841309092
-0.04964026679798573
0.039751579440142626
0.0059319084715761744
-0.009570047784335841
-0.017783665520001702
-0.019990230056054964
0.20534826349975838
0.10275573961318181
-0.017010716746292343
0.009380777562713858
-0.0056449164201614445
0.024491318590413622
0.02610157860648235
0.03315755577830289
0.022949472979510735
-0.04100719718173685
-0.1232264090042786
0.003530501496315357
0.0016949463614136702
-0.01526626158583959
-0.027939583111822746
0.02693933891770926
-0.03378306888266194
-0.018299335924837394
-0.013280254444265227
-0.003763459387476086
-0.017557350998011062
0.0014203028071813329
-0.003802087633413061
0.000465890448512866
0.0224667805752109
-0.1036296609375112
-0.053463199494183204
0.009395299711691889
0.028458203087439918
0.041115567029354386
-0.0019002086937258908
-0.014530199245843844
-0.017487424643838064
-0.012489679297598831
-0.06616601233328567
0.003940294607143011
0.0017651705156039492
0.01480402051604179
-0.018600769383801678
-0.018779026861065185
0.025939077090740593
-0.019265127479344026
0.027042811216876735
0.015154168059771166
-0.06793452957024355
0.03099189225114485
0.007095363046236645
-0.018630824794405608
0.010062157914708308
0.016294066705479376
-0.005772100460742454
-0.009111047160168079
0.00714463766588413
-0.005586064396321785
0.02354675337183214
0.012968907837829615
-0.006369301719738544
-0.027557583565316356
-0.0013365359044337415
-0.03458769456274381
0.020137366401157118
0.05086073438673009
0.012421277330807454
0.008236181344542966
-0.024820381821269694
-0.06900873303583942
0.02971951692969891
0.063861546780075
-0.0031345210384483278
-0.005529504269376312
-0.01896581950141162
-0.0013192815450474788
-0.02436242108872388
-0.013069851765262803
-0.013699648904956507
0.011602757074100115
-0.01708251331101525
0.004938158926111148
0.06518966467887595
-0.022349485851377103
-0.004857102312756809
-0.009474660171017777
0.010183380811297197
0.001953479949920334
0.02213369968968228
-0.0474811333129406
0.08406503045174475
0.1485785074508059
-0.018253316064176628
0.04340237230772208
-0.0443933431554143
0.019858881717492498
0.02780880618678673
-0.006206806800129847
0.01593247759184019
0.014087566416435061
-0.045983355890569705
-0.0002801826712225922
-0.0035967305220801315
0.0016398665653457663
-0.014737295054677108
-0.004301404140142646
-0.03261301731687251
-0.01835478963007689
0.011289121144752829
-0.0025480266303147016
-0.014706130242218885
-0.024027124206747828
0.020600064135971097
-0.059830409012829336
-0.06484493308122438
0.009941611734160518
-0.005308710185069808
-0.02020925235008273
-0.05207372480837246
-0.0013435752476980418
0.004318787816223904
0.030327804860274244
-0.049502645208247195
-0.021147007698952728
0.0421537252976669
0.024169040593999543
-0.03412585267561674
0.034731725913557575
0.15421566539304182
-0.0094427451173568
-0.019937052841568548
-0.02173324301462946
-0.039428516057962465
-0.017698620270246896
0.036078153298029006
0.006021791191107748
-0.020685417777055504
0.0016484146008832149
-0.020797136625136804
-0.01941062310363833
-0.030529294486019383
0.01305623273718203
0.021598385575953734
0.008281232416019689
0.0025399892997365263
-0.02060117887452018
0.03342408681245135
-0.017896734607273496
-0.0394520259711065
-0.009162098213281514
-0.012291339815844158
0.002884802248388415
-0.054759305998375495
-0.01790753432888815
0.013763263927611069
0.01692003275246107
0.06333465658612468
0.006492979817927889
0.11233892481384554
0.17702792086025312
-0.027135306481230186
0.02282275881937607
-0.028206264022878878
0.033403123189230395
0.012686264323688481
-0.013397473932228869
0.019132288470560515
0.007223597357251593
-0.07193321108711273
-0.028473139363533663
-0.027454907078251923
-0.016504724804774527
-0.011761818520436076
-0.02594275891052822
-0.025238833551878996
-0.005705036450853228
-0.03246361044345116
0.02810473719675462
-0.004542951778694831
-0.008522862538850734
0.019317658613276896
-0.00022826210195055931
0.04110820686663401
-0.010906008108955114
-0.023579401685332117
-0.026994138885236652
-0.007285015807656081
-0.03239097027890724
0.11349644033463042
0.04343321233614525
-0.040443277326009996
0.04030567458970306
0.03276502168721032
0.0007177248293629214
0.002481087044943776
-0.017436727069687963
0.00567949274765466
-0.054265193612737336
-0.07685739739989171
-0.016690654577261516
0.04236593992248018
0.010417513103678422
-0.010231396029473304
-0.044673534794183935
-0.17067516340646588
-0.05190431594876501
-0.04216472835218668
-0.018791443579283123
0.007026454860596919
0.109330920329319
0.0193248200836066
0.04329926966617759
-0.012258343219854603
-0.043936108011682885
0.017876764816584022
0.025858185187509947
-0.001472335073571974
0.023732625730219475
0.014588153950649196
0.03318683549652356
0.02124936823895254
-0.0027245897385982437
0.019888236710953792
0.010475331639137254
-0.00891029903881888
0.0016778770931488774
0.025446060818838098
0.06646420908909678
-0.01002871188520008
0.048461117824759474
0.1082476926212079
-0.0329452111512799
-0.03350627947931309
0.006791659439748592
-0.01734880356091844
-0.018155012328291722
0.047269354292536446
0.026879166545032595
-0.14668320122460118
-0.016465118761904197
0.07271867985453313
-0.019978522528143798
-0.0015580016326132973
-0.0060928753741468535
0.0481200173483722
0.04545095208033961
-0.019957558232296717
-0.14895216418215673
-0.0715952678258409
0.04183775458672912
0.008652047113051942
0.0009621661247041126
0.0025642658033245545
0.012406663808228614
-0.0300785079987922
-0.020801932977775616
-0.08943079326643825
-0.0004206230107936672
0.014287567744055272
0.006929006513406868
0.021883307594470925
-0.011792480941173512
0.06712941393648564
-0.008207622500515679
-0.009730221509138375
-0.016256731233942997
0.005543192015821028
-0.01718432401590438
-0.008992255588997852
-0.02685992512981922
0.0037609480185038886
-0.002198969617369349
0.011991696333765716
0.02492985355580932
0.08513403918508401
-0.021853262380550357
-0.019371511333951954
0.0215837167359667
0.028618269265046976
0.028722123033864365
-0.025479920055778215
-0.05762632866389816
0.005642310803521875
0.014352755187648374
-0.0052461677254731645
-0.013375300861776537
0.011787868346550791
0.012982693767644547
0.0441617801226759
-0.01086787072476904
0.018587045453300564
0.018059977124346097
0.0019462843782196888
-0.018386725851065416
-0.019826054007493557
-0.0012110869150594407
0.0031534481011361187
0.030807788349306222
-0.020654226663018083
-0.015312816738534763
0.0005939645604737681
0.02357247243499269
0.005455583529835403
-0.011455043564155724
-0.0015791436700944483
-0.0426469824526432
-0.005752735175928688
-0.007171296942262029
0.011191310064316208
0.029376758124324408
0.0008840344417731336
-0.010031076896536695
-0.016224722261038705
-0.03092094710566416
0.04340246891472261
0.03666557721044547
0.013057123956294794
-0.07053181870878478
-0.06122283550742191
0.023623571648353006
-0.03722737401842216
0.01657306514133699
-0.006426223825174096
0.02109425866597504
0.0035906065850454644
-0.10213536403665327
-0.033849227651888684
0.020512727923416865
0.05362807007930385
0.11022502130905676
0.18986044638296432
0.01270773834503309
-0.07029717157483158
0.030694905601902026
0.003617457971396422
-0.04602580421715832
-0.014721189482927804
0.010809689090059995
-0.043795177624086065
-0.029018409123366323
-0.020821514247431106
-0.003285001208992526
-0.01516539049961264
0.01779574083289929
-0.0032916432657404916
0.11930783145101066
0.11432916127955509
-0.08115564073086054
-0.037295079867721875
-0.02057808840897036
-0.04965480944821769
-0.006770850709706646
-0.05654103061970611
-0.05217132304652818
0.031141947189679157
0.06225156812873863
-0.000985102115507149
-0.00616924703951093
-0.01931499417389766
-0.03638126800867835
0.031883108652431574
0.014561343199348561
0.022054766900310732
-0.00985926352139164
-0.06147714431232347
-0.03783287217501194
-0.018329283015901608
-0.05429575325248907
-0.0006289105469885675
-0.026916365605055306
0.03152520819595442
0.08922529221049566
-0.01452272021430431
-0.039754099683507245
-0.011131644328124463
-0.02066487593837074
0.004267940056960543
-0.005682978674403469
0.01684334606974413
0.01702029975049936
-0.0072192831938268955
0.011324347653340408
0.0363136118754027
0.0397056574494648
-0.001360153432106416
0.07962886585327036
0.040064482646599626
-0.010865350223877962
0.0029186226340832864
0.011485421938128683
-0.004532318601471558
-0.02918067433971153
0.005436573694061458
0.005047604898157904
0.037879671934067584
-0.010002025920705976
0.007102105911244297
-0.042984698847409394
0.019479962396362818
0.004949029299224744
0.029807767377370308
-0.004361077013958936
-0.0046563775938755336
-0.06255011838678709
-0.18315577431352356
-0.07678771273698277
-0.001611788303229809
-0.0021962200913197717
0.011171547388511966
0.17643939005705173
0.01758883796139425
-0.012675682958606823
0.051341343974183745
0.013153310845419588
-0.03317793957628634
0.029627708471634262
0.009303027500631807
0.033589200610956535
-0.026791103377695434
-0.02824773886967554
0.0002917871172651998
-0.010798184845253779
-0.041396379379973716
-0.019823777516697796
0.01715347436813385
-0.006733943995771802
0.018642144037969845
0.002257317959342477
-0.008822666998177884
0.00424702161608219
0.021842926086534632
0.01899125369599804
-0.014347390206027856
0.013128080129219283
0.1073429657381784
-0.10689128781108596
-0.14292130168265588
0.04997896068404521
0.08139088499388403
0.009141588572890491
0.013625909762098265
0.00856698619557417
0.053007504614235604
0.022764322358407363
-0.01249435171842044
0.004139144917197792
-0.0001988686963227298
-0.020737295602270292
0.010528922297965978
0.041431598833150014
0.007455744655252337
-0.1841726348559887
-0.007856030580850276
0.04904166126509774
0.053064642583153146
0.009945858276979547
0.027049880892728608
0.008318945992309918
-0.013355491602820192
-0.06693747090267935
-0.07646857741561873
0.024928940373440654
0.0012270100520795795
0.06046912893951811
-0.04315294461945303
0.01436567684306694
-0.04419897858647336
-0.012662611829762032
-0.02988969006761095
0.04151912514443771
0.019079276062199356
-0.005368492737528797
-0.008934508243093815
0.02690139288177646
-0.026728243830748906
-0.03810865080463541
0.017195749471527688
0.10876942199878505
0.02440691713248942
0.012699408311731195
-0.0786502658650388
-0.06719560943337897
-0.0020044643120182754
-0.0337645956306217
-0.07298453148029913
-0.0199216323824195
0.0025278746490333104
0.023593766341067333
-0.020017541795019047
0.031729105566214076
0.013185921197862327
-0.00030387547924579415
-0.0014118736351770229
0.06505225671349955
0.0268795712820647
0.006321367510508811
-0.01091990457324855
0.009071352120671203
0.0654519862486472
0.01855708394728113
-0.0006723682805890433
0.0034920464195970875
0.03556328863810953
0.036518770897852694
-0.06851052157009044
-0.03673676983150935
0.027849727089368975
-0.030432079951267628
0.03602462741239282
0.041246182813795294
0.013233891304888064
-0.06121336523982222
-0.018493755155036012
0.08565096605996317
0.0075775819036530525
0.0026863284739294686
-0.0575965407928183
0.09433529047343978
0.027093098574279335
-0.11238313850093241
0.0019966392028793515
-0.002835840395485666
0.04411223477111798
-0.02367582477291895
-0.0991766954863256
-0.01009479341248644
-0.003338860377330131
-0.024052063315367977
-0.01489322207210489
-0.004382929576861906
0.07088504194741582
-0.0019235973462314487
0.02193198639005123
0.005034086369530746
-0.12112068518712606
-0.038421058716914216
0.021882525665755152
0.07849490298182953
0.007572810755205519
-0.028740230930451305
-0.01321320169914807
0.013931160035251428
0.0021839441738488287
-0.002050340256460187
0.024591479381628107
-0.0356427112028477
-0.032329067414177196
-0.006675412896637949
0.039026236402257095
0.04183054234735537
0.030524568324972925
0.02187967504023438
0.012008205230068823
-0.01240489156288432
-0.01911961939931243
-0.00812760150968026
0.019246592330597324
-0.027937002178978834
0.010390074620843345
-0.022914520431631016
-0.05345116370004722
0.004534820672541605
-0.003775117052664409
-0.001693142683531997
-0.01368118016288727
0.011847484369980838
0.021288433102973375
0.012605764802807312
0.027755077632123284
-0.004272392304740827
-0.013911423823677922
0.02530319271985552
-0.010328750402053067
0.027481823385476774
0.034164517798562055
-0.008083125520513759
-0.03753841768585184
-0.004453307714511456
-0.036015891688381214
0.04297962734777023
0.006763760286359647
-0.025182624506241754
-0.012939219643249053
0.0110654549098248
0.009753923147330009
-0.026419798116434356
-0.0026158753125754106
-0.00511339676077422
-0.0025565941743592156
-0.006512057094499723
-0.0011789593941596475
-0.052437624613371626
0.03368372329089853
0.1165565606860991
0.011328826478907192
0.024901028161358727
-0.010907074986712874
0.023598029620865456
0.05912446653453555
0.04126748274450549
0.01663351958412243
-0.06517996004184226
-0.018468909526394333
0.037527673932803776
-0.0002614722662172977
-0.027205510794736446
-0.03425790052535133
-0.013823678059929408
-0.04794236465521642
-0.025559009096348593
-0.047658310487151676
-0.020640790590505904
0.005717587219803566
0.05518159500967935
-0.015814805094500683
-0.016195060442049748
-0.01813936709323335
0.002756223592071855
0.010856643734292513
-0.006266837004812791
0.014214558481007371
-0.0029231198115014217
-0.02122622903472326
-0.026180230856593135
-0.007776939510814063
-0.02689683933878033
-0.0006833424716085429
0.010807093818069947
-0.008313236307552156
0.010080089246553023
0.017603184873701945
0.0042934968275376946
0.014437229771862882
0.009700581609706294
0.009594057260617876
-0.047828231738751184
-0.06709231341329668
0.10744192521667895
0.07514366664913782
-0.013576426164192645
0.0021764687339802294
0.012157122813117248
-0.0045936824378879785
0.00714541369843548
-0.006561244543833894
0.00695843541902044
0.005880276734954554
0.0015213538846512544
0.06764759641308958
-0.04779108811937379
-0.09073182742695668
0.01690931871872647
-0.0052929992823858435
-0.008986980910995897
-0.005416665496192176
0.022791045451775162
0.06007903036874826
0.034689370214163504
0.014264914523817129
-0.06342668659123803
0.1948894968318784
0.023273989559889897
-0.0893244891957979
0.05787693547620186
-0.010872040570777133
0.006917699556037592
-0.0106563641258256
-0.04231013304796239
-0.10808620757816782
-0.09139416878952185
0.015578829816303652
-0.010640161406174792
-0.03701568172446521
-0.04519131925091576
-0.005081334574629903
-0.0292234903752877
-0.03826386453396145
0.012760887242285785
0.16947542890830056
0.03453390202466823
-0.0510422127400046
-0.017298879949337927
-0.03366752680123591
-0.017883488590057808
-0.014302417671916097
0.01628411486922109
0.027769453646426297
0.035104637688164256
-0.0036560665157635112
-0.01331846054329098
0.029652142852325574
0.027668923356614205
-0.03335630600430361
-0.03066809913728779
0.009122369537365577
-0.03499942053880832
-0.034358445030812215
-0.02721095149595838
0.027231623263283523
0.07281465274967822
-0.02807259277820926
0.0046814275607079785
0.050228183009227045
-0.02195973316477444
0.012738263038338095
0.0323815564345651
-0.030812401650775447
-0.02744144933014515
0.024763988819757714
0.002907291125577966
0.013706247202905747
-0.003511376319988762
-0.0020170044944767774
0.04374707430179816
0.07408128657182843
-0.019598756445541064
-0.129070136264885
-0.022073720258519065
0.019646111286024035
0.026745455705625882
0.04361949882209072
0.0027397821634322925
0.008288117498056953
0.019840016897671172
0.0016316127234126594
-0.031304686535750095
-0.04585181043033113
0.016362432665334527
0.014899781022838914
0.02174238633682845
-0.1043025808177347
-0.02988482511447392
-0.05356505720189472
-0.016251679069435497
-0.014770610019245813
0.007697314004349789
0.1306515041061207
0.04778574085749674
0.012021323917631931
0.035086744882665506
-0.010465835609878276
0.008596334547875896
-0.014452408573445022
0.012053481246014098
-0.016180742425517845
-0.006407847229731056
-0.012734813673958638
0.028800347212108928
-0.15715804053710838
0.005607507633178012
0.0874232304908612
-0.05291193749801144
0.11280493566251315
0.054026100321987645
0.06448480859592365
-0.028214578038672666
-0.06409398759670895
-0.035282082549490924
0.041364368228960564
0.005702436840654324
0.050310134503144116
0.02976252187108325
-0.054707566727516754
0.0048015697513242575
-0.0075275807676443846
-0.002027254253721992
-0.014148064595567732
-0.0030328750811021966
-0.025685460926665474
0.011619254583158984
0.01485726600432737
0.027515570563976403
0.016284954178512775
-0.024169374974388813
-0.0045388611418722994
-0.0024492808359020354
0.024619630658035647
-0.1616440579777857
-0.13527851360421103
-0.03248739230630328
-0.023272348137098057
0.17103495569081228
0.009518554450899115
-0.012835965595401384
-0.04056327438971288
0.0745225483342758
0.01378213021899415
-0.052258060105133106
-0.027376378260479402
0.009303069991469671
-0.001570878411243614
0.05536551226791209
-0.04352286866233789
-0.049532356082353395
-0.01756732058409726
0.013999537388944525
0.000900637332661653
0.003944725903517856
-0.01492238049780703
0.016996564274820693
0.028936198898583232
-0.044255870449913574
-0.024192208723040953
0.019582233874350024
-0.006501802514341434
0.06807555178732476
0.05681891332160356
-0.036637749430944014
0.02147309010462061
-0.005699169913305015
-0.035288799921936786
0.03553246012011961
0.1502085465865226
0.025273254460564654
0.012712973993741434
-0.015698600629487403
-0.006439194569416891
0.005625952634261551
-0.002631377104764289
-0.06895691157626609
-0.009124908319961456
-6.89061517764197e-05
-0.0064845470701340125
-0.005580431426414072
0.002738753300893888
0.032008257583938625
-0.0205497514153038
-0.004638253142882007
0.005054770013627513
-0.048715145073521426
0.1358981883841028
0.041426438896932385
-0.048024003368308296
0.011715133734107317
-0.03480205241664362
-0.0010385113855014708
0.018013641724992136
-0.03360570223228022
0.004514925028087726
0.025813573776055917
-0.02453409509323822
-0.12704931249961168
-0.06126492081403791
0.0027845639879750133
0.03304375085317331
-0.010505307274584652
0.002630630547857616
0.013794837310259116
-0.0045566185759827035
0.016932724920372975
0.029367030572928207
0.01801438188977217
-0.05872017504489432
0.026127499680847325
-0.003688366068714889
-0.020038870001598194
-0.009430085614413634
-0.010891789737887278
-0.04044668545704455
0.026539519256016823
0.035862884376264614
-0.018292729360727226
0.0004911067332841389
-0.008306172666758992
-0.00727412586358954
-0.014198526981571738
0.16692855566528828
0.09169562902652197
-0.04816478963289412
0.017144057105574758
-0.021784659574794085
-0.029015920991814607
-0.027478237139945464
-0.004717640578904014
-0.02536317448828766
0.03992716621199331
-0.0019632912376152793
-0.011712802943223348
0.0425134924768677
0.018967539021978248
-0.05863978350095106
-0.012290034159516357
-0.014287685553258909
0.02255554139985464
-0.030018806126384624
-0.03164260439437013
0.00205677249297288
-0.009852073124632347
-0.043719236853658014
-0.01878154885209768
-0.07413750031142446
-0.024223033755854835
-0.0027737030328103653
0.026177740707641933
-7.003855158750983e-05
0.028518517135160494
-0.0030138358291739525
-0.0004288033078346919
-0.02003603512561398
0.003654734912987347
0.02063218390441938
0.0651022433561855
0.009784111668371624
-0.02273260763275064
-0.019146376934529596
-0.002760288767331807
0.021494879890625686
-0.013778908619214783
-0.03594387546918432
0.0792385164037486
-0.008207487282472632
-0.0088861398156429
-0.021980453201118372
0.00351714333042197
-0.02484672807456266
0.04824926418999553
-0.009995331048628816
0.044102394674145784
-0.026724792399116515
0.0821396072179434
0.13632397731362728
0.016720433134030897
0.0012220605847064027
-0.005342628286871816
-0.010494981077910307
0.006288661559922409
0.019934874335613653
-0.025306704821910386
0.01558329783869581
0.01639412900265338
0.009643095855985578
-0.0493816874000066
-0.04454096264258107
-0.0081113289356804
-0.053654010850535
-0.037050839580052106
-0.034212995230497235
0.03787630248342617
0.014457756065547046
-0.011122314177054978
0.0025281237824819457
0.020746422303518308
-0.04278626336556444
-0.01560650873782996
-0.0461925542867485
-0.02678933088504864
-0.040564953395138575
0.026467216710711266
0.03948207108533127
0.007810417144101229
-0.03593158227526503
0.08134038599969909
0.11435642605572115
-0.02919288529459539
0.007610885609622289
-0.00048104492160236677
-0.0006893958581053722
-0.0234933759835746
-0.013743736671629475
0.010982610209922937
-0.008271961349834255
-0.013480267776718461
0.01030553495199702
-0.010796830064163805
-0.019630976148330672
0.01924911039412398
0.008058709825085303
-0.017306110438635586
-0.03132628640776317
0.08966733607768987
-0.0009420417868221883
-0.08917725146912012
-0.05342293183768984
-0.07646888708883622
0.04662231601185783
0.002275321847364762
0.011718271647114264
0.027881557772635204
0.007958815383834425
0.004479407621913149
-0.0032751410463609243
-0.024559632439196254
0.007597323288006114
-0.008372106124938362
0.006249566099256528
-0.012166463729957767
-0.01806440913791808
-0.013674595757115679
-0.046968770152195014
0.08121888315502328
0.033751571748522856
-0.020561714830057653
0.01049952553889997
-0.048227642513987326
0.013291250078991032
0.030229968893717603
-0.006792487740024892
-0.005590032614505444
-0.00851284573895452
0.03701052583505091
0.019039460767760075
0.011572973204095668
-0.011261492143403811
-0.004982026353042649
0.005717272599853299
-0.010503707549224143
0.01901058657824545
-0.01111070436108698
0.009695550493719484
-0.009455250596694584
-0.0048688092011525
-0.009583216262501916
0.005520427990894857
-0.013334190548571049
-0.006758650172108735
-0.03502350951291722
0.01689577819622053
0.014708607671881813
0.007496010110335513
0.0075444085915559135
-0.0002013856229535925
-0.011500836681654872
0.006841715087436506
-0.004392161135641904
0.007799064516437655
0.004245699835860773
0.047363482959286725
0.015518509313482273
0.003199681781109472
-0.017379507943142955
-0.03479756291092021
-0.05087020381618762
0.015335584780708312
0.020132415852805712
0.10378631343698509
0.024267357613673258
-0.017599435205523904
-0.0017849907343409966
0.010646497091951453
0.06310860199217211
-0.03427893117089384
-0.023568516727183502
-0.039796484990965886
-0.0656845662155836
-0.0012705596028503446
-0.043157142360074806
0.016914524481319814
0.030290678551877382
0.01847803649952469
0.03791033333604773
0.017942683622930184
-0.01989658737007535
0.012016881848871865
-0.018220960763126612
-0.05566406285504054
0.00913632157099827
0.04302706311507149
0.026394616249025733
0.028095997191434366
0.04058871241401816
-0.019362759497407955
-0.01471889377391199
-0.01474937447905423
-0.014445205152246194
0.044956514539290865
0.011570834512935503
-0.006321969838971256
-0.018047178350873723
0.041853614202243164
-0.04731988397634582
-0.034823599289071916
0.0423798689023162
-0.05443930785333466
-0.14070839833859053
0.03042828140562561
0.036076362614355005
-0.004699175462492269
0.007103806972421193
0.0003941162832784574
-0.001138221040282634
-0.09187786936008438
-0.09118846277515814
0.0735397690979837
0.06069104426556194
-0.0049957645321040195
0.016807584201328024
0.013837862831014722
-0.019368205240414896
0.015281883315071233
-0.06315297711584983
-0.004333939878669712
0.05127702027207464
0.03348012442825966
-0.02951436704833683
0.057965981976097564
0.08295353911610373
-0.02137021602673554
0.0002794303062475919
-0.013866133656483624
0.001508311852001009
-0.013394684835604862
0.06554396279456906
0.046383959881662835
0.02632841542848199
-0.0613620914974664
-0.015631628698798916
-0.005989163865674333
0.0192267525563128
0.008245431571981513
0.011186695054401936
0.01392057886468266
-0.08322042901683704
-0.06208685586957435
0.014365458150189013
-0.001073170425417618
0.006001192282978831
-0.032656312881815815
-0.006279558171177722
0.03374988506807353
0.007491768354955066
-0.048417902007770235
-0.024536808739388054
-0.007819814870789943
-0.03497693330930271
0.007718772299879404
-0.006403325432112038
