0
-0.02574356016162899
-0.014242774344982157
-0.046915035386383225
0.029334767850729516
0.04998890142555208
-6.838383435512195e-05
-0.004472226553097674
0.017589950256772208
-0.011238581123489464
0.0901221905656657
0.1587951179320874
-0.020946774526010733
0.03403406328143714
-0.04007585918787986
-0.02782323972260316
-0.02037049622688772
-0.019359269564133537
-0.0012933023712366884
-0.006696597019349272
-0.012591857329026696
-0.024970701569225887
-0.019684024198918654
0.06574564095753242
-0.00889844899770158
-0.03518913813232354
-0.039503729290522795
0.0147001948795482
0.023185683463935323
-0.06708420286867249
-0.1625357196818361
-0.015325837535564022
-0.0034302412497838313
0.022809717809598354
-0.007501051688558023
0.07256698379818267
0.02141688246357514
-0.008270272686537199
0.016017594815287174
0.007333781854562138
0.012143826082356268
0.05435111784368454
0.03133013307884259
-0.006271983984299323
-0.00411994432372614
0.009659638891365679
0.008094206396411077
0.002600170552569705
-0.019012915159200228
-0.01510063584210223
-0.005052722732662098
0.00575474521490976
-0.03135077984361213
-0.023908653649203335
0.0250930239877179
0.00343319881269372
-0.018727063242503353
-0.010488741648864945
0.0630458014955876
0.09974655549403305
-0.028849074360609874
0.010408664646168382
0.00034239581389107216
0.015482881528117626
-0.012482962074921503
-0.02959307106388876
-0.008565070857135001
-0.03505395746885871
-0.058519986706796805
0.007510406381721816
0.027884744549041707
0.01189634440773362
0.007520982302959745
-0.04704556978602991
-0.01442495967157818
-0.02401519341650054
0.011731773231000985
0.06803770979613309
-0.006463075170738907
0.019260451823494486
0.009902993642902853
-0.006462042969123272
-0.00752618687423582
-0.022170534957570855
-0.03533391346586568
0.00042166743559745185
-0.016362267621196108
0.0025548236403036034
-0.034885520943822024
-0.02953595935728677
-0.03726391059320019
-0.026733585416181337
-0.0018784591537391328
-0.006695976871923502
0.01586621476301156
0.013510165901452846
-0.002731312795973543
-0.051427151785047975
-0.08216341706659999
-0.014663371256043584
0.1358488599135826
0.05645724661082249
-0.0016496620165364674
0.004545439715082902
-0.015432819690161203
-0.024387392379483966
-0.01669494067538896
-0.027482385543117077
0.031251519692007144
-0.01514110960215055
-0.06072717883037749
0.022777401169181966
0.2655997716387424
0.09059269670728082
-0.03715822443085194
-0.04468298678410192
-0.03472693819448438
-0.03024755923507088
-0.042207785336734444
-0.02685354368445738
9.038010449451823e-05
0.02687989880816989
-0.03183518918041231
0.046686540914693674
0.035070333991570585
0.004316356526210525
-0.0011917590369927014
0.017505751056156586
0.016316215261815266
-0.010760783879786658
0.00043943144733207834
0.16802530829072163
-0.0170273995235849
0.02691700455462767
0.05039824350000171
-0.03609231741367189
0.14181025383265003
-0.008925099968455781
-0.05625818980538184
-0.0043061899760518324
-0.01884346147925281
0.0031976335972350085
-0.0406616033938553
-0.05068795774544256
-0.045463243651400205
-0.011778006302623125
-0.04975105722460229
-0.05458885251237822
-0.024359412175770905
-0.012120676038634764
-0.04919764194397175
-0.023499040051237787
-0.06390083773075918
-0.054390689520794296
-0.019971211740611814
0.012712391860406657
0.011493606745779754
-0.03596534423564835
0.033035786562312916
-0.03730945693158026
0.006344776362928406
-0.011178954183823265
-0.03719196578446657
-0.049176670074844976
0.05938563774648111
0.08047849879250059
0.022752191733410324
0.005060790516442929
0.12126377500680531
0.011901209831704411
-0.07242857669654006
-0.04268415782664633
0.07546663432679179
0.026487624154749357
-0.03118138814197885
-0.035062201850225606
0.005169035904216911
-0.016646824316841644
0.0056970815094689806
0.006213870073548097
0.11429380305095556
0.07582300168035642
-0.008241155477561662
-0.007924773808959016
-0.014240850558488765
0.026880247944576958
0.020800664733869642
-0.021280934759913474
-0.0040616659872249414
0.014573584501736658
0.012958131450790309
0.0020671676370359483
-0.013769505036835111
0.0014925220714485335
0.005917053981334646
0.027628387881706993
-0.0068973993200167494
0.006454177831282395
0.0011599396691199069
0.011730671556008702
-0.02359367534090141
-0.0734052209697281
-0.024020682461665808
0.023980953362082252
-0.05868424854789291
-0.18108684096839978
-0.05179064662433248
0.12417124647790871
0.08626969839027754
0.019198371583099894
0.0795119489951961
0.02631630320258818
-0.02861450993149595
-0.01986528722532178
0.012225614060694433
0.01919051223168926
0.012215226137825176
0.037728473047631376
0.0440070528318862
-0.03206749468291431
0.0021263357048147673
-0.0009760885398368297
0.0063816035697080425
0.006637693493016669
-0.012599348728520799
-0.0022343482499860537
-0.0663265628254594
0.0027454674251087543
-0.010082400438636374
0.028399032265452807
0.03506147786576652
0.019695965837552433
-0.11731748259149309
-0.14784783817253896
-0.0210809272986469
-0.01722449943534985
0.03913561054975543
0.00037138871025717957
0.014936375325570364
-0.011489463043529739
-0.020430740879452954
0.005508984793164316
0.06490135405749867
0.012260116820872368
0.023956262891606427
-0.006921187637340332
-0.02996735930195563
-0.008050094377621735
-0.0015147601377706753
-0.01726279476833108
0.0017014198940200735
-0.029359488059579667
-0.035472943620490034
0.025526375422681553
0.13773978659109343
-0.02909812724031635
-0.045162264240144516
0.01601197747164299
0.022913350959436134
0.027458032567090767
-0.03332534956399367
-0.023549000706269706
0.011792132625197663
0.058551868146892394
-0.009280441266717216
0.05575911978714724
-0.026196390102903193
0.025233777355619314
0.06794870389717841
-0.05590098280465533
-0.09874030780846396
0.010096916320624594
0.01939141511303976
-0.005824801771406703
0.01985327779701034
-0.029886794511408445
-0.024814651676520846
-0.09598575426555854
0.01561827392347164
0.040982902243219654
0.015527697509927966
-0.006146003267468868
-0.027969911047639476
-0.011777049869892161
-0.01777801963675423
0.001742441234000593
0.054304419415292446
-0.01836688475947523
0.059236268295731254
0.03257191072602981
0.01535808051328458
0.012709569703910474
-0.007761304861506777
-0.007095458065382893
0.0009119882830419597
-0.03260104457374951
-0.00010873899358182238
0.010534043302112732
-0.002410514787032249
0.06889405951442668
0.005970829676202353
0.02599230439709362
0.04391964553764784
-0.028304620032441632
0.005046397023127793
0.0022345427576434627
-0.12382060378448792
-0.04321424743600372
-0.0028551819111267227
-0.007647352092555132
0.00529052431337529
0.0009957095017130246
-0.015959402889921422
-0.005614589194767966
-0.021163330807254938
-0.030324485516173658
-0.007283025516814064
-0.002360685658288706
0.007850693577157182
0.009011615965946854
-0.015912506682344667
0.11800774737021169
-0.03326446335787963
0.03393533708997836
0.03868343660010045
0.010133313038284485
0.033427933628013294
0.01423642271100641
-0.008302314431342156
0.003159035936140254
0.03424546256937144
-0.0005913388329114623
-0.038273703798055385
-0.01612550058574864
0.005197097330130649
0.012639324331568128
-0.0004063694758743292
0.007150223899223263
0.016143877978549548
0.00794751480539077
-0.06768334301557703
-0.0071653757771532696
-0.0018675161806289895
-0.009616875575702996
-0.023349074900022863
-0.03611107526465693
0.040008557891686045
-0.006202783958579772
-0.022374456861573876
0.02669883271438348
-0.030497721360317122
-0.0030205166379744454
-0.030866367343472145
0.011346459484586919
0.0022137139221822034
0.016613479120546004
-0.011927808337927339
-0.024557745208772935
-0.011445045600324416
0.028857230346964247
0.005159761685042624
0.013527513057867532
0.0031266286819403083
0.0007878902600165829
-0.004436268820777282
0.03627347139829525
0.010084025718815493
-0.02022228033911491
-0.00992696182404313
0.007534024985905282
0.002586807895628034
-0.017571630168385383
-0.01160996223033627
0.026894529970316005
-0.020128240168809083
-0.061994525104980394
0.00033659286674958804
0.02890051324839344
0.04116298428598199
-0.0016126472240686413
0.02478264964507934
0.07050574310481574
-0.017348938793064
0.00512574191710253
0.018543980883942515
0.013277984119472617
-4.83537405052587e-05
0.05865057687194027
0.010820632558808763
-0.030475360496730778
0.008323864951240146
-0.005603110429051526
0.052095727698707656
0.020615461635548758
-0.1820469270200609
-0.037676957566461174
0.05498689312471067
-0.0018710697491318169
0.031609074576321616
0.017807024796289886
0.031268265615429704
-0.0015940931248088757
-0.021075318333110264
-0.00499214989174147
-0.009267343352211983
-0.011744484175333516
0.011680158548040468
-0.03999369911299245
-0.03193218827788324
-0.019261198521230104
-0.012451346333201904
0.010022579197872332
-0.0032057878890465103
-0.004207309210597196
0.011627546422246412
0.01600118226729539
0.004552094726752097
0.017130730134889947
-0.011959153109192546
-0.01602717331736996
-0.016709770149927635
0.017629097567363285
-0.020846438480844966
-0.08085786550716897
-0.05231738547016345
0.03834232690348496
-0.015738385837549055
0.013872537007941242
0.05642657156103503
-0.019343031547027524
-0.0323691340100507
-0.020817534754999714
-0.06661866910076304
-0.07594864750247868
-0.025135809498240128
0.0015938469191890564
0.0152802792931889
0.011817980312502514
0.005200607925702751
0.01590313631197576
-0.006203329012481906
-0.018154240922046726
0.0386109741240434
0.1274250708210799
-0.04111079504347255
0.014955544290157765
-0.02215537157359985
0.04702785682053174
0.07800922452643967
0.01819733416509824
-0.009897110194628918
-0.040167719862979276
0.028309679621993815
0.052930586078601315
0.17384642960802316
0.06080202398738
-0.038600808856451105
0.004570992404728596
0.005019900090445747
-0.017284978255330916
-0.043154083843059896
-0.021222624439027137
-0.010495270092363486
-0.0034400873050519365
-0.00821371339025589
-0.021740219800400667
-0.01648831228156894
-0.016907808954844776
-0.010743365450019261
0.007533035092131651
0.017316674980466254
0.07014931937384711
-0.02923540684022785
-0.023648788576428832
-0.02411287739711451
0.0037799772796504143
0.01997390106037368
0.015239975244946273
-0.018681316292864503
-0.005661741654088048
-0.010944658141027571
-0.012996734957851102
-0.02842289220793634
0.0003270518991838081
0.0020364854648495063
-0.006737976781081817
0.019433604843750313
-0.022429578117795494
-0.05293197779610631
0.0034655416995448426
-0.018440459038288035
0.09721309047618787
0.10931435319444154
-0.05233698354031672
-0.016026100916809543
0.014177410645802255
0.002171911019659483
0.0027680482152953683
-0.024001291975348584
-0.005266509593150622
0.02828308491218644
-0.04293144114691582
-0.03574497046148962
0.009299243602312386
-0.01981930003544632
0.008288889434709039
0.016450550512589226
-0.01344554897593057
-0.20724483955721523
-0.06635204858858351
0.03211729693913355
0.018938831454564466
0.047559729381073605
0.009934580085930038
0.009547321846123348
0.06606110336611656
-0.04289210119388049
-0.053629696394878495
-0.03182497721709472
-0.025296084081860352
0.0050753929752538375
0.1377261037598567
-0.008704540657974836
-0.005713204769079073
0.004859129865156123
-0.02689972265949554
-0.011676080450185087
0.02194337047828081
0.024260952104105754
0.02839948139029629
-0.02747553674209436
-0.04271211496542463
0.012280529457277029
0.0015174796593344384
-0.0019262866258111114
0.024781988370591333
0.0275677121487687
0.005380337656428835
-0.018449281658717353
0.04909164101795095
0.02711985931826765
-0.027415366591932628
-0.029191240966957827
-0.013521096397770521
-0.025781847121179834
0.020570852221197942
0.00047850349595429903
0.10260172705178867
0.1045016948407842
-0.017968449730059323
-0.015410825496979681
-0.021423301085482016
0.006657640916865837
-0.005031769116359496
-0.06251312824395415
-0.0028052165611725864
0.03623270493838005
-0.030798051112028484
-0.009968111406854436
-0.00869996348572663
-0.010011872191240319
-0.004484679114338224
0.013917805054004393
0.0513011233850201
0.0024010633672116428
-0.011476599704277553
-0.012253556113362906
0.059419468177603865
0.07475585125974041
0.0011076178282990738
-0.011202136624954116
-0.12159563679295869
0.0221542503541202
0.026995021778725082
-0.04613253915372908
-0.021076677985219835
0.0017881576812778517
-0.002448136052462011
-0.04091774636731665
-0.008597808947762919
0.008857719368079806
-0.00862226886945217
-0.03346017523081762
-0.027657834375382107
-0.015471025567397028
0.03894703201632345
0.01297929566854642
-0.009223293850024685
0.05425788949842638
0.073866354946965
-0.048989409040758755
-0.02578624184033407
0.015741930568632222
0.02269092274784432
0.01874360574118889
-0.014642695933410792
0.037913715229040454
-0.040889663330111584
-0.026537501667078658
-0.0017228751363331783
-0.02067016440518041
-0.03585015000615196
-0.03304445723466511
-0.03474012454082421
-0.028950558510611103
0.0252222902762878
0.03350494875025635
-0.006781046499429691
0.005937669037567959
-0.011309935977169172
-0.002368271897867434
-0.02776635139457929
-0.0043728597182871864
-0.05144138804932363
-0.007500189390849112
-0.013998704343697916
0.04686756286750461
0.06146444089855227
0.006818085409962077
-0.02166142904827828
-0.03161777350981091
0.03223842721477184
-0.012336939364263107
0.007761090783851442
0.025063238965619353
-0.03808181101255896
-0.00827875485917024
0.11600020825157552
0.037621558423450295
0.010948647219124575
0.07477710527734742
0.006976228828378618
0.0065341117669058795
-0.01120632011286951
0.029336656952697535
0.02710077964116567
-0.03676547215869924
-0.046108516856683913
-0.0015765103523061464
-0.0343658574078551
0.0009042469066598601
0.010078860885502649
-0.002303992152124131
0.04133375412427229
-0.040508773740226864
-0.04661109291873302
0.022772405034396218
0.008496900746627449
0.0049683486595035135
-0.025599115665172947
-0.009863249734947467
0.0035286756896293968
-0.019407711341712923
-0.11085770645997196
-0.04356223233187105
0.028849749193785995
0.026107498275779035
0.033199478161336386
0.02155376533715885
0.008979024746506909
-0.008423223722471262
0.06340615128131595
0.16269478734466894
-0.021293822921606722
0.047414084640036096
-0.01733328833323272
-0.047816440121006124
-0.011752002354550612
-0.059269372591670665
0.008016512570284132
-0.05839167638319136
-0.03412249603436413
0.04635769212010379
-0.023137967068254824
0.001794903782040535
0.021832676693990933
0.007183955928992868
-0.006759394294068533
0.03372505193557463
-0.04040576192820214
-0.02852645295677663
0.0433892749362088
0.012973807540521666
0.00799876343449839
0.05697869471818932
0.017523983523722683
0.02167993219973238
0.014173339765158909
0.03771932108914294
0.03909194093632168
-0.028096269040078517
-0.13278184848945584
0.006446119976200028
-0.0030865174981215505
-0.015502205467894752
0.0018224012148258435
0.020815408124571198
0.034006247257636894
-0.00784939439881673
-0.0009362018411036632
-0.07644238113476755
-0.10671284124522085
-0.16433733982639465
-0.012294307567141356
-0.01307598885667646
0.04759087377806847
0.008675785193205632
0.00905648659995949
0.011887941256626195
0.02766523035005347
-0.02639305412084015
-0.02684374115504195
0.06497805820583948
-0.026894162401070534
-0.038917739472016856
0.015169917112072355
-0.007300002225744119
-0.009891757178934233
0.021686590968810933
0.06020860605736814
0.02079918458871554
-0.02378017510079358
-0.015187531416638889
-0.01710547907833185
-0.022707381924820923
-0.0126982146162125
0.007522683992432977
0.0002135390356018409
0.06140398977941187
0.0750666967867842
-0.022127066023324468
-0.017437059293423967
-0.05620920866735439
-0.04392791131264415
-0.05419527106384067
0.08528478998505613
0.061793122382528466
-0.00887502561396505
0.008273825938640471
-0.012975408974964471
0.0016347430903886195
-0.018812330302293536
0.06380643993340393
0.0629909629536502
0.02910051452592505
0.00777183316671955
0.013459347753001038
-0.021502669982450383
0.009544173010543847
-0.0072706540684470515
0.06295030424683981
0.1264684018065891
-0.021830313717947022
0.010825410355372812
-0.016164449984030514
0.020527814339700676
0.07786294425182658
0.009848533962948231
-0.04200109685438867
-0.02050277619376163
-0.006475117336927661
-0.015067806441423524
-0.010802762946985508
0.007452458046796286
-0.015139825184081064
-0.013344483845513726
-0.016424576935607352
-0.012450545525370327
-0.011125374438382943
-0.01754768657343784
-0.018876481844945135
-0.025648375629713307
-0.021027041181512943
-0.011353819174240587
0.005311291725549296
0.014008375014339727
-0.007178436043159165
0.030406381936524486
-0.14809458337902817
-0.0761236284853458
0.07414866243596005
-0.011471566131229695
-0.023428450166030165
-0.00115289704254079
0.008557110441168646
-0.007338795368444928
0.028828922607008374
0.025427516827445925
0.026135994240560914
0.026005799133420073
-0.013181014159215717
0.012910854293408167
0.009360337488697235
-0.026436743073605478
0.06365918911265638
0.012161069516070527
0.00874672514316412
-0.04575076802972739
-0.03039408245970061
0.018897211055449323
-0.011576903850055062
-0.024964897946045256
-0.0038378032190288926
-0.011822731384876611
-0.009080457159630443
-0.045688357740995715
-0.07261152378282111
-0.011833409453998774
-0.003709062830619086
-0.004283772290757099
0.003599910502650504
0.0641380089194984
-0.014131640050806176
0.020478824538729307
0.007909313204724919
-0.023999325027464782
0.015688389626864033
0.041515604247792944
0.0067503030600782445
0.0028029919269088378
-0.06961471875452734
0.015133108704485594
-0.027463328446807773
-0.0026215621307576543
0.0182855868487305
0.0632216902030674
0.07588757416605561
-0.02165599782973534
-0.02383619513977868
-0.15465621980907038
0.07835324489858365
0.03616630487234764
0.013623111773464485
0.02375131355710509
0.003641079160513987
-0.04060556618570888
0.04123717447914873
0.07523389390359313
0.03702574231218936
-0.012494245396754424
-0.03716917974041298
-0.004127477860610264
0.05756846606697888
0.0103009378947654
-0.009196996829492415
-0.16850808014313778
-0.013354020239971858
-0.005559414710432814
-0.009221173495915018
-0.03500633168280004
0.042374396929554504
0.14103413674135254
-0.03315149458638605
0.00708316149274645
0.02233241715548104
0.04317579843941152
0.009120355072914364
-0.007179858871399311
-0.01772952790301012
-0.02017499289725635
-0.03517195586927902
-0.01655524912348616
-0.0037584772104187853
-0.004611283210471068
-0.02373910855190037
0.03093176194345609
0.029636873527044003
0.04533898310647091
0.016195900252946004
-0.07905387390152664
-0.027678370189906914
-0.007882818543861279
0.010659826822476674
0.08725387029701787
0.05483712207865748
0.011937161579136333
0.0356980318366819
0.004112555550535306
0.007276489720260315
-0.012106590655541765
0.0024902636546211775
-0.024212732857144835
-0.03872507844550544
0.0021644130819953073
0.01107816247519669
0.0010049162126936325
0.023164174169506304
-0.1457393616112167
-0.05754814148535862
0.035899614190858714
0.004173277440902764
-0.025746233540819986
-0.00838784083389608
-0.025460838639352435
0.012897028277228637
0.023725577416912065
0.0029420379511787597
-0.02016990115786948
0.01563132920495378
-0.13914729728898662
-0.13057802286147985
0.042643450861024376
-0.03059368385010564
0.0502980714009949
0.000973193439124474
0.029316741146929087
0.019195504225379766
-0.04438367299578806
-0.0007925338573507604
0.17802369856982805
0.05039407639720793
0.04298394015816007
0.004703859332047349
0.012950746839823049
0.032032088791212686
-0.02887918841001452
-0.04654590489293272
0.0496575171621924
0.051907128660580795
0.030040478616993563
-0.02413913265118787
-0.07630365482597302
-0.008539681836791529
-0.025207957679974708
-0.003590409873181768
-0.008779997980557055
-0.004405895568140794
0.004357264659065546
-0.014189858424759812
-0.010923072602937683
0.0378259323730299
-0.005936563177517164
0.017004595206252325
-0.006625127101481294
-0.04326548671478937
0.008974000005605725
0.024249765445244327
0.0198086307851482
0.00026416936731909536
0.008584083548093943
0.0355853984010363
0.037908974545415385
-0.010694078851841359
-0.01765737089057517
-0.0378262987419629
-0.01403552267815843
-0.014734195491190339
-0.0012136520130444548
-0.003820899364600901
-0.039987586725732174
-0.043262603060327275
-0.006040809962548186
-0.01841515727877922
-0.05534353608979942
-0.016233253127693175
-0.006277525855509066
-0.0041184978697393244
0.04153161271227298
0.00308204381626274
0.016797047774024965
0.0393838812205962
0.06484194920971195
0.004207267034176399
0.007682407066998396
-0.009343272954260294
0.03179306517213297
-0.0077115411343424145
-0.016595979617104708
0.006249942684002309
0.05011581790894799
0.09396854370981458
0.03588383247791545
0.037618202332469555
0.027734958111742283
-0.04670542808495357
-0.09588574032503648
-0.01567091619170628
0.0074345921145546326
0.01798699741510757
0.017657825981008592
0.029692005775462237
0.014147788204223787
0.0030649829894405043
-0.0006820977779328822
-0.02982452101032622
-0.005528196082683093
0.017156796713971613
0.01823007382240738
-0.04987019468301375
0.03690554687974688
-0.08865631732431599
-0.12183917284724076
-0.027096816919412216
-0.04251290013266267
0.0210113607769242
-0.02249301472558248
-0.008558502516718507
0.007575775482405364
0.0018729460631755062
0.008381512017977525
-0.003466578850917186
-0.03366397761603612
0.0442159663659347
0.018281430835967012
0.009158783811055823
-0.016996292996370208
0.02971384023502433
0.014296893500202221
-0.019861586018386102
-0.010182036400884357
-0.008364087323916317
0.020804147554403383
0.014491755139376445
-0.027904354128414785
-0.006597374412137998
-0.018960676694271924
0.01637431750730563
-0.04565876828283011
-0.01466753617342398
-0.06101182734245586
0.011435117896685203
-0.03021924838731353
0.14511925923310426
0.1291881147746811
-0.10202400410182084
0.07039824789587226
0.00978653253227993
-0.02602604969879302
-0.022865867667580173
0.017267836606621022
0.017183062809281332
0.02685161707584623
0.011768214042172563
-0.032861530050712746
0.01063353746641521
-0.0009571053743423919
0.014351572654690918
-3.1191510531187137e-06
-0.11088300107424581
0.008840859685860658
-0.01674454490527316
-0.015919833445505273
-0.04300339357461417
0.1737504636883884
0.1350664931557865
-0.0460710843428315
-0.007784413699862588
-0.02590633308790832
-0.014145341827226461
0.08099202924372963
0.005646999196321928
-0.036679625152583946
-0.007682381220774668
-0.01658784551645724
0.027418305499204654
0.001297872382717246
0.0328408499813877
-0.03064859504755401
0.042152836155719846
0.0772277979095766
-0.01565863825925726
-0.03302907471996682
-0.057154641992631136
-0.040628759543682474
-0.008582850224248708
0.010503407300431231
0.012261435410723652
-0.014878384499746225
-0.0001933650341652952
0.00039416905795271314
-0.047360727746266186
-0.12036866983103436
0.010368028820248839
-0.02031258673450638
-0.024676697836709446
-0.03925366876582976
-0.025306540831880036
0.001132442472839544
-0.0016076466732945249
-0.01788221344997941
0.030690034997849603
-0.005995233957880287
-0.05786305738652648
-0.012014118018036724
-0.04162061134407164
0.033847713035958724
0.04927820438336531
0.008137616434118887
0.006889321731824125
-0.013080505393530853
0.07392048599487427
0.021483991886039867
-0.0008678192749740693
-0.001289689573435578
-0.013041837733111614
-0.011464352760848456
0.02347259861635279
-0.009824631998764722
0.04126457244200491
0.03111601812505117
-0.12006171932422002
0.06624352250201923
0.048010325323831995
-0.013142439782247857
-0.009405810295105526
-0.03188654986621713
0.17368615205473623
0.1093288951223751
-0.007228006590071139
0.001649207350322898
0.04467496720455293
0.02324090810428903
-0.05767770145078941
0.027833265307177137
-0.004975874732995802
-0.014609532019466387
-0.010687334417141776
0.05158256271913329
-0.02276150390044012
0.006867305903693205
0.040641445198965155
0.008173029878647802
-0.13927181190112348
-0.014911900173010785
-0.08307781888924323
-0.07578984922350183
-0.024922882657955614
-0.037428320996809955
0.005898703821387022
0.0023143048254002747
0.01906752108657422
-0.017313461088960636
0.014914975075834952
0.02652892010573098
-0.011278994608766017
-0.008005945740167985
0.0003975255846649694
-0.006254722763487441
-0.007137615141060111
-0.013309115185161898
0.020498378123912815
0.046386334197322875
0.03132206530311834
0.02961465745494149
-0.014584217031610848
-0.04604072071082345
0.015844711483558933
-0.014622182958977555
0.004742870835805
-0.029105938943375015
-0.013107700027947417
-0.011488121767951895
0.023723918037705176
-0.024755319001619903
0.04655386606200538
0.01061027501840241
-0.024584794403518937
-0.028875332793372847
0.04000883426811042
-0.0038481358686128413
-0.0004793278062683587
0.028264958644662195
0.0030107740310584283
0.018869304512664126
0.045289047847340023
-0.015145808642384108
-0.0003198482123145112
-0.017527438906818453
0.01234365429747801
-0.009923882548023115
-0.028784843768673872
-0.014618116661956171
-0.08397378497246961
-0.0652327339947922
0.0237740793424462
0.03736152396078183
-0.022474457998192796
0.01557715268706314
-0.003465283009069744
-0.06811008719987685
-0.01011337499009067
0.06356389165746687
-0.0149371176119651
0.15567079182251664
0.1153678905211901
-0.024796885648943282
0.00745928284205105
-0.012186649451971327
-0.1503093779651678
0.020520360857236856
0.08665542538410934
0.02277781608878075
0.024500824370761204
-0.03600604061959746
0.036675685212789806
-0.0212840365223412
-0.02987003200372713
-0.011595422726662911
-0.054128160385217956
0.024147612239915617
0.026713833374444024
-0.007007447290357309
0.004791511016109162
-0.04395310962417285
-0.02478909856380748
0.04503939483619597
0.015042727116363955
0.003846437500022199
-0.00260130863212666
-0.02324237546092013
0.018719359957800764
0.028410643336943653
-0.007275561830616474
0.008343835303538931
0.013004214734747204
0.019496859321816603
-0.05424149573378488
-0.060095586763660426
0.005932044157657446
-0.05517071371986517
0.02123501644718214
-0.023334815796899937
0.023266971741490033
0.04531516822767449
-0.07839305994239884
0.01748800568425195
0.049713125082214565
-0.009436781814610695
-0.0046489865964481954
0.007235258386578659
0.010121018418724904
-0.022437842681634478
-0.0040763872396847554
-0.014757952410656168
-0.033551958870690596
-0.018485983270489434
0.010226187432570477
-0.002920513585788311
0.028603822574621646
0.046613148552390724
0.010599141532443982
0.003133685120141937
-0.01051790683528031
0.0301422599462432
0.006561633533640099
-0.024623010003501235
-0.00465091230949236
-0.018975144994590767
0.023443718585026724
0.017747465971713883
0.06293999540123452
0.036663269788702775
-0.008927794152360531
-0.02239092299282419
0.013285415129711818
0.02319738561400701
-0.007940240141865833
-0.009423709015350832
-0.04131232595896572
-0.012118212588580028
-0.013883221878475597
0.022666607616405227
-0.006381216956862595
0.0022443711163877425
0.0419293915677732
0.07023971150237988
-0.0005381797072407873
-0.0015109933549315444
-0.0033672815729965423
-0.17518052301803969
-0.03321155771053688
-0.0019436761340718802
0.0014964455677023113
0.050335108721317016
0.0007545330162053946
-0.009259274021423083
0.00041228537094683713
0.008272500227149811
-0.03824414993018873
0.0009033441679754065
-0.0033007069644947623
0.0069045090606713305
-0.005934893579003265
0.015279137367582445
0.0013681585703955391
-0.022406577598783683
0.03191939129124349
0.0250302392730649
-0.0039011948571250087
-0.02069975490997106
-0.011185400670398103
-0.0016644599685467082
-0.01422013539286171
-0.0012702850451725152
0.05630305859118062
-0.007991720716528181
0.044749122296498585
-0.03189356267096986
-0.01684520675918206
-0.00716390478400829
-0.01728836962644104
-0.0157412483643014
-0.014501953939543946
-0.004544396164797748
-0.015564303663236714
0.015490335281608258
0.02170752796789904
0.025824920128907712
-0.041954214096421624
-0.021968347927464018
0.007700416219815553
0.004400911050151431
-0.008805515138019956
-0.003986127130049985
-0.018702500851155605
0.02527847382544112
0.0050286621490657785
-0.017333680415581466
0.002855132053988694
0.005946813244608868
-0.011179809014081615
0.04778600793328385
0.004394741727524931
0.008160665633054152
-0.013273713011865574
-0.006556628616087367
-0.04591471860616517
0.009845545577304856
0.010059769628626819
-0.017742370847699546
0.05212424265613565
0.12769073741733403
-0.011139262072708081
-0.034878799132437445
0.017089495354527754
-0.015702243592460478
-0.036647632654198854
0.018654988938743716
0.007546684744175036
-0.026783324974198254
-0.00444060707340601
-0.008310677248439991
0.030065559929829976
0.008569652753118351
0.01124134477054945
0.010533995777443177
0.017784643577210168
-0.013504500888246784
-0.007869188989593864
0.017647150349553282
-0.008749214661084857
0.006518456687952811
0.02229165356393094
-0.05074600260243024
-0.007174525282375248
0.008100968982691126
-0.009541850787684693
0.004777439128688865
-0.017926466160570097
-0.038365795674846694
-0.014033982768709848
0.06737908367498374
0.04349654714154533
-0.023603832842410476
-0.022492340844346134
0.006002923387360599
0.022314753097386217
-0.02309184460086889
0.013682093765612555
-0.01846723475079367
-0.04350537410743753
-0.03435095933353581
0.029310421266642083
0.04517350119279544
0.0440253301402112
0.03263862102721461
-0.02314959822256023
-0.03626685118735907
0.01716046253293283
0.014695370612515139
-0.03434185946511006
0.00741475776563168
-0.03472644273385898
-0.0010485244232710871
-0.027802857553343205
-0.1326292924858149
-0.07078300634421439
0.026142724154897316
0.024727401097478258
0.022079200006273104
0.029837701252080278
-0.005006122802881072
0.0030632024640463358
0.008476187943769541
0.01222824765300651
-0.024604670412248668
-0.037489215900162236
0.00829302235800269
-0.02321369093245428
0.02240861868062621
0.05555924788899378
0.06198460776951949
0.005578758832334082
-0.0012737838662775739
0.0042000418532330665
0.02899699575260963
-0.017800046612664475
0.07143077002410024
0.04407980930608363
0.1106689018214044
0.03201589776980227
-0.004560332255114947
0.005974510770399216
-0.007307440419314084
-0.004856101105426593
0.01798179731260145
-0.0005368273069430602
0.007770197335418987
0.0082673233331357
0.002864736388701987
-0.009305618122625365
0.0005079909864295338
-0.0263679798095758
0.0123185982456843
0.012839345995479604
-0.13498311930288273
-0.06540352112891298
-0.06253239735215453
-0.0984884495339184
-0.05753747283799794
-0.048351413348263296
-0.006436635593665799
0.06148343272109628
0.01824776077511565
0.03839079950684403
0.03170120759476986
0.013267637236853145
-0.040092352212346166
0.03555603143656918
-0.06855312019671204
-0.026672632756145054
-0.008046505964558416
0.025643765518106047
0.004312262618479474
-0.0840534189851253
0.03299968740986217
0.045491776153438586
0.0024603645579747524
-0.012323244568280173
-0.007512295641295011
-0.018172200809631143
-0.015775289193523598
-0.04423947920459434
0.05702004259054315
0.03747208693469884
0.0081771849939397
0.06410417435665051
0.01020753080017283
0.033184856639738414
0.004757662213255535
-0.007034873648039712
-0.011114395591793088
-0.012129130198290957
-0.007575151498769907
-0.01396505472923294
-0.026320635399879326
-0.018278899900249095
0.04102648999810002
0.03955898250170648
0.02319801326316117
-0.0006380439691771898
0.015448518802780684
0.0012549534994174634
0.04636915910275455
0.023160475087452025
-0.012831545717961083
0.02465543150204592
-0.0009108267745728094
0.010971819722402399
-0.03151075917483699
0.058665653843255644
0.01762660189178501
-0.027243098062215657
-0.0024675993361123597
0.009770363266784671
0.010393213684887666
-0.023493880007339967
-0.04478087904112562
0.04258133102875558
0.048165395577261204
-0.05126732107378613
0.013346652854830015
0.01645484807394802
-0.024306340961858474
0.00998080943467171
-0.020992095930900692
-0.02219494951363225
-0.025866128601020878
-0.02927037973484896
0.001551499898294052
-0.0009123476833995756
