0
0.06417147280521579
0.07496901783752237
-0.004103281516810423
-0.024751589040445703
-0.04600439318038573
-0.017505807854986656
-0.01627439649080226
0.032838281204364
0.02392576862280735
0.03890806080861376
0.012555567915015248
-0.05339905511449034
0.011384527571639328
0.0404497315216267
0.01842654255610969
-0.01770124376526759
-0.02557799465438065
-0.017930466462780893
0.014409454296728835
0.05590024509865932
0.017388995392998412
-0.0007409940784189994
-0.01640765486403711
0.049164937343618355
-0.02112554509188635
0.04300234055462987
-0.07177213434128048
-0.04783867587175874
-0.02144163706677503
-0.09018907161886014
0.061822603193957514
-0.009995652055472046
0.00126879022473928
0.009776023071673277
0.009931929709128146
-0.03688120323439386
-0.02140111933559892
-0.01789369671024495
-0.00010869062770327634
0.01745737091630581
-0.009189672401866609
-0.19781120329548152
0.07063764234169084
-0.08656771652098741
-0.1060446697795407
0.04572409408969516
0.009300348856910477
0.10448590536933383
0.00851856075769792
-0.015746412292989415
-0.012103751828334008
0.08830185384920512
0.15771655636845833
-0.011299792223907867
0.015856557272002383
0.011643839559488348
-0.015113606115557524
0.0019309511226527176
-0.00491670854074473
-0.05506911555794748
-0.028520063548961163
-0.016987965386951933
-0.02679934174374246
-0.013277926892566218
-0.0319005152252609
0.0011814765183580415
0.019563818960646497
0.02141779686041682
0.05125493974231114
-0.0025337750364290436
-0.02072529140885672
0.011059372753461883
-0.026119484522187857
-0.010286261700609105
0.013959625368924209
-0.010079201160161842
-0.040231417283436315
-0.025255512650549438
0.14156051994666422
-0.01601509365408132
-0.01780292783672118
-0.015758189298168638
0.010248315648755172
-0.011514963678348367
-0.07025021438859878
0.019919696353013588
-0.02147105342145892
0.010653044915223982
-0.004932243837972903
-0.03675291155919774
0.021105387042393238
-0.02712841892788297
-0.0038206237236641126
0.0015301254679671889
0.07537026410052418
0.002205749269122503
-0.01897511282306596
0.07439305572066024
0.07792556854370575
0.014680341590753918
-0.03041857927313376
-0.0040969960513961585
0.001879758218136135
0.016328476797849774
0.0297215979071726
0.014881772962316683
0.015906943291206482
-0.011114978245214324
-0.016285343678797908
0.006910230807301177
-0.018257003231495796
-0.03709571793649437
-0.07105746518505815
-0.005879166634707519
0.006869099093320862
-0.02095872086299712
0.019907455070236463
-0.03234031181844884
-0.009755120619726635
0.0005725934909691929
0.11995912636015645
-0.0998710061209077
-0.0711246553659172
-0.037347247563946626
0.08522015229445944
0.12861534743595704
-0.01716257339551402
0.0016029474248847075
-0.012949524511342817
0.013768582418915749
-0.029346928218538744
0.08676911564739424
-0.07860934786407239
-0.10465396473407229
-0.029413322609469085
0.0034284361729923214
0.030751313419007578
-0.043748232693976694
-0.021703155884627
0.025829852522297515
0.03103953476581388
-0.022652795420100298
-0.0044713887405610515
0.004303061281030419
-0.013832065922745697
0.056127790891583366
-0.002014555240780025
0.08017217011336943
0.015900398253425405
-0.011851753998910678
0.025381943125202654
0.0136857239055557
-0.003681898358668223
-0.05583481227746442
0.08664169766011708
0.18831798495783628
-0.15910980449717788
-0.012044783330635103
0.06164535702601557
0.08214792331691813
-0.045177631568472
-0.1482871843802711
0.005921249540634302
0.002003972334032369
0.020320985358791812
-0.034921858893717565
-0.03750239284365896
0.009917906304061124
-0.02457953993220764
-0.04222198279022857
-0.0004646951824683848
0.02129684025618462
0.005224910813226127
-0.0068480699499218365
-0.007172255664054086
-0.0194794440058853
0.040866955375417346
0.002016108075847796
-0.007749633460796955
0.002036442327066926
0.00873123143423264
0.05089813138481152
-0.028717482323401506
0.03779888328949177
0.008650549615915553
-0.040860120873832256
0.00011453498364223618
-0.006884853167924542
-0.006595547325748078
-0.0011523911016653298
-0.016383014460081655
-0.0063907623487556965
-0.014005096449344358
0.012616643318810338
0.005921411262896697
0.018961080870243355
-0.026159226016621157
-0.016698342921366262
-0.012200414948166916
-0.011163774692855382
-0.033360296623921315
0.02414304632238227
-0.0052528612870719775
-0.013493004935473594
-0.03340883417796306
-0.03333562007616005
0.0025620038192208953
0.08546575035227655
-0.015738986109709335
0.006228061771455896
-0.04106478649777858
-0.08516029432974623
0.025400453111412567
-0.022266713637072832
-0.0023210868803807574
0.024190502416413205
0.03639061540331635
0.029137054094962464
-0.0007914382632142549
0.009254890367364965
0.010593404411686047
0.029733807820281722
0.0018492617811150718
-0.0036148481726900727
0.060220259179191986
0.02930528772366544
-0.0008274236657456998
0.00042147612613947295
0.020147888960403756
-0.014129916701073988
-0.021631677431689054
-0.019804184418788874
0.00924273056686822
0.014846936397196444
-0.004889050391883746
0.0014386173856458279
0.0068445205457265445
0.003151268108095746
0.015591633507145883
-0.016547251721647067
0.038562197660981574
0.0037249273922197335
0.03761544763193723
0.06364487635623522
0.006898889635279022
-0.014052500867678725
-0.08291913597962573
-0.023842433891210296
-0.008427074030285997
0.0028784661291507223
-0.02770082784660373
-0.00016471584629739955
0.004605391958326016
0.008191018636144697
0.00583703688030139
0.002135386528168553
0.005946086935574453
0.015167426454467895
-0.024563604489392876
-0.04325091814296729
-0.01722266910587648
0.04925997432112141
0.060651535790500664
0.007073715164618659
0.01175045158592362
-0.009615538504939852
-0.04390235189036486
-0.00532840952831137
-0.0050830724180054455
-0.02148173857407247
-0.05877364085671242
-0.006280809197004211
0.01100647160369642
-0.06004722076800897
-0.010492607706103952
-0.012965362712527996
-0.016052930232331078
-0.0007787278600907314
-0.013451144792857755
0.010993458496089093
0.016896461134116445
-0.02058058077386062
-0.0530538780343511
0.06839860788875465
0.0007861186944185453
-0.0004355833411438342
-0.005999919044688113
0.018578555570542665
0.03521133932793635
0.012260132023781907
-0.011057399564182401
0.03793696393650213
0.023288039720024814
0.017701590177902505
-0.004105302998951444
0.039720107238577225
-0.002325465435565328
-0.003338675882303704
0.013125886110609315
-0.0359950697485029
-0.00040681469502538346
0.009700340377820945
0.031215388193637162
-0.01581543492431409
0.02007873040051032
0.011011660031803497
-0.01672910071851416
-0.0025584318784019427
0.0008607884889523384
0.031241721824745907
-0.005505734927245437
0.00443200501391441
0.016331815417309898
-0.01646092866923373
0.053566426183012814
-0.020482423470156656
0.011050066827669472
-0.01908544369610469
-0.008094617289979122
-0.005363285511484808
-0.0063868301673083465
-0.008392335392235599
-0.0050074135582130015
-0.019733111001371165
-0.019546050238127343
0.0006255190290154002
-0.04621334195509853
-0.06408571234722986
0.000864988628581843
0.031476052443329
0.02652309088955257
0.043704903847662284
-0.013622149612875264
-0.006753246686554262
0.018447079983911648
-0.057004499334033155
-0.008802233790968445
0.036226473693854865
-0.00801972814818926
0.011821294489160673
-0.014706264134442289
0.002589388992034942
-0.01613356972519357
0.04090194425819416
0.07198146542367684
0.027001251573592466
0.006217256809647898
0.022875336301031463
-0.08957532864591344
-0.012139290783673288
-0.05446199829653674
-0.08261095345009756
0.019850112945144258
0.008243954006027608
-0.005311807185619518
-0.017633256304174425
0.04458546262675792
-0.039029727630983245
-0.00037973156664993955
0.022317654643000933
0.003743989200418782
-0.0006856165742256483
-0.02892164585351489
-0.03477698559382467
0.024499935083180876
-0.016177582475224776
-0.014033565044474394
0.02032835027516649
-0.022416014476375406
0.024878154371762204
0.017636890874296197
-0.01875760671573112
-0.008375072862100937
0.009655940029753066
-0.04761774459787791
-0.07169605777539431
-0.002836968329109987
0.09089018005634389
-0.03244252932957095
0.035207091272920196
0.00093774675366471
0.01751363233027023
-0.0026632062702466757
0.01832041721836357
0.13107086622187503
0.03625554913747273
-0.0011553504068473734
-0.004798919301115105
-0.009160663606707583
0.014132537578001462
-0.035683202554349334
0.1356566915257502
0.1032862652274141
-0.05425606981599508
-0.02189595481420691
-0.023793009582142366
0.003563553903118408
-0.015375586951448658
0.018900769654450103
-0.018218526245106188
-0.0028649122782724687
0.00090805557025005
-0.00977678533172048
-0.045897513001838926
0.0009522237744940948
-0.01776043856772106
-0.011048426500725652
-0.030469296958088737
0.0035752531426206297
-0.030273474246545386
0.00022632945188835114
-0.007611996641007783
0.03372471230409562
-0.02030222331077036
-0.030537041918697425
0.03649051027640963
-0.05736937004079792
-0.055480811195445866
-0.012873444657530382
-0.03539964761097973
0.058202408457005736
0.019375275243964662
0.01450617135764135
0.0070028100146488585
0.012767694164878779
-0.06711833160514158
0.01924145263233418
0.04191807791751041
-0.01613779584533306
-0.03314874282575925
-0.033273492825697276
-0.013493857324454838
0.008649949851566325
-0.007487585445236099
0.03778299427268831
0.06985844420498612
-0.010680052514085362
0.03200689313887517
0.0010559055321609568
0.027796639397242584
-0.011236760751295215
0.019904177349943555
0.015152157449516266
-0.014668627355499753
-0.02764927146160025
0.044156049788675364
-0.008715142355618755
-0.008643487399051084
-0.025263845625779883
-0.012512341318403172
-0.06819607235555682
-0.01739286523421035
0.1048354615424467
-0.002061134066163972
-0.039273112449183065
0.002877192168616018
0.016494563783891365
0.010483682625015239
0.03879523765760955
0.00398949705645184
-0.02295726556211107
-0.009024544183322727
-0.03979937286693902
0.04830037114546454
0.1518829464745385
-0.020353459349571022
0.03129144635988328
-0.015369459155773433
-0.032257194810496576
-0.037993595787832686
0.010211833051050723
-0.01716401743696288
-0.047043455264976226
0.033189722637617006
0.011379393519824994
-0.07440703398918548
-0.033568718355463475
-0.029430096309367593
-0.1296758579304781
0.023639051085119784
0.001239076427803514
-0.053204917462352716
0.03045789073077704
0.003114686805018471
-0.005876385942883524
0.018769013034579125
0.017018640001273747
-0.030887149032857258
0.004726041815704734
-0.013648116796035057
-0.024783026837836505
0.017900552371964962
0.028736549875272365
0.12789380195784358
0.13462516234669675
-0.016566718905338264
0.00607631394122125
-0.0383547247944636
0.026576774505409163
-0.04390846230122655
0.0019027752089340675
-0.007598172537277182
0.03253906919556545
0.009238266365723433
0.05488487255271409
-0.007649493727234333
0.012879278326209878
-0.05366484760217228
-0.08648394762040826
0.008889831357608563
-0.023471016500104636
0.0016270661158109458
0.003394066754651379
0.02502920281884312
0.010710430266869443
0.0014099079086174688
0.021349004748702754
-0.0010171432654821058
0.008418455212341828
-0.006350789202796795
-0.0034841021104878678
-0.018554202857951466
-0.0047232918326100635
0.025873815454809122
-0.029065970147637257
-0.10721578125235484
0.009238908419800981
0.033856680436311945
-0.003546760582664747
-0.01967191582389024
0.05008023553335575
0.009981304323836957
0.0028073483612844983
0.00567437423428549
0.02664754574634627
0.019762081646002315
0.011584126207264114
-0.04606814831024472
-0.04607754276776583
0.030480999520284872
0.03372061419733548
0.0048796167342250105
-0.03229606107588304
0.003341337131657091
-0.026147490202430568
-0.01698999554222695
0.010599055478774917
0.016021611444744187
0.033957871635741925
-0.0033136688028502213
-0.04294143241338585
0.02479676374676066
-0.014417248548002285
-0.003907671959889089
0.008590775306070522
-0.0038247160946341275
-0.016778494839473943
0.04548417822310516
-0.00843322824709405
0.018612780381121567
0.021416410244404636
-0.08427702561729138
-0.020717996935636737
-0.003189255238375756
-0.030776890366500182
-0.0019637843455741675
0.016415127637265648
-0.014638835469945502
0.014188749765536815
0.13068524462321382
0.008723965838786386
-0.02455297482990875
0.007529082887666753
-0.013932258239765249
-0.0023390124328295735
0.009410413459516376
0.0011181232511446614
-0.03400752258882157
-0.016139839439203427
0.014319371634482795
-0.05153910592068872
0.04154486743874516
-0.001434869943716782
-0.015982155204287512
-0.0007095878370842845
-0.03721359353464731
-0.014895243806649531
0.003775655835724412
0.001158426616151798
0.019059035780581178
0.029842789381932824
0.008439275198259016
-0.009010545381033526
-0.0640875351416744
-0.0003905138842982706
0.02349268722707874
0.02194898464255607
0.0397255792040528
-0.026506929518146632
-0.024670245986584058
-0.08251632406235103
0.16169915386848366
0.06839504559268586
-0.08884800207319485
-0.01008667430065533
-0.036290552379234176
0.10336550763743409
-0.03560747258935302
-0.0358504147249764
0.020400296616653203
-0.02239901120083183
0.026939187153154236
0.01798917806990187
-0.018282508162650226
-0.026173376630454537
-0.0034619938174140193
-0.004014233510022823
-0.002592889258511674
-0.07800934443263526
0.011653242958794439
0.02519069598828533
-0.011564403770377615
0.030407524629094438
0.0007658620687961898
0.0032207554142571156
-0.011083759348621061
0.014700440142049171
-0.02821027797048773
0.018969866491801796
0.01544014486279427
0.008293555060439476
0.009617373465409858
-0.024204586403059693
-0.028455457237830058
-0.0003813053219523537
-0.028227162207021636
0.020533555928777144
0.06744569622688018
0.040712849475826735
0.006321854891016295
0.1423240089625842
0.02392848821055767
-0.01076806855860763
-0.023090297618471985
0.008193120196474354
-0.018028351143584958
-0.01291982045345455
-0.020181699387209723
-0.006955179718031837
-0.01849344811968415
-0.04354610744597365
-0.0063406764661761645
-0.018362247563154115
-0.1388981675669036
-0.025764572341291935
-0.0013945500869916617
0.0017411498389551274
0.05662244814768719
0.014586677600096439
0.001487635037600815
-0.001755325901686737
0.014274441368660016
0.04960812323349093
-0.007578465445850525
-0.0043459304463512195
0.02241235882419423
0.007201398719418281
0.010677709024251723
-0.002040367740416646
-0.017445155512235144
0.03786851271057366
0.007315848383155558
0.01104692124572947
0.014718140124918235
0.015588716859467324
-0.0638669984227344
-0.00831777683636003
0.011293155733357112
0.014789192044388378
0.016031534830411497
0.01085007938366958
0.051129639541941815
0.015725385868161655
-0.013306401969416575
0.015443788538493926
-0.08129379712523059
-0.02534225149589861
0.07884337150469821
0.00394178271000543
0.005685556069938139
-0.02431937363953952
-0.011962109363054686
-0.027288737197975282
-0.04427934026325334
-0.011393180060097763
-0.04578909853279429
-0.018613876364900805
-0.0060998536866989864
-0.2827388258110338
-0.09761362288056569
0.02261062719191839
-0.022411099912202196
0.05217330134841445
0.0683448631001011
0.043868579230151555
0.13699837613718532
0.049394538049803906
-0.014037325393613746
0.002327454768234732
0.03322749418838246
0.026600994109254997
0.013849420753607428
-0.017991336434349563
0.010410201582013083
0.007593891781700485
0.01076877803278699
-0.00998365934927651
-0.008428543657198072
-0.01718446102407724
-0.021612255914205722
-0.008167674610010774
-0.022026303964912432
0.04799263551532371
0.002430826351791576
0.010956409760123062
0.01551123570975577
-0.008972348112069586
-0.03492208044457732
0.0603061993877367
0.08264875633304038
-0.018814474007895782
0.0014933357002823707
-0.048038338312181725
0.027359480859442075
0.04794103871999669
0.007994247481418495
0.0020067400975876675
-0.03691722112433396
-0.018501599739193478
-0.027357844111790663
0.12983576726395468
-0.006365124728643264
0.018725554244872124
-0.028247095609539214
-0.06963981936088894
0.012937603656100714
0.038568520233740015
-0.06774692842787895
-0.17460338278016824
0.009196047157062834
-0.03810831105197357
0.021989214968261124
0.04835554729123397
0.03094520432994874
-0.013460994859513142
0.004544778326489269
0.015616811392762567
-0.022220399397913256
0.15871417682882347
0.035736745661394766
-0.05833912881518218
0.010098628895362794
0.003922174547684758
-0.007856529111346192
-0.028825889545846126
-0.00596814136559751
0.0018988411748583213
0.014980958896635789
-0.018778450508088705
-0.016901237688925454
-0.035186681436113115
0.04198240614748138
0.015227684907518559
0.08594581659660495
0.17131796675617894
-0.1124800146042089
-0.04710962741724707
-0.15719431340720003
-0.019611777383917946
0.016044978605462445
-0.018659611526178465
0.009811581170439586
0.007669788483297674
-0.0015058461565294842
0.014903647514009542
0.007245636189057941
-0.03462661817939147
-0.01022192952979434
-0.008986615626535506
-0.02430328540776413
0.11254313627880083
0.006888354601841329
-0.02988956626462623
0.011873264786477261
-0.02650607527451567
-0.006786609396742117
0.008474720254244863
-0.010746820900333916
-0.006195369888516586
0.050570703023396335
0.020949012318485668
-0.004075852751166423
-0.020227704649445285
-0.010397184011228544
0.035761826875486874
-0.005241281723554832
-0.021961796050106012
-0.03405545296717035
-0.021273271436587738
-0.018927580053961158
-0.005793378215034247
-0.05026576792214442
-0.030801506659531918
0.019867741729762987
0.04336347882163845
0.011828811803274246
-0.008013430728418995
-0.014177312018561795
0.010732108395094826
-0.008030187662596043
0.016542438814773828
0.03504418592118656
-0.008898397728017463
-0.04634306642058903
0.0025001866500601448
0.015107456643846603
-0.012924597195350182
0.03677161850571545
0.019300622378618237
-0.0344875879496699
-0.038811781518740304
0.025782563422862174
0.0377919464058009
-0.001895316243788556
-0.022202752183176484
-0.015919053225516188
0.10215913630345853
0.030858645010671332
0.052347823079795026
-0.023093850807677688
-0.015309279569668925
-0.006522089042139637
0.0029725177859346004
-0.022233466558655893
-0.03510983490635778
0.0037830126617822857
-0.03858900691483952
0.03425983406883828
0.03646366535205275
0.018919412408555346
0.03420060685582387
0.0032879675746508817
0.011237573426227358
-0.026018058798096495
-0.018317424206274618
-0.026776419902545416
0.045747026006705376
-0.0004513641372860884
-0.058007237829535256
0.005438910191628413
-0.020511741375148326
-0.03892091616799992
-0.0686629992474584
0.03123712699554656
0.005090977587239974
-0.048907783235811186
0.1849312624559167
0.1038564318571564
-0.07994376590968161
-0.030839090326608344
-0.029100832007346856
-0.0002426603489227535
-0.013864085961124815
0.04022229664178853
0.008124674860142032
-0.014698876238911132
-0.04923705731902044
-0.020504625779832183
-0.008407184527221756
-0.08291562540169017
-0.07871427105956393
0.010870372872221564
-0.006633610679893012
-0.0204165309423462
0.010633226017876555
-0.02533093091792115
0.09047253147696599
0.0879707050808421
-0.051458602246283715
0.04192588244791841
0.05318554169149761
-0.0013038259348669972
-0.022162206532651874
0.015025795377910378
0.020176768657136523
0.027026769906728268
-0.03787600845094737
0.0013841203454262655
-0.0019162085812201456
-0.0012617301791120594
-0.026661483463317984
-0.013229701387252452
-0.013962438003485959
0.00877056737209598
-0.009852578680630239
-0.047508119433048834
-0.00679468042419047
0.019473685328874255
0.03278641744658488
0.009902496241518219
0.03847951486711395
0.0006313202754103363
-0.039622429869004626
-0.021798428354202794
-0.0034586663047988255
0.021180887422781795
-0.003333924886284433
-0.02372816450269288
0.022025757984932927
0.06871219385361477
-0.0018320161123172342
0.023406728523189438
0.12629176580406415
0.058020653039094455
-0.022322319455584518
-0.024319050859121824
-0.013158279699966888
0.0368590990066076
0.008867560250106245
-0.003639611500831383
0.021810567078360196
-0.007235520780468836
-0.15529229828691132
-0.03768328723355457
-0.014063415436946742
0.032186787742767516
0.016723158318066377
-0.005450666448253644
-0.011087599006351841
0.009438558347507002
-0.03234947938109547
0.041080072499167286
0.015664291906927447
-0.013998694905577418
-0.032612306469168635
-0.01438103658935398
-0.04134301105246172
-0.02521923986771422
-0.006440827859210793
-0.07567854630199189
-0.013189355752858276
-0.008525754219923508
-0.0415546026356524
-0.0021395152594356963
0.05438252849280048
0.012175791473955967
0.04662809967981713
0.002154020668335363
-0.011169329859874174
-0.0015114454706061612
0.015426963646963207
6.088842090298253e-05
-0.002623587435932198
-0.02950996814326739
0.011536900130073554
0.03947693192060034
-0.00304721350876366
0.006665022190918847
-0.04629626026821754
0.0708063023758792
0.13367323086469532
-0.07581621592895381
-0.06827387577567935
0.08084407558723605
-0.025360497306478047
0.007373680637284952
-0.040023049637894305
-0.06300278314196282
0.002212545784192856
0.008802137331949459
0.0064011033284259
0.025564466072371457
0.007605213959426237
0.019163095663039375
0.002989697904244902
0.02403817883710844
0.041948262303460875
0.0022010709560967025
-0.007817416445331897
-0.01673318328034471
-0.03598282547932164
-0.02405575525072619
-0.022525942766700353
-0.0369300156606281
-0.07860540246602551
0.01125722280625904
-0.001452293948620431
0.017392355331510075
-0.026322660874716106
0.013984891190046792
0.018265272861684508
0.004563545263692099
0.01993081351473873
-0.006102289129112599
0.02066688592044529
0.14516708255362473
-0.008340121543070197
-0.004570158734026206
-0.020206102223971904
0.03972334026806513
0.007312105988764146
0.02228011351738167
0.18661752739526175
-0.03739384559102491
-0.025010430593528237
-0.024681991693160384
0.004619162298581403
0.08293581357736629
0.032967193826917915
-0.049135607676937434
-0.1258312687538863
0.03523355880537732
-0.016965158709888812
-0.021165280778474103
-0.0005345204889251856
-0.005564396031518218
0.009600821207899657
0.015954880287481724
-0.015256472990371136
0.0022126027019824853
-0.038967786870380945
-0.050417830326388614
-0.03990128458468445
-0.1215083459561344
-0.02097066160133675
0.01678007688537609
0.026769151447559137
-0.04392843538885223
-0.015257944943974025
-0.030486582524048567
-0.021708057629128266
-0.029163907162937663
-0.0029423371270788277
-0.010858995281161419
0.010984142958525695
0.013061070930863838
0.029128016085641962
0.001054254392147401
-0.0377173791758439
-0.04493740323107803
0.0672947872150571
-0.007671028660941688
-0.03790833681276349
-0.01041763573778215
-0.008516507769865029
-0.013136073192674826
-0.01654053157747957
0.15609387965958268
0.09959466861847659
0.0013097632984366782
0.018443763580677824
-0.039534347729653245
0.057030525279697264
-0.018352131753950608
0.11507474065763716
0.10297898002572527
-0.011411099482170131
0.01044854521219994
-0.02572572989273851
-0.0007155666938760827
-0.014260388866242146
-0.02582596684155328
-0.002187936353048935
-0.0018028340202828124
0.0004625791720946338
-0.03179612732329158
-0.036416884210556937
-0.02559285227802756
0.03657967223983624
0.04482320008216388
0.002908809887237993
0.024132659863941718
-0.03405285682731038
0.02021829470201156
-0.017715178352216168
-0.03040730202796064
-0.04311424951404041
-0.029066019091957402
-0.043347207347994784
0.010503095590387953
0.006789039952291663
-0.02891911294051305
-0.020992914158772993
0.036417148043999384
0.017328336486630007
0.000889133702773453
-0.06997008699885997
-0.026134538598352634
0.0718991588305229
-0.0016022118957724645
0.007119866011718689
0.02727456685091292
-0.00783107348606617
0.004700596703673335
-0.027116876597303104
-0.017882383680296578
-0.02291702943843908
-0.0015677135529065626
0.009311745086658465
0.00250945056669532
-0.010145986411865048
0.009280212918855163
0.02910257779517348
-0.033686288548446075
0.0022547938620600875
0.020277293210614448
0.04221120626768998
-0.021027693873657043
-0.00474263555033711
-0.01748961937588317
0.010418198245122301
0.24869503865736006
0.04404240789667304
-0.030074953761915674
0.0014237114624208326
-0.001745485721913148
-0.030157676675458205
-0.07007579471827813
-0.03948229300778342
0.0031044321350051705
0.0016321021926885854
-0.024809265537640256
-0.0004752491468907097
-0.08059691358668719
-0.022865126124019086
-0.008552840163603255
-0.018574040941229854
0.005299318884949639
0.04961038262651771
-0.016234933791801617
-0.013995735225040168
0.03686434570386962
0.041113709398906254
-0.006952979370423504
-0.05783909206296693
0.0029391480886111474
0.02084573919023274
0.015915114128751236
-0.0004593565525947156
-0.006424655342361438
0.0210590622480022
0.02278282557721535
-0.022332595777183252
-0.004771831980393853
-0.07336379374789541
-0.024353032858017754
-0.0076293336946807655
-0.007956839016784737
0.012265253841220911
0.021688616103548147
-0.0019713194739627614
-0.004345991242730593
-0.002222888171470927
-0.028983221287401394
-0.0015284967491582416
-0.03889149604220349
-0.02594783927378047
0.0075368064541406305
0.02967225648735666
-0.004147612814852787
0.012582611891695612
0.01946050781015164
0.005619902261969427
0.0025379111644593193
0.004949786994870535
0.029635494746781524
0.01758851528218196
0.01633659193262315
-0.019091874072723405
0.04972717138943292
0.03841061990835527
0.008075133106172902
0.0025046978897564237
-0.018100353851540227
-0.015437265804828272
-0.017387949718190902
-0.02673321289121777
0.033464572833395136
-0.0011430947490993217
0.016027073176184386
0.03867018108610816
-0.03541578254174739
-0.008966300046872688
0.05061187105208932
-0.01820331762276102
0.023079359428500538
-0.009190294865415508
-0.02072493488452185
-0.060801957774102536
-0.009776135190960126
0.022831156718511502
-0.015777952587649437
0.01815051431753864
0.013667496484217355
-0.03786037035423205
0.010353919536698649
-0.011383001796823122
-0.01671338638830693
-0.038268533859651
0.008777986621449605
-0.036700015004186876
-0.03881854622869311
-0.005969556020568308
0.068533564374689
0.08352854773490369
-0.021834494843818622
0.012917619262456647
-0.0012130196618966153
0.003308680363295481
0.012107000020480369
0.031475305292311746
-0.007803017845510819
-0.01806906128226965
0.008358026743788405
0.027076112893080033
-0.0025872441097938856
-0.033855144681217045
-0.02781901613538325
0.013852961500567742
0.01656331360195314
0.04280785200125214
0.00914382696186016
-0.007065954582029829
0.009217622942038452
-0.007177263021451145
-0.0008356444987302403
-0.02497139471248773
0.008316303312058489
0.02223759139882645
0.03317374246027159
0.02245895204557905
-0.03380312407873431
-0.02175939098961814
-0.0010778616846921318
0.009516504644962794
-0.0287581719312043
-0.0038599571931013854
-0.02736473319295578
-0.02856222533841752
0.028825073675487378
0.0018397890848479157
-0.013231305017549195
-0.0194246368218255
0.00486508357742943
0.03003118152561567
0.027506247447009823
-0.019279885017709438
-0.0007339202092415887
-0.011248963851788783
-0.003476676139326291
-0.0008122358358974507
-0.009201764893241789
0.013732836419439735
-0.12778724242344117
-0.03752099483293759
0.0018028368442837242
0.029352242188882605
-0.008623750255088172
0.034951230070419496
0.0022106811144284384
-0.01965054341512478
0.03682091511877547
-0.002723659365907361
-0.05372177579077158
0.04804809328314206
0.053678904962945126
0.005708874827414575
-0.0070566266832890485
-0.027757832357333326
-0.006665144208437359
0.05365047817008466
-0.02782274708136728
0.017228992870904392
0.021325734113477938
-0.00044231175331420515
0.0015802865679751844
0.00044326084051825445
0.02431675328111997
0.022476124425418315
-0.009578023597616461
-0.021364319758932826
0.00195834939711969
0.018280089757360483
0.0016908153116193673
0.011041765204473634
-0.013847333540822475
-0.02251237358341245
-0.02601457826826867
0.019776064886488136
-0.06129206004599748
-0.04776518934343221
-0.01656510545695622
0.018583050323629988
0.04836554495489367
0.015253868500439853
0.024853869501427612
0.056745074879606644
-0.010020956177533413
-0.012281606755641246
0.03295220599778532
0.013317136542497096
-0.007814961089251782
-0.0010108390758899691
0.014797261323720674
-0.006985319102035402
-0.017519274651599304
0.02004824591719243
-0.011500481082326396
0.02381605011425573
-0.00882156541654491
0.02287249322699129
-0.024404148463848144
-0.0815969793769758
0.01798215189028173
0.0016595177708100598
-0.007375766465517705
-0.0075828742048538785
-0.05709549373565767
-0.01956165300103141
0.05228451723631475
0.025279444981445624
-0.020963930728109658
-0.021312025147334424
-0.028287730135609618
-0.001395411929324471
0.12236006228232096
0.020829164584896594
-0.02198001035374235
-0.018244859916668188
-0.04884714842230185
-0.06746265931974059
0.022916057836638946
0.02422660222320983
0.0010185626924431924
0.021541505748610267
-0.0288247847940889
0.00417543655115775
0.0258407950300542
0.02654285105768921
0.02957162251743481
-0.004484264178005329
0.013418342966910607
-0.010081113390388509
-0.02390123136424793
-0.03505306917179747
-0.014198373143783381
0.01113209119866685
-0.026657925692880214
-0.009630135657706002
-0.014109829896097083
-0.026626981902772746
-0.023549926720338545
0.006100304301490553
0.01929298896096211
-0.005308088106039605
-0.005535245195445319
-0.01174687239291941
-0.009587113961814282
0.02217757647553639
0.03650055455908698
-0.00460320688980043
0.0165699791261394
0.03926633071307372
0.035884167920820144
-0.02703832950028536
0.005685379237975084
0.019125424311981814
0.0617913772526071
0.022651578011409986
-0.0156374726094086
-0.021046791936522157
-0.011381760010564597
-0.009851909127910695
-0.03066118620879027
0.0009691619476925511
-0.005696272081296071
-0.009385576230249073
0.00787609750486841
-0.008652390142751288
-0.010635475156510298
0.01029871196741533
-0.006253344375167341
-0.0679661257142424
-0.009257033144675606
0.027571259903253154
0.006494079674210351
-0.02855206450419662
0.10841450229696875
0.02833318672512334
-0.09810269369360798
0.0211573377129513
-0.023680987451279216
-0.008586814741386844
-0.008662435924118354
0.008634957443303998
-0.007246986497136104
0.029674265536712957
-0.002146080100585397
0.009917160062410214
-0.0319952815403348
0.032074480549027715
0.009990648705942571
0.014370679306295675
-0.0024112143557745154
-0.0023953789950235957
0.010767539450061953
-0.00041634838539011775
-0.04140891417205571
0.0026723316462255228
0.02009731971874385
-0.04517196601860267
-0.007234360221775357
0.1809482934060121
0.09262700298188763
-0.021966805794595628
-0.11194421711751432
-0.0540106975490566
-0.03315755035883462
-0.034096576160618106
-0.005543834293180864
0.04087799714413964
0.025312300270718468
0.021150203867227917
-0.011606201183903202
0.024619718322297434
0.028109361339754696
-0.034382555714192464
-0.0243604437878793
-0.01122071462457406
0.019013575231675083
0.009575708203047276
0.00946105968925879
0.034970928335803404
-0.022965813222692418
-0.01215796480941745
0.026983622441182336
0.03229818198068058
0.07344193960388135
0.014132970013656961
-0.04282873117257679
-0.013576241076020297
0.013632580058121756
0.02674470258115072
0.005418313279598375
-0.0002052937023906891
0.004328695753824342
0.025720217448976776
-0.013241036726511075
0.005478754054229006
-0.004382995658128651
0.0037420211382612075
-0.10761653134689038
-0.05150949190238278
0.01781497874456638
0.014002909966786126
0.06445262531833189
-0.0011785900172920547
0.013917369721808504
-0.18286034188192982
-0.18715924054831856
0.030526748589690744
-0.025027471508368742
0.016858720586394666
0.0063098951681150395
-0.015392608036774395
-0.007393872104263984
0.019773268132530216
0.004859417546292204
-0.014245800950958926
0.04986651859468956
-0.05055334756401952
0.02556129882771056
0.0717899135626389
-0.02132973581626148
-0.005303603707098086
-0.014073594785365032
0.046924147257469656
0.041969957137932695
0.021360736970768606
-0.017275646316513387
0.02974341291504625
-0.003497631273690045
-0.006546248645678029
-0.005400599203527628
-0.0065963136903834175
-0.05972927665417812
-0.04073722973091483
0.020699707119459322
0.04279072947896858
-0.026427663146372633
