0
-0.05013477787075228
-0.012381412477517879
0.0013887345413304295
-0.001371832638987217
0.005517128433392424
0.00695631474495045
-0.08745622445672906
-0.010427467189573164
-0.020704770669205567
0.013742957170840812
0.0021700105373001558
-0.06968977292311541
-0.04998079309483835
-0.010151047362586211
-0.030861274911546055
-0.0010421995509668526
-0.016454922871210594
-0.01102235040353836
-0.021959146053866667
0.032867720241009715
0.13306241033309998
0.05736936219883139
0.019464443817139934
-0.03836146618293521
0.012648605475032501
0.01377857321984706
0.010475235544090054
-0.008445642048396432
-0.018982519670252232
0.021468263037679763
0.0002947552315826313
0.03685136141718239
0.013685325529243451
-0.025784872775651075
-0.03659141036719332
0.0006287660995603054
0.00683162809728941
0.046598342595621796
0.0762260023214922
-0.004658791145258093
-0.018819514185033054
0.013537043593819839
0.005830616559250272
-0.020341105434138137
-0.005763403352047072
0.00011281531594464266
-0.0015353625288473081
-0.014551159906111931
0.03238750415784298
-0.005630735327629107
0.011595442616800355
0.005415780878633445
0.0011606668536438478
-0.009089179940302661
0.024389355653901587
-0.03321198026996445
-0.005519981896272447
0.015057720040873508
0.01478400752401871
-0.037790604907477675
0.010462852036710449
0.0041778068054836625
-0.006257685430218553
-0.01958201045049697
0.011487710980570078
-0.02812879367574866
-0.017342142151018345
-0.1182398087119837
-0.013952276151875843
0.07279636694961363
0.008199905911389156
0.027706080357862817
0.02738153487245474
0.0071211300941935824
0.0005472817353245253
-0.021213530300130946
-0.06186303998654156
-0.025045582652376
0.017766000147574592
0.08977797953046922
0.014465132356914493
-0.014563109262514761
0.00048621361995175984
0.027507408534214774
-0.013605053787438913
-0.02673817145419771
0.03613827589912696
-0.08756558910081672
-0.043142529887560545
0.03064166708392355
0.0016196211574726039
0.02887098950981135
0.021957821628814638
-0.005475196381092318
0.0023524921338451497
-0.00525088307836244
0.025360503866063734
0.005138709447830127
0.018016896676522922
0.0009936531422961518
-0.013926000465964808
0.030191032227762087
0.019766484067400666
-0.038259344221217635
-0.04740644393658874
-0.08874426802579224
0.003996398372885504
-0.005740373372270183
0.0329839045692194
0.11335227408057776
-0.016764983801302872
-0.026522071284107863
-0.01105309924654134
-0.01668817201385698
-0.006445728147378308
0.0015766465680283918
0.0016167277955442976
0.013728563270024825
0.00867820490361706
-0.020289485792570783
0.0014411260022123397
0.006605368625206106
0.00786485914386939
0.008330523929729832
0.02473020916189796
-0.01651764265831641
0.0952651117910746
-0.10854293371696468
-0.11865652013028427
0.047416655473432635
0.02124692464499805
-0.047670223036762355
0.057132488957715624
-0.0026074200093562845
-0.05718925085787336
-0.0033004461174541387
-0.017889302071196083
-0.02104057406589721
0.10458068824310333
0.09040347790177555
0.028012535371628927
0.022997917930213035
-0.038930182082172145
-0.02566031780627984
0.003545501528014247
-0.001933062061654307
-0.021502989839124062
-0.019445058191249073
-0.03142964760183355
0.012261985228393668
0.020125558554038726
0.012600640875557697
0.020410504900036472
-0.015467103657146188
-0.01131567216677997
-0.0010266967137473636
0.030256550234088745
0.05016815408770488
-0.02646342387903503
0.0049075452418532286
0.012567564325523986
-0.03169298150533196
0.015294102707874133
-0.02921607324887491
0.018128175932090415
0.027757032264448585
0.0027930867173706964
-0.018561816817480526
0.037866652139193685
-0.01582623246887327
0.022172199558687603
-0.07762372813499765
-0.12855410030462197
0.06205999218575911
0.03310077004651672
0.038366928395078194
-0.005492434280565729
0.022867876445920553
0.00517550796860123
0.06351297171199201
0.0038221893979798285
-0.05928033404022982
-0.010353167007122317
0.02235090894522035
0.02410198468948486
-0.005121211908256577
-0.04380173671876881
0.040609089509893614
0.012130291260424473
-0.02124134983027538
-0.03869551155277409
-0.0009626154529219324
-0.01788835109433798
-0.03141334722564246
-0.018344595847211535
-0.04917432381384521
-0.06169746501368644
-0.03941626617751558
0.03926707903139563
-0.029156647423579977
0.015269248601064225
0.015470236610053855
0.025440469269307323
0.009955162254374907
-0.03205501715600994
-0.06210985105728769
-0.05592867610299025
0.005550863127265955
2.922578561806609e-05
-0.011665254170492974
0.04984516629644233
0.04454723226289401
0.1518162691047025
0.08771914213308488
-0.04919093083454647
-0.01754181309786864
-0.01149255837578614
0.004803305978592017
-0.025398747641161665
0.017845068311932003
0.010166021595160585
-0.04454473492334968
-0.013196835516394717
0.041817951108799344
0.02283888062100131
0.04830541730958056
-0.005118403904050339
0.06417013027234032
-0.003110407604958078
-0.029439053989878016
-0.0437930575012054
0.001663029077033802
-0.02552473472472738
-0.010984491692488857
-0.012962733633864932
0.07319818444743229
0.0954914459493218
0.00583279315193
0.030068530084704857
-0.014393497065814801
-0.026932969487734413
-0.002256486519639152
-0.033203840080178196
-0.02051644224779169
0.0019036315714396378
0.02733212231603223
-0.006273874341642419
-0.035925101488551096
0.011736603435471936
0.022683242177054655
-0.02320323080805658
0.04025860857710518
0.1235463138164488
-0.06461285212874435
-0.16049148576496405
-0.011327221954819144
0.011394227339760777
0.058289781104470605
0.027145864108880646
-0.16604475044248884
-0.04060535055371146
0.05068523678780919
-0.031295065692944046
0.03216389591856957
0.016886289453018132
0.0008087545386212903
0.03413883123972015
-0.0001001226114641647
-0.02047820554649573
-0.008963681449883609
-0.02489890561491929
-0.06490667532922577
0.02670570362618763
0.018232653143641937
-0.0044687943141712635
0.021849314703968413
0.006784585237108785
-0.04060512832578005
-0.057299685889027924
0.026581188596895185
0.014124095574989679
0.01767784930484329
-0.026908020557439915
-0.07072120982544643
-0.042707227371108915
0.014747896005573963
0.05227223882168212
-0.03167210426409727
-0.023176068865791693
0.011709871552769702
0.08245011069163383
0.04581486559485312
-0.05519496995639907
-0.005065041103699089
-0.023627694489949825
-0.005863136696675601
0.01912603040821048
0.006159704495877775
0.0007342088019642373
-0.01624584406059886
-0.009625835524725011
0.038234885395128336
-0.03764513141650843
0.12374598204573416
0.1132500601623371
-0.015064611071745978
0.11491527420241116
-0.03304834162618801
0.009866252604052878
-0.019548952488433934
-0.04926698281203188
0.0025633824512281797
0.024039362632899408
-0.020541931613724522
-0.013013229979778891
0.002570737968826439
-0.0020330589710174014
-0.04608983336851362
0.00549786395236295
0.022003888610297305
-0.007008219797920937
0.015172104813101965
-0.0017741343685963756
-0.03233508777141572
-0.02056458592641635
0.006631677204264266
0.03550978763754653
-0.013335177280778432
-0.08694974105430836
-0.02538441097281894
0.13150519289349927
0.010990732247022707
-0.028980151087942642
0.016945162399175914
-0.005568791884732347
-0.021532908130044034
-0.02966323585125599
-0.00458807415752341
0.026627642287688394
0.00397488455181071
0.0013103660722451108
-0.021539901769368274
-0.05656094821410443
0.0006585249718507445
0.017877762828199164
-0.038000184533969895
-0.03752853798315825
-0.04312230369257774
0.01310960838735832
-0.0023518965989089693
-0.004566904086319288
-0.004443738212200917
0.0609929474170507
0.07400405327442545
0.03959789463547445
0.02831124973298753
-0.01744920200858053
-0.016558897887690053
0.041498490247673346
-0.0015878841937106629
0.012676176744450087
0.005067356288901075
0.022916752168764463
-0.006197404511850259
0.01171126348923851
0.025836853562816994
0.012638847786108187
-0.018147676224584294
0.015516610791737405
-0.017597103204484498
-0.0022522395237390995
-0.009384311875551712
0.02313984050396928
-0.014363544363534606
0.008421832526595056
-0.1702896881573955
-0.055817139116482485
0.022821689054017474
0.0039047771591112714
-0.003986117372729263
-0.019457531277109006
-0.009213720032346827
0.042178680350047265
0.05180031821813252
0.01442316167123531
0.008174914767845971
0.05466513013748366
-0.10152187363509621
-0.11009926896878698
0.04881935191150774
-0.00580617854850097
-0.007273790714897405
-0.005154437785300894
0.015134188497558652
-0.0050303832940319405
-0.008448111485335965
0.012930148843942566
-0.028523505137697223
-0.03514682241468182
0.047468213220637843
0.01816610484773041
-0.024330315141254413
-0.012117751887571014
0.007551829485201983
-0.018835796910914058
0.008198158085426666
0.03038514046965496
0.017575827693238354
0.023020375456232728
-0.005840500956486472
-0.0003917458512718711
0.00710749280268839
-0.026736024566267752
0.02303433206701977
-0.009340610749919325
-0.001839406619204097
0.03902552006943879
0.020274390326361694
-0.001207935766237195
0.03587676651941843
0.013859559362696885
0.01630358475183188
-0.015488698479921965
-0.021027080811450206
-0.015927013500943762
0.04751925890810637
0.027793504468594046
0.010654903440623392
0.012699591839056758
-0.011917150040941198
0.0013497995415356241
0.015041065022950063
-0.029408853410768605
0.027784104758691246
0.017784479562302353
-0.05900776224776855
-0.03424263133219459
0.002276017400334027
-0.0012714046790346276
0.020325468769856043
0.009620047607122316
0.0012030002724702682
0.014906790823446404
-0.015573804385794567
0.005335615669174328
0.023878393698672003
-0.012897879432693871
0.015213266177597438
0.007577501575985723
-0.02332919395117989
-0.012677856864475704
-0.04698905633931432
-0.07696605026469412
0.006688698126337627
-0.0012391475052306534
-0.030100344376632223
-0.07847776108133225
0.012146880206777804
0.0026932637563428403
-0.0015157565833218889
0.009403693611471186
-0.012534973515545363
0.0043410049686747965
0.04330443247799565
0.023560579112705347
0.054205304187167035
0.02772168857071811
0.06544091817093395
0.03845253409062493
0.0003799855237651179
-0.05709162856791919
0.0474265676359163
0.01639184060133682
0.009310985881805673
-0.03610392420455714
-0.07147486236589955
-0.03465841018419452
-0.004508066337941828
0.00788959870827187
0.010141619228619126
-0.002442481393494263
-0.01594487779508581
-0.012336389778713784
0.011258522697639035
-0.019761672128717014
0.03863245160854604
-0.008849033727904335
-0.013670727072792637
-0.026865282334107066
0.00269318928296804
-0.014304253925886946
-0.017204769909131515
-0.02410747990838037
-0.08643014546140404
0.05976514104609415
0.20786686660465087
0.006083014892140916
-0.031031065739141106
-0.02499195144756198
0.008784549166795746
-0.009214784851903825
0.005802954782266536
-0.006925607706276067
-0.007737993221343238
0.012297244618158554
-0.04484401747210067
-0.0003518069471293519
0.007120581183808625
-0.04908665806131246
-0.0002050242374918576
0.0037602448866963516
-0.02304972185772443
-0.00912988758761785
-0.019516639486039284
0.02892724331260713
0.010576103406874475
0.010107098868344587
0.023857877033859446
0.056811841999878286
-0.0022574258450723064
0.018739588498213094
-0.0386220150756642
0.03456183154560953
-0.036745357423912994
0.008348257467361588
-0.012879053846266128
-0.031263876213867524
0.01410915365526976
0.0047432250508960645
-0.01917878594568291
0.004223911677567658
0.0007320262259900354
-0.04154859899497518
-0.004298041593286981
-0.02569563913681797
0.038266295862510506
0.02214090005844274
0.10604416117901766
0.024700816342208238
-0.031219608829941903
0.02918626254272875
0.0039798519072137386
0.03732891748047666
0.02214822090075816
-0.01278225943460518
-0.018772413435177375
0.008359342536436307
0.031213479416351934
-0.023623510535197255
0.018838985349773164
0.013614114415745686
-0.020597781655516453
-0.018502596568444173
-0.0017872283826561334
-0.04530921203345577
-0.007030934618122733
0.023791409106977378
-0.08650603990012053
-0.007869740797924792
0.013515352777159748
-0.0322140726619033
0.0035481596964335687
0.015518790321619055
0.03755677024858102
-0.025721634373370786
-0.04129865780167885
-0.008623547693407231
0.015235775273967246
0.017896504476982152
-0.013218461151576452
7.935089239386138e-05
0.042559181355297376
-0.02292820228394282
0.010592404775892926
-0.004851744314671869
-0.02105580545679854
0.0226737063570652
-0.006020730467416054
0.0021602580678147594
0.011984176649864328
-0.008775912272593915
-0.015021377616356623
-0.024048833915022667
0.02398872484095925
-0.013331814824913319
-0.013602142357775848
-0.008847785147454582
0.004534017762215341
0.0015727837486842514
0.0017696254187590365
0.002941650014754617
-0.0031298106688454294
0.04277469023492388
0.007421837073442061
0.029263095732243633
-0.025969599179614833
0.0033449925827729373
-0.023716403813816917
-0.008400955900496379
0.0096262017664928
-0.04736275112234319
-0.04933632046359634
0.007603191349221913
-0.01097339690488923
-0.021781941900152542
-0.06521991216504647
-0.01046745200495814
-0.06539086292968753
-0.0971080902867773
-0.002080039314489026
-0.013837984400499067
-0.015427710275324675
-0.025327648738937
0.17939445216797953
0.052509163665802404
0.01851238020410606
0.03846303477804546
0.03039364161558638
0.1363285602929557
0.0852876354891253
-0.06767363406226921
-0.018526628747994975
-0.0677500674377202
-0.012493128331958026
-0.01731711628282457
0.032453294806184474
-0.051638962909900506
0.019277944663880688
-0.05769407022565402
0.09193629470547955
0.16551310806690908
0.0002482146188476195
-0.0038080036742659975
-0.01715794356746992
-0.0010297601100444874
-0.005872050311692517
-0.0056772717197068985
-0.016854331191825275
-0.003735535924001792
-0.031725678279228085
-0.0167359664192276
0.06523773835814763
0.016702302206512167
-0.014675901887194526
0.016170239847640957
-0.01876155616238191
0.0038618521099974394
0.05390472220157386
0.053551264626713446
-0.04539976308873912
-0.01144372410344499
-0.01990964631743309
0.016555466115624418
-0.016826922504309668
-0.0030444819837294095
-0.025643681238327956
-0.024482366260712644
0.016486564337616347
0.04699501741609408
0.012611944809639902
0.023498940413265078
0.04173557615095728
-0.013592264593169815
-0.1460091012238828
0.00016445357021886624
-0.0272978241312193
-0.02200299869103794
-0.021160482138987143
0.06901999585123049
0.060563454745940895
-0.010077002853736762
0.07278395092153776
0.010134269204066721
0.009386151119608584
-0.08929959956114662
-0.04628318477224786
-0.0035999888708866503
0.018741394738183894
0.011391907784457634
0.019180154443899387
0.02790685960594669
-0.04273010243083718
0.016576661132642386
-0.007853535683848892
0.0006055908361610367
-0.08611826458897362
-0.20653312887153227
-0.06109966146681884
0.0027148296030682522
0.026499959582212195
0.18034257409484258
-0.032423245045997695
-0.050953252689185075
0.02296228071952772
0.00416872525533183
-0.19419080240047135
-0.038138800418228876
0.02936378860385888
-0.027298959809113264
0.004669887560458133
0.06359190259216513
0.031057214573276412
-0.004151421405349495
-0.03515245031465944
-0.0023459005519831694
0.019837838963305453
0.0033448808894668337
0.05396681468428417
-0.006211423155303941
-0.01735214812492139
-0.0024303496206905
0.021580711419629656
0.04834934260132519
0.038656157158083244
0.0898510950773227
0.03101596827350727
0.0012486208489125737
-0.03248874719954423
-0.009266869880517989
0.004639859830681675
0.025273442052130182
0.022425661653946227
-0.00010782594046655669
-0.013711362736160916
-0.006663314941538529
0.01722935940371278
0.0719208177982598
-0.00021502186534344054
-0.0490765767797051
-0.02804898926363152
0.003060999190713719
-0.007113572803169059
-0.04313814843449477
-0.01154640445320481
0.05935411798621391
-0.03847137352509367
-0.0012365107091092844
0.008651287185478413
-0.017769026373231706
-0.03935528199538535
0.011827139726074043
-0.00591091768099484
0.09738653162211192
0.10339444413625284
-0.04985814120570263
0.00599411210798722
-0.004257697864733392
0.0381624075984437
0.035574085675636
-0.003910351219809102
0.031805966783506875
-0.0026428035437292396
-0.007032835535175003
-0.030846783809975603
0.007296941002638971
-0.006083097248630724
0.03959528598916775
0.02235133877638555
-0.05150315246968241
-0.10568063380415949
-0.06263097307190194
-0.0034357998082656708
0.018270607080179167
0.03382381281863801
-0.03635775785785112
-0.04787698720930429
0.03639981513566035
-0.011365920587412039
-0.0009882537341516751
-0.004762229310078066
0.017959554625001824
0.014532868374389177
-0.02451037748773051
0.023802017356071375
0.003304507522120981
0.028164591262308546
-0.009396024641446704
-0.048486643074084027
0.02029608756479464
-0.005326311524485011
-0.0009877345354510996
-0.03446595215153567
0.002813952594418403
-0.03624270005710016
-0.014798978472202377
0.03127394988447795
0.042249274405080764
0.03197362738420897
-0.004327758407885298
0.02242560872102115
0.02319094929693349
-0.13524245815892738
-0.1609575477501312
0.07314040716656856
0.008191643020506206
0.004393424982409957
-0.005939940346674747
-0.0003126737754469846
-0.011443304748887398
-0.011689490920689289
0.003797877654959946
0.06978078194898427
0.06980083205061209
0.01571334909720595
0.0608883816615988
0.023036805143629484
0.011834536236980522
0.0036583086850906048
0.026661838919093343
0.0005333900306739003
0.0017503818252513517
-0.023145965665700884
-0.02001212107010605
0.0455789253143673
-0.027546405311904828
-0.005203695096371726
-0.01147760765153569
0.04542129298313224
0.0034074858095917205
-0.0002819502508206744
-0.012945117620837228
-0.009809246712709961
0.024557692875675188
0.01919911622376003
0.015886104264536217
-0.011271882608121737
0.032017033857392053
-0.09530292774255306
-0.051479087789450456
0.018769695015520366
-0.07635243155681255
-0.0627239814058447
-0.04930043082128092
0.05265589655860681
0.07865547001112509
0.023839168708419085
-0.0008004657207128011
0.060279678434560315
-0.09380643337268141
-0.03459477824124875
0.0199224868733831
-0.01647318440930353
-0.00893440832915969
0.040539492550470055
-0.05870508389739138
-0.11425872010543378
-0.016686354476693484
-0.0296132346416755
0.05475704091735999
0.02201737654605904
-0.020191555872228834
-0.0013904370921365488
0.051000974310171865
0.03200523368064319
0.019647850402504958
0.03269570977518998
-0.05094284429125627
0.012342674557788001
0.030596369553346544
-0.004326169793038586
0.01778664874426535
-0.015426136703509997
-0.05660479721866867
0.012467584509961738
-0.044066594795407275
-0.06147284099715368
0.027399632911444927
0.099904270906521
-0.04315982557340447
0.039951091545165386
0.008942774427564106
0.11209893453225507
0.03445527045555631
-0.04323599261135455
0.004632379630307735
-0.024461653065351394
0.007692382360874663
-0.008055702226365768
-0.02000625301601318
0.015568593565504182
0.016968512637770702
0.005828775533113843
0.04848855697544888
0.04078115666356247
-0.028042024643371015
-0.14066668898338477
0.014302163844914638
0.020985427425644246
-0.007201216476751154
0.05312547889827669
0.07247583179837613
0.017165387892746502
-0.0034905112440676202
0.000567510847742631
-0.0033788887321795106
-0.002260204125480922
0.0023696053680158746
0.021050341888903683
0.014656382444574373
0.011803920412687498
0.012755305648011073
-0.013906035464074304
-0.02542465562537212
0.01486308846284341
0.006696222148593574
-0.003241228132814487
-0.012351948675801437
-0.01643229737353664
0.02418787214056953
-0.011444633612849349
-0.010905831060528623
-0.011464850578053257
0.004162603389500444
-0.013731558947744337
-0.058219624294239235
-0.0032370930152588622
0.004536762839913901
0.03293572469227739
-0.03328650499196754
-0.01246823682993039
-0.05512171398634895
-0.094219944542058
-0.04452998877037172
-0.023025575305292707
0.011125666461100478
0.0116535273259524
-0.02837934470578696
-0.00851269982624407
0.0012180607120752763
-5.2628014077761856e-05
0.0030786842938745444
0.008458380511767153
-0.009831956440480634
0.03524570626895151
0.010314768525718072
0.00970237298444853
0.0082915568716903
0.001504059828306369
0.012505506482447656
-0.008868403949962692
-0.02323766131149961
-0.002793306910150326
0.014405582569515348
0.031105376498299007
0.10020141224671801
0.0808024979527942
0.024078679042382013
0.05690630244966707
-0.04007987840388534
-0.004108048816644425
-0.06745903415938072
-0.03402651015836841
-0.0025566026518471004
-0.01979678096342818
-0.02820783603387982
0.03523251277529549
0.038333103878994045
0.015374736927693413
0.12322750897945128
-0.08806367910169083
-0.06611483300995648
-0.024198891085967813
0.014019924674341029
0.02563987383000797
0.0303653998430074
-0.02179310805403893
0.03435367244442437
-0.035698805041072375
0.10099060445423164
-0.045761351530058676
-0.08537877979923483
0.025506687536826278
-0.03587124223310449
-0.011524292931110498
0.016469689240326015
0.031453451096770814
0.05158711233996658
0.014157218510512002
-0.01752764734713061
0.0380224524431687
-0.01671985418425174
0.030415080921792004
-0.024815060748148546
0.027992949819617658
0.027034410472026732
0.03316521731353745
-0.11592286189383473
-0.06080909134558845
0.025328487897441205
-0.011545638671200762
-0.09740171627301623
-0.05927055309822735
0.03784920536508449
-0.00991922597030513
0.00810147843075722
-0.04631476685605317
0.030923730723428484
-0.036501412264093196
0.03748848764092353
0.0019117232994057373
0.04935501198687646
0.01871388188875121
0.03380615684888808
0.022290147180628214
-0.0303643987960508
-0.008808520914625449
-0.0024336645477165747
-0.0030359944262682184
-0.007128374205566657
-0.015767946015368784
-0.002526458451032109
-0.028480756234620336
-0.003911628988548999
0.011811558587516398
-0.013874572329479548
-0.09608597705690582
-0.0008820229039133694
-0.01749189772552388
0.028942404285220866
0.04887703889315666
0.012343963231237053
-0.009991261733336122
0.0333167144901295
-0.03296683937658031
-0.03544469567334938
0.030128474797127474
0.10243283651721063
-0.018033165059144055
0.010859131394037966
0.02404398548958859
-0.023197740582307946
-0.0036059545901380792
-0.0246324766556889
0.021838840872789412
-0.01988386883601079
0.03332247088383278
0.05686774536383604
-0.01673541830956914
-0.004583509300512407
0.011626945135455907
0.05453782371578015
-0.012380890567097383
-0.01015242029075761
0.052841767006311345
0.020611880726938328
-0.07346535923714327
0.004713916523461363
0.014817852615408553
0.05081609457850435
-0.009637237622888394
-0.02084869671831632
-0.010487304078253793
0.04980541761326237
-0.03285633870084122
0.010295621793384321
0.0033753760570949362
0.03756486732295333
-0.010114919944887958
-0.025902294217827162
-0.005146552256081652
0.029428669322442834
-0.06844183026678784
-0.12535992216188974
0.009464232226905511
-0.020327365733942598
0.02969792794630571
0.019386260137218888
0.03609953389477894
-0.0418589647148109
-0.010155965822305432
0.012525797015853234
0.048243970994532565
0.028581338451963312
0.008917535820655376
0.009785684328690189
0.0015307692441238836
-0.033776562793461126
-0.024822100398014794
-0.12076743045131674
-0.07058042333264959
0.009766082974345263
0.006784305707947908
0.07191139116365067
0.04179336517183595
-0.021948352367101666
-0.0023923977759680286
-0.0007546902369767223
0.017688953835754657
0.021786679944707628
0.0912605356061885
0.009807053567033664
0.021194373638613637
0.013095440591705929
0.040188940239622155
-0.05453381908617622
-0.20995721732167838
-0.0036837695034266206
0.018270500629608104
0.02645230908295128
0.017491506082604028
0.058997651764150935
-0.014519497857190694
0.008956327473203369
-0.12119035230160918
-0.06557810985661851
0.024947158613352574
-0.00786250566762524
0.006560675112332617
0.0009936121066334098
0.048077384759134645
-0.014009906780788953
-0.011474400772618378
0.03242195610073753
0.0007563285087741773
-0.003843422484813029
-0.003451354923078769
0.02093267030744719
-0.021879139229471482
-0.028806430721490795
0.004342888625831264
0.007603131672668513
0.024847592883303057
-0.012337203905265524
0.015029128192437947
0.0020927783957433704
-0.032799096367116275
0.03361364473426404
-0.012044980433783953
0.11197557537369153
0.09036726700082175
-0.020180425147041756
0.04189213785391127
-0.01545410679147633
0.050860554131626594
0.01855491445603116
-0.001121511537933087
-0.08518903419490655
-0.01713976442429397
0.00421197615189819
0.015864584797822462
-0.02484347093663927
0.01432275857966409
-0.0021355688709586234
-0.03952148267035841
-0.04665806344609951
0.02226542848813836
-0.0026516649002978304
0.012899925008971391
-0.014566519749717106
0.1588818446994742
-0.11768258297767623
-0.0933382378034363
-0.00785875550786348
0.015527487454908175
0.09360794250803843
-0.032687888484583406
0.002804517202603492
0.008677400748112473
0.014819098138598769
0.006212739932726675
-0.007971160444998572
-0.022711419964917146
-0.05105555035977739
-0.04083216378945002
0.008650301090262475
-0.04124250564303798
0.004595555050397254
-0.005022732037957207
-0.003633171962600414
0.034625028377575355
0.007711502261507555
0.0012891837454860125
-0.001516778163812224
0.008831371725700954
0.04902811928306975
0.09363513677296384
0.005320154436566377
-0.000977222259119124
-0.01585320080519053
0.018571288522142165
0.004632701010546455
-0.020876323522822707
-0.011912423026207847
0.015508076553535447
0.023629655398340707
-0.014811234798862429
-0.020489599768636076
0.012626099279613098
-0.012039353102072482
0.017366241625867168
0.01568559680227679
0.05075701616472681
-0.06387042922769165
0.03458754838858291
0.016767677343982205
-0.011037490341703142
0.0010086163050199892
-0.1355530655460971
-0.16602654254139923
-0.024177208052793674
-0.022105873844631464
0.21551210267387833
0.04354415598189567
-0.0045323927752756185
-0.0708887379888498
-0.0762146882010496
0.014462085396447525
-0.013418778735793516
0.025697398343887515
-0.04109056292779654
-0.026813637244319052
0.05585360440808166
0.020666760484985263
-0.013056500479490273
0.01051640496341654
0.02155885018010496
0.03146856055769205
0.02770365372924971
0.009232534833225031
-0.03478996814359126
-0.0007570758019948711
0.05968411216722647
-0.013187482683690516
0.017681420357762927
-0.05076256345396612
-0.07216528938207242
0.05672290585568009
0.0341328415497139
0.023359863221035997
-0.05864368645448987
-0.0023491337760192933
-0.05725193015800767
0.14094260766144298
0.07258022568843511
-0.019481235802293877
-0.09504481756800721
-0.028626201692213252
0.014259851605935308
-0.005441448234371576
-0.03291417994871906
-0.015531396527714816
0.0343997904842413
-0.013213995888762816
0.024722014409463353
-0.001303001462476889
0.004180829873259319
-0.011046842635418382
-0.002102398232824277
-0.02743332856711056
-0.002925677128524038
0.011123000203727246
0.0037813177580191836
-0.01422371569748959
0.026053188517122454
0.022257318015600804
0.0013938266094606052
-0.02540242901051932
0.004845134414312012
-0.021945690369335257
0.012453314332380356
-0.014630976357823946
-0.020026860692359708
-0.022877635734724247
0.0337612077856539
0.013821551441143063
0.02491882089525743
-0.04404881360177432
-0.013517998145256038
0.06443522841170296
0.05101475348978191
-0.04112993037075092
-0.21972025545385093
0.0031983548821709886
-0.008995741248964944
0.018569223923763648
0.15306385876715184
0.05619414044351074
0.08226510812011917
-0.010377549304408281
-0.030804420016802583
-0.008074473389824624
0.03398832918365486
0.0027340909040557263
-0.0005550769517768659
0.052855490796800256
-0.010682395988151764
-0.07760262719773704
0.04632848888685847
-0.011396411023104252
-0.008490543424549643
0.030330365923580335
0.011316619165687053
-0.06047470033083779
-0.14138380978663218
0.0075410879345660575
0.0026159471962291223
0.040069904747914664
0.05519334904001837
-9.868550861990918e-05
0.01968835607147181
-0.034583597730552446
-0.013765799820777684
0.005985459722274465
0.002205930956691657
0.044048515809393826
0.021590038947132382
0.011455895911177811
0.0303323036066997
-0.010586016900224149
0.0038942986507699393
0.012431272149045129
0.013221632534448968
-0.011057885179722211
0.01465508489569853
-0.041989743270942105
-0.10465451906644835
-0.05256242788406652
-0.05020627073334138
0.023504574696005726
0.015247208783625264
0.06959196945354756
0.08429214867967794
0.022274981213331727
-0.0022289190649999904
0.0014923297674462163
0.008092911991319342
0.017987065981601408
-0.08452915110843102
-0.026175144330782947
-0.0748385338383772
-0.010912495071729079
-0.04912421145021266
-0.013083555064666325
-0.002639613649986232
0.03194042895733085
-0.0037761067421701
-0.002852375102789067
0.013906737459689743
0.030847378452797773
0.007004022872372559
-0.016983206283405126
0.025521665224416654
0.0034658015418070195
-0.0028508453874013474
-0.0005686895325012812
0.027061952972315048
0.0015227850555553962
-0.04881868473278538
-0.0021417487597575214
-0.00798343537583641
0.009502783786621161
-0.0649435845428174
-0.06119579679528074
-0.009515697823135005
0.11484861246455431
-0.01519982872974755
0.04147897765408915
0.1185272662096826
-0.021671489063105533
0.0033761309485579073
-0.005731783917727539
0.020211785705616717
-0.003145121408884072
-0.0010479362550158307
-0.019546932887597325
-0.04119579822401052
-0.09100315822774382
0.035798935818315114
0.16208317684662205
0.008137564967961529
-0.037998193825812515
-0.00617380477432735
-0.011984857801644948
-0.005740239817882116
-0.013655372933524803
0.0814890453708839
0.0339057681805541
-0.07490846049082865
-0.0007812815693727583
0.044665501066832675
-0.006805453092663454
-0.011673196783032202
-0.034452766183215564
-0.02222130706461307
0.015566100834491751
0.0063930544232026435
-0.023308614922922643
-0.019795932928151648
-0.019672231683767565
0.016820825186171416
0.03453508723159117
-0.02221519341216464
-0.004250299564690036
-0.023327285983564264
-0.00022030916551469718
0.0021937951559448743
-0.030659976608507722
0.015199759243970285
0.024827590034972834
0.0036729587568144796
0.01197907757304005
0.028097103038501124
-0.012031455498547762
-0.01893229879925836
0.00810175810560323
0.030961346675209
0.024517075114025552
0.038553146552489266
-0.010575658434273359
-0.0372778984050165
-0.021502118475353847
-0.008536185374318408
0.027474475992140538
0.005979897744362851
-0.030153684075513814
-0.009023361043140795
-0.040310945051057714
-0.03896928982701849
-0.05021565937708694
0.04796739067242093
0.014569719541528928
0.0208192177223314
-0.04897094393444206
0.015854477936207905
0.031392314529603844
-0.01786530073447449
-0.01702841504642922
-0.024454119285166828
-0.002342794772552213
0.00966059493816158
0.01071399684908854
-0.0518786765141672
-0.012891614847768794
-0.0016682562710910187
-0.02405984416181862
0.010305098205018516
0.04209705585050872
0.0215368586965364
0.004288854243339166
0.028079206615725483
-0.021319821883348168
-0.0396571989704617
0.049453923227407603
0.032553014617594765
-0.03516541116796212
-0.022516073981789668
0.07228012720968223
0.11352371583745818
0.03819290422592857
-0.011850165628693874
-0.054668854270144465
0.011339904743230662
-0.0022977455182293218
0.022025306025717527
-0.0024731035428362746
0.022972502885849715
0.0017834887183583652
0.00021379975925389535
-0.05270480629136002
0.026136370478028654
0.08950652679754241
-0.004153388207359451
0.01990644366754089
-0.0074401051781531604
0.00714102291098138
0.008403241988743468
0.012027092157352258
0.005571229079654268
0.01437857709111559
-0.04177080277335444
-0.19321295175282102
-0.007412139247035809
-0.01908489075080997
-0.11543841009302654
0.03143074346211732
0.040731564199824655
-0.01032303047927457
-0.004820670898196884
0.019057478472125834
0.006633625844917312
-0.012687902033841169
0.008111572353131655
-0.0025014976081229995
-0.0088492282726463
-0.028624663195172484
0.002836984951581784
0.042252279169551876
0.022070354277336186
-0.005040641762635855
-0.04429503895462705
0.0034798857832571434
-0.014714905800852458
-0.02671224650167282
0.002934533080156627
0.00563166163582518
-0.005325091787284509
-0.027265391347386557
0.027224395437476408
0.02366884891512551
-0.01093145680778534
