0
-0.1140535232020261
0.06394167474047835
0.036913479510046046
0.00025446247761587795
0.02961987588203586
0.013290689869313721
-0.016342596772076817
0.008915726878821391
0.017604842107169328
-0.022147635088494523
-0.015391051666479567
0.028989900373667023
0.015673876605227878
-0.005496468207177143
-0.015781474664358267
0.002424126126682977
-0.0027920825459392014
0.0026098335268047055
-0.016506897976487783
-0.010139879208889906
-0.027300187587081765
-0.02169975008151487
-0.00273213227527445
0.032622758072227545
0.005355173427120258
-0.012635656877788542
-0.026430958801905567
0.0009267443151250924
-0.0007268877825561651
0.058406134574023626
-0.06818158043097444
-0.04412321626397261
0.07961728010666627
0.01608197816662957
0.008327596781970752
0.0019168296933064117
0.0011355388227742306
-0.01242278200285944
-0.00690484047031407
0.027735569239613067
-0.017624975599738114
0.013083805794979649
-0.022094980283285964
-0.06556525532396476
-0.018783875849928508
0.037857317745458884
-0.01729990442496783
-0.09016933040488471
0.017931049938845825
0.00026627389416088344
0.008206280080690402
-0.03221268231506651
0.0010883421404271141
0.03532773920851237
0.004865219497327659
-0.03619243683375091
0.017447475627955625
0.016717997674970987
-0.01343456080572657
0.024441036962802167
0.008409008930070077
0.026662673800408633
-0.001238335500399492
-0.003775098646560078
-0.01585417500416772
-0.021079134222680134
-0.051099708943717716
-0.007509450260751321
0.0594054859690144
0.017200344266960762
-0.027248519058639706
0.00687735697444158
-0.03498755006757064
-0.008710157802842561
-0.03835511110882635
-0.024962544064337115
-0.016090458961183177
0.021179626173380237
-0.024172030864859476
0.10993026074789575
0.11638755290964538
-0.0473188019487182
-0.004974526295810228
-0.012000514709201705
-0.005344555078956107
-0.007503190636553625
0.009403921839304745
0.0016489027123385695
-0.005095968509916047
0.032408317296849336
-0.011510377177959046
0.062446183316195315
0.21031646696485784
-0.046278033441669114
0.01064585807638279
-0.011251376742661218
-0.030928559901923374
0.009544968680702398
0.0067936150360374545
0.01301571641783021
-0.004312378186731024
0.048132078942706755
-0.038408408312370884
0.027270542343956868
-0.06657459667326293
-0.026662851334518213
-0.04678933023741694
-0.2956460710221688
-0.03662181590769105
0.010528091651389123
0.07146914126486748
0.008053851266819359
-0.004374513945226183
-0.004598644433949108
-0.005507493773845594
-0.016475262518583618
0.1049564543833776
0.11796356177803244
0.035672333991120506
-0.014965447114879502
-0.037159321375825886
0.020378837503630294
-0.026393773599998803
-0.008948802226399488
-0.029550996402706295
-0.018939193879025415
0.00962559685143165
0.01507590821222688
0.003392642181163096
0.03724702809155911
-0.022508329866754977
-0.021817530465063413
0.009302034617132962
0.06702860809881958
0.0463983601431421
0.03725242608666941
0.019230628600552024
-0.012654684221012534
-0.017411458440714896
0.012938350571676588
-0.007210711202821846
-0.027055986444828546
-0.01751199206175771
0.027683191109087846
-0.007092904692372664
-0.0022616050776147804
-0.006126400668334867
0.04688962388677646
0.04904582968155594
-0.034378590657166086
-0.03303711972438622
-0.01439642757122617
-0.004733028382830823
-0.0018207572179341572
-0.014136352875919894
-0.014520101748734178
-0.09939775852031729
-0.042343377280503865
-0.003549211678501798
0.005384013425809948
0.024094934142150266
-0.06820433296662211
-0.0020411043183959036
-0.010149401367838326
0.04354187451452609
0.040116873801230066
-0.013033550243111158
0.011473597396936817
0.0020638648515290403
0.05951180971249753
0.04006298780842403
-0.022091647861276095
0.026624797568639603
0.04249324467413658
-0.09734154193271796
-0.08357478464446938
0.002129116827472775
0.001479514291897023
0.02474346397102446
-0.0059811495242050264
-0.022817581556254317
-0.005697660927992348
-0.014478105327759056
0.008834387048402297
0.0659857082441272
-0.015496603317257189
-0.005317827283771956
-0.0398578744957226
0.003351808987641816
-0.011903514677912456
0.03339157827033829
0.04193908189663532
-0.026715036239224787
0.018436839149936126
-0.03090889514753072
-0.03466733227786703
-0.0010963572845392605
0.07925639798506359
-0.0004118910817267972
-0.06640908467518043
0.015255908859530619
-0.012282820570563475
0.0217261443944838
-0.00781370011007321
0.007377892694550489
-0.023149188241358414
0.03730512353947937
-0.012914503063710217
0.0068354863457833455
0.026209228879068205
0.044252906645308294
0.009785264788776407
-0.04759707927578066
-0.016939340803925746
-0.032688510905409224
0.001406832401279494
0.013334522400168367
0.0017634218729821844
0.03265409881043918
0.02231645327752367
-0.007219172512859893
-0.026778264100524706
0.016364278389102864
0.016914365266881167
-0.04194713357981874
-0.02247136971271317
0.02938801661252965
0.014550890960307598
-0.05186376359817078
0.014157435685273478
0.019597396324357794
0.07055364283057021
0.013430761274022478
0.008389966089191158
0.018636632584478386
-0.009665801399433778
-0.038498199272028195
-0.011108047982182854
0.0071030940470195045
-0.046727014956137736
0.049025930162187974
0.009921147405811586
-0.042276312585414116
-0.05820644414230367
-0.006191635751988674
0.02673075880860966
-0.0036666534024968984
0.026644414475429024
-0.09480364870348498
-0.058500671438184354
-0.019712685452463203
0.016498443040948774
-0.009209586906216014
0.1449728175741661
0.09646982776268864
0.05242247613849285
-0.03296872080560803
0.006173327524843331
-0.008974257415413718
0.005386567997918327
0.010472917939927169
-0.02684847633570033
-0.008353431880809987
0.050341475050137176
-0.0002277896889809735
-0.0025910594043673002
0.0006937536719277468
-0.03151805613170503
-0.04477962759089361
-0.005732959962321411
-0.015013886611709095
-0.009982775723436116
-0.06107514633145374
0.02963729648583072
0.01427015348388951
-0.02280947661055936
0.0202753785039422
0.01448527558774414
-0.006549559314307135
-0.0164409237815129
0.043883342121569725
0.011425972066633818
0.03478836848349669
0.006164000722466511
-0.020705486476235983
0.004377349562377543
0.020887171345408993
0.003652746951803316
-0.021752998867579153
-0.044373880360353404
-0.018648824412630955
0.041587229254182186
-0.10642291356870172
-0.06057965014550795
-0.0011279421788225874
-0.00958285600739964
0.01791014452690534
-0.04813440705596846
0.10969696014741727
0.07631588812147712
-0.007666987644976411
0.03659606521660734
-0.023139570572451387
-0.020306461854470752
0.03635986302307733
-0.03570003649616416
-0.0568446553852099
-0.0037247804980559403
-0.007506878563006354
0.027248044827798072
0.040617355624263794
0.05397335219670283
0.043328147098981244
-0.0275397529742461
-0.02026832179124946
0.011453544719429658
0.01598183193965173
0.021715493751679693
-0.1429864632027809
-0.12165551850002927
0.030361665212050283
-0.005099410553992603
0.0028053962833267873
-0.02499275899209992
0.014793239750927563
-0.01492389316471452
0.1267695020190377
0.12183957573767068
-0.0200593698735204
-0.02434340232746669
-0.043612177102531575
-0.01529046859817211
0.008173269057589763
0.01833621826549902
-0.008412045497441359
-0.009108453283183398
-0.01839418713811359
0.03483764748803176
-0.0001882600004180829
0.01417088638914724
0.007898330572154656
-0.046279181089197347
0.0013891738213275846
-0.020838392625949415
-0.022439700627639243
0.0388948172197904
0.012939337703455117
-0.02593213888737396
-0.005741227546750444
0.03312885214361309
0.006290151986543182
-0.007530690022833995
-0.019949919770661715
0.013782726921137241
-0.04150809696858177
-0.014965829537021063
-0.01963878736917043
0.005105450513492881
-0.0255532414482737
0.009156864995743893
-0.015284087990129135
0.11546004347776496
0.12150600573761863
-0.02275007321298202
0.06483102033904994
-0.01554337629524319
-0.0006252539527082926
-0.018907120451176776
-0.023310513472884948
-0.01898918024945165
-0.026499639724939374
-0.06850860383903282
-0.017059457101857148
-0.02866167960099351
-0.010118211235309501
-0.010418274456132753
0.010220784511501489
-0.008210230695524384
0.0008164552519616104
0.025745759116548913
0.0007008780374886802
0.09123830600765608
0.03370311992464073
-0.0068196162214503465
0.00900965194168411
-0.019424606919284524
-0.039985920167889585
-0.0338230768358614
0.02582459134774802
0.030995425375171307
0.011034216418521831
0.002323560149411323
0.010812076430010375
-0.007950324785722355
-0.009165995869353525
-0.012341272630181385
0.018111094989389374
0.0023844858053357573
-0.0225982124706176
-0.005616793922231678
0.030213426086225934
0.07501336650253428
0.080437654096173
-0.036526162012564534
0.0014001403843332716
0.03988544880106867
-0.041706704768492815
-0.07868434494513987
-0.07372630250537987
-0.021878599039221888
0.026703147674822004
-0.02094744994936385
-0.03927805368827472
0.0003166181288653971
-0.03839012001552177
-0.09414480524709526
-0.022187961318802334
-0.035835707776307534
0.0040664393834487595
0.06544525538613105
-0.0103877042467072
-0.03866196106876653
-0.0504847577883673
-0.025038167928508395
-0.05603070113327359
0.1551887469430975
0.11850654613009598
0.026124412627252635
-0.016392341502091786
-0.007668904807335291
0.09817434484930578
-0.00520032987750671
0.018208084159425392
-0.02689055536090987
-0.002499199816518803
-0.021507369319310903
5.454433381691965e-05
-0.07940012191327205
-0.0020981571214718085
-0.027953529403594655
-0.0023975752121268555
0.028780009897677674
-0.03680214762084015
0.009603416406428337
0.028795107798386545
-0.014688243215097605
-0.06822871017495984
-0.016686749736472228
0.07163161691922641
0.0023212708009672754
0.14373387063449403
0.06030501053306367
-0.04220021881778321
-0.03113580556580536
0.01584369327757605
-0.002789792220337606
-0.004060938391577274
0.021519523931765264
0.0033476260998532414
-0.009689922544484197
0.03183059161302681
0.019257030285937976
0.07998705766369256
-0.04045863050726397
0.035349358462545576
-0.07157013972869322
-0.01122694786473922
0.04232800978097178
-0.12414729934361858
0.01117800013020409
-0.013587031292667785
-0.0018771051286701204
0.001403661456891638
0.003607039458039856
0.022743813641550422
0.0235567555832771
-0.007837654409083081
-0.11689151603760767
-0.018773957170729213
0.030217084874141206
0.022041120718011054
0.005149731748406612
0.005397283930631379
-0.0338927048519346
0.009569480221179354
0.009418081042211557
0.01449738925125538
-0.0009868534046532614
-0.06467123399701621
-0.020248663949966314
0.030460265376419896
-0.00614900656278509
0.030410474445142027
0.037084770916113924
0.05989415237808942
3.448944647951249e-05
0.0004484519333265747
0.05571694863055953
0.023790049777932185
-0.02984119877443374
0.026146013640127426
0.004234713624326943
-0.02643581539190905
-0.01770442499945995
0.044477610958203
-0.025702409657605584
-0.016808138815993967
0.02067575023287149
-0.06441655788022468
-0.03665543048632349
-0.008232223634376349
-0.03342278972017329
-0.023762477947670328
-0.02968491398323928
-0.0152482431564307
0.0022130119171995277
-0.0025148338209757637
-0.010965862086616346
-0.014400618774066468
0.0007903028204962795
0.0029388329483292144
-0.00945272054553054
0.026187879434695225
-0.00153889188475583
0.04707017248492011
0.07221526237646309
-0.030868060691979577
0.02834315031088648
0.017747301467653322
-0.007762582636098014
-0.05579344643074699
-0.05406892396812005
0.04181163701051294
0.009138642801776039
0.035624854841891124
0.08906592875598782
-0.0041960684142242416
-0.016699503291351572
-0.02511853716698136
-0.011628138073703378
-0.031085314203142315
0.03735957821548169
0.030121589377894765
-0.009311950123811148
-0.046801058976211195
0.013740413972303285
-0.05290214425037597
-0.10038747305961146
-0.018158194782833058
0.058457740276654485
0.05855184729094149
-0.02388355723087201
-0.040846307126155716
0.03800974819753904
0.05701500956392125
0.034351415642716585
0.022889841914828526
-0.007469724665437436
-0.01855513232132898
-0.04133607211954192
-0.004131725498879255
-0.0008410410579577786
-0.009580841075895408
-0.0043021343071766695
0.018022997723986415
0.023123417707553804
-0.010037382018386899
0.04611871147379534
-0.09798977681949879
-0.08450520255111904
0.032988192312488916
-0.055207351616013374
0.0018878795475219608
-0.036826620005362465
0.08297273504863754
0.08199593537159758
0.008798927781334552
0.003402000769188414
-0.019162758723963495
0.02677071093581238
-0.025543890119046682
-0.004642594451587185
0.0673674867277388
0.008926889560032004
0.05058255941423819
0.027502774030288266
-0.023634844577748646
-0.02639028543715222
0.001432220105799053
-0.034862142342080585
0.07181187742605882
-0.012991381126352713
0.05899036947350024
0.07630237993943213
-0.009953501415688574
0.051929320408810965
0.03623044628858129
-0.012962961597794554
0.004343258509601908
-0.01887904542483736
-0.06659535485464603
-0.12547513420419604
0.008748763455400264
-0.04121858437256388
-0.018159841293240126
-0.012563366074495196
-0.06439592979992298
0.006778126340075115
0.018060917325307742
-0.0026835310959710105
0.006601174938098969
-0.0017009713407411
0.0579047275116567
0.01405245844930755
0.03964517619811118
-0.02313168377246529
-0.15661985133621426
0.02096884986958412
0.05231192589685371
-0.003982636660834386
-0.04909518173241442
0.032853454838974984
-0.03242355513582952
-0.005316534379735095
0.020717975142823607
-0.007669272718869917
-0.01813745206298801
0.01441729065911543
0.022990905993044652
0.0003846300786379173
-0.018927126356946558
-0.016586873387509207
0.010258979871919099
0.009601782484514997
-0.040005222133955076
-0.055480161594992826
0.006656089141436053
-0.011740723875316947
0.027717806933924637
0.01542624865855484
-0.004912957133452911
0.00979677419779018
0.0139126499623537
-0.019294015643949506
0.02669985626326222
0.02616858615326588
0.0322864219912481
0.06419819179094068
-0.08586807559628098
-0.08171158401386334
-0.020493239456743462
-0.00530039809339102
-0.029453940174145852
0.004566673321518062
0.07279400838078819
0.02030363675153337
0.006639932125477862
0.000402148430369707
-0.027691819324632425
0.038488307891790016
0.042171318348595346
-0.013719331956991635
0.01984579141871142
0.010609381500680186
0.03780226573949452
0.046307677103602535
-0.019866223300492824
-0.024085311344488766
0.010772138421249845
-0.03691604097623627
-0.000900150916158244
0.009118472369471749
0.0380626837492018
0.05221802073728853
-0.0068585975857755445
-0.001868557726447474
-0.03236946351619187
-0.0024936405015563256
0.0004182958057359699
-0.04103276254725117
0.01826698142998116
0.006761768078181181
-0.007881526514497994
0.0029738755180510456
-0.012147599977963644
-0.0061698525794533325
-0.012863199840287777
-0.0013151985954346684
0.026443333755745615
-0.09794578340377263
0.0013582306640804532
0.04062124113675141
0.0018068891957548944
0.009058015873050237
-0.00851816083544874
0.011195735681437282
0.017920260742761516
-0.010456985110036088
0.009596736468478107
0.0445202504948334
0.07707020403788556
0.034163918212718095
0.010451507380860566
-0.0825139955246493
-0.03901518615466661
0.024058080856212156
0.024616993064018856
0.02367343308498552
-0.0006638253288948947
-0.01671520358534999
0.0010822114764202384
0.01220210621136
-0.004528206771072189
0.006057184139751568
0.023234094286009397
-0.00281806573379039
0.08553454771541785
0.017524901422853605
0.020744785285301142
-0.057527937837403266
-0.05322693297810868
-0.08174048321158936
-0.15103615473526572
-0.08601023080465985
0.021257281500924718
-0.006160289983645067
0.002548913211379384
-0.03712472950525155
-0.04240511940068513
0.07636595772335525
0.03858018721881592
0.03200864494490406
-0.04303592465950552
-0.16229187961408845
0.055837869872285985
0.032051221248591624
-0.017813457870547975
0.04304838522662623
0.014434834531860381
0.06951821921780742
0.07781718782336397
-0.04019348577522717
0.008511951367588675
0.016424437345470347
-0.007621614175547765
-0.03118668924845999
-0.004432588500369774
-0.01435838226820665
0.041185125902367906
-0.007333797469343847
0.009137204636514105
0.009790340166990883
0.007354919448898339
0.03956469075242585
0.05172591179953874
0.05043118007882419
0.01857847771193596
-0.00014224479677130294
-0.010833466062362225
-0.00039825651094489863
0.0048909342300936815
0.052437670816053404
0.001556007632896916
-0.01209570542539351
-0.0317562723545861
0.019298803617029126
-0.132503371009067
-0.01388645874656
0.0037479076307703123
-0.020120541488400225
-0.06604975010432268
-0.03746306203700584
0.01896007944488204
0.002544392957037675
0.0595346855994048
0.04314127769198181
-0.021913555824455828
0.008528306059575774
0.04877996411919445
-0.011814245669456925
-0.036186293689122365
-0.0424833329549278
-0.04878881377268729
-0.002304129416981207
-0.020860707204897914
-0.021528634811312685
0.027011795664399693
0.020294426153417703
-0.005510665436929828
-0.0032536988746316342
0.05009298236748856
-0.006107357600650429
0.11753114836823346
0.04838247346691675
-0.029622318525231298
0.03735955122050487
-0.03606003946410751
-0.2089514851766696
0.008521253922355978
0.035443512293050185
0.019814176457279863
-0.004999559219054786
0.0015141907509218298
-0.04062862297822234
-0.04848834307662237
-0.018379742815778654
0.03378658360591709
0.053868851723556585
0.0025334219623885644
0.045259652845446224
0.017233535084253862
0.005247933475269781
-0.005715047227173924
0.028558327475755558
0.004724395260990317
-0.009835596989829698
0.007852647671371836
0.02394192605420634
-0.03702336339112725
0.00912314486228087
0.07293204731820614
0.01529084779215101
-0.06541788498118525
-0.019858827695441155
0.02791828111884065
-0.012542666772230385
0.0698284101733694
0.03778339734108783
-0.004756299349982283
0.038812045970716504
0.03273325753977938
-0.009454001461235147
0.04142359085709961
-0.12534993864396884
-0.14610555622061844
0.10964660156314573
-0.06326685321510465
-0.07783383085465348
-0.03243938216149419
0.014529701123204406
0.0369470353949456
0.025422068094250787
-0.012490022594091996
0.0075257078468984415
-0.04278951789258001
0.039032117420020315
0.03698451903809122
0.00511647117545705
0.0008784858973163154
0.0028195654470213557
-0.011821889096751711
0.001178950150547327
0.003696811286100669
0.03725163049103195
0.06770257539034154
0.04056111047040866
-0.019081522589586144
0.037889375608342345
-0.05680048733746333
-0.06217922371391829
0.0404194583317046
0.014585983178921397
-0.09453198412908961
-0.037224428676838714
-0.006015345078642092
-0.0008912605965250945
0.025233021909399182
-0.06916547162477481
-0.09164197238283246
-0.049552033228524084
0.06512134520569805
0.025180800561850878
0.0025207528103973424
-0.0272613074118167
0.03655631368950228
-6.344986771863906e-05
0.010586245883682451
-0.003734496200740014
0.011171496955446197
-0.07305537915025209
-0.08031489149672114
0.056745927552016955
-0.007936922339083573
-0.017606494633324973
0.17999665514216373
0.025828550461330934
-0.06665453477164937
0.0531656725464486
0.0005807182575408643
-0.013159533239131584
-0.012744657141957988
-0.03814781059378492
-0.012846940922269673
0.00731306558650734
-0.03302537917785421
-0.03619214252247028
0.011464135667335066
-0.05469232647177925
0.12003152214123458
0.11896807241867201
-0.024448780806626703
0.007220812624885613
-0.024811769325584102
8.96544762886861e-05
0.15734891448766267
0.04928075112057288
-0.04161113448353928
-0.08405931258628475
0.010737196223999152
0.029308575796694988
-0.017415398284520534
-0.01586123486368677
0.03727251042610807
-0.0014861240623599177
-0.01920961795475337
-0.016153100905553136
-0.03801647622270676
-0.010471711449711773
0.008641035354598054
0.004778189655629704
-0.06662835977754196
-0.030660730646987624
-0.04535621146075719
0.0037364446141999593
0.03962111574064257
0.02768629809672523
-0.0339107939414171
0.014173570394643824
0.1595217348694378
0.08558438441627866
0.09978001358737298
0.021180539960133787
-0.027386166909024103
-0.05822240860609591
-0.047197650281579955
-0.031074428061432745
0.0011016700718294767
-0.11870506685560213
-0.13247284628421266
0.010754824741845082
-0.020863468208093646
-0.01075662303471757
-0.0034326173632992923
0.03054933236528472
-0.05463503470761128
-0.01929351610770541
0.051823566159287696
0.038985563691953384
0.009558516845395526
0.05432683215150502
0.04477421029127496
0.014178938771200966
0.01119553468364634
0.025775378638281016
-0.028698812520397732
0.027415047357623134
0.029272869649957484
-0.17089053285941835
-0.035911562322271315
0.054524586424527545
0.009307146071560834
0.05065600040336482
0.01753607575639376
-0.016172973119263967
0.012732028675663054
0.026265604394956187
-0.042337487796796434
-0.002340787850780426
0.003559354641220339
-0.022898325178456417
0.037983410289642396
-0.052725418977078116
-0.04828284116023637
0.02237612324293156
0.006336860694615646
-0.0015966789767579328
-0.003927149004966382
0.0017739201641230468
-0.023575291923468134
0.0825871871170053
-0.06543929531286313
-0.05803676680534314
0.03747127281243115
0.009710955175527966
0.008192307856047706
-0.015074851454396358
-0.01271990528959243
0.025516393751692665
0.03956849416278207
0.001502849614586948
-0.02070962188368384
0.011259039243678489
0.013678203949406614
0.005554106284008358
-0.014182738151076017
0.03283868722719604
-0.03816052489603273
-0.049474848372767416
-0.004804229778605116
0.07543236007902743
0.00486663277253324
-0.027841288691904525
-0.0044636532334266016
0.010850790195369364
0.054040561817901824
0.009495361474763861
0.03066946849602788
0.00035049355398939484
-0.052702213507901385
-0.06287800418807099
0.019453605613757415
-0.07970334041764564
-0.01015781280627802
-0.025454265508087763
0.09925870176564194
0.09414735993863882
-0.005640814593458625
0.038078473327399845
0.02875174900683461
0.000924570286055999
0.032990896175230745
0.03548811222759658
-0.016437996103201034
-0.0783691842160263
0.009308100711047079
-0.017287177656921227
-0.0020141695561390013
-0.0008793292350228897
-0.08613150125282915
-0.10124739911799163
0.007179969815662824
0.02053933405140609
0.02658072990572824
0.0722555671035034
0.012298228224682722
0.010487297683828601
-0.003674390956583659
-0.007356877355660598
-0.024184525430201612
-0.017611647749453695
-0.04660105443670432
-0.023838382875448767
0.018691957931852878
0.00955690711692173
0.020090178120085907
-0.024685902942491296
0.008433501628842132
-0.001000948198335928
-0.02836513989472523
-0.003961304808817729
-0.014730305587887117
-0.010417861247950898
-0.002592308593734566
0.041504957824467364
-0.00299249628094431
-0.020145301913959312
0.01331262420322383
0.01861367946453801
-0.00910693545407108
-0.034840611900648265
-0.1217170777676581
-0.02636733269557087
0.0023395752788917196
0.011794227468030527
-0.034073871867708404
0.06122591114189124
0.2055287112166019
0.001495161445294563
-0.003910660635216911
0.016722672422932808
-0.010924623445590245
-0.0282878800366535
-0.0006208656908196717
0.003754395124787591
0.004849103643294801
-0.012221237548108358
0.009079661730061908
-0.012110396226698098
0.037724895922145604
-0.0058624514520252535
-0.018279133404555347
0.0372182599741873
-0.0007681121967675907
-0.0037803487035732164
-0.010772605389063394
-0.034590647854811994
-0.037809102737442764
-0.014908437044826512
0.047076525671857036
0.04264430684993084
-0.020114371744871375
0.10335112415014311
-0.00021703693907847407
0.03481271818502231
0.01745876958537354
0.0013961036312773955
0.027726270694056487
0.00015516715729634674
-0.009083536033299675
0.00598244533248328
0.15044510503830116
-0.003090967607738844
-0.0158574351477742
-0.02317835234486828
0.003529365146750226
-0.03540082862833635
0.019214888547724025
0.00632160974356649
0.03451515715518999
-0.1732411784652659
-0.11766999897631109
0.057597599951603747
-0.002559689918233396
-0.08038202992378472
-0.04304033838256435
0.023783355761175885
0.04182231952181775
-0.042207454933857885
-0.0280580478358866
0.012340959709619079
0.031080467039446436
-0.1309817183453263
-0.10715034034153763
0.037979662380844596
0.00907717859332515
0.031595682260299546
-0.016655777163623334
-0.006597973031552516
0.001990067840554033
0.014100275517970683
0.03947928792436024
0.0643294882362869
-0.0037099379217811895
-0.033584971235462294
-0.01535559608965123
0.00419210527408101
0.013296125298938937
0.010145353528154107
-0.01244539012635128
0.01650440635680302
-0.005828170967772193
0.013576553885357931
-0.012304741169290381
-0.06061314498871042
0.007089305695122338
-0.00913116447662689
-0.010250796461367423
-0.024895115975549977
0.0029548600362738864
0.007338863619957084
0.11967833431438797
0.12149591793437334
-0.024085883305607205
-0.005142490943036227
-0.0223778944508481
0.015261041834995003
0.10501678683962398
0.03783232893107313
-0.012998634058041738
0.018773921694656467
0.009528001834624947
0.004180477747605745
0.005425456936138779
0.016571700644747146
-0.06843540453655586
-0.07011100678759262
0.03300082496770234
-0.0036386758808783356
-0.010011311136984578
0.024099628848334022
-0.01593766399150019
-0.02475930392846936
-0.020899547348250405
-0.01713907656019835
-0.05662498883712983
-0.029784976734479416
0.05391053740295444
-0.010215821397369564
-0.017265782403787355
-0.04089594949006914
-0.059116237847208326
-0.0105961207070244
0.050378499903586164
0.01734419163897906
0.05753847174771807
0.016678067793944252
0.02340966958996441
-0.01136200619228761
-0.003373317396013744
-0.015303791497031143
0.009187312229576527
-0.01043515186059115
-0.01684894294018569
-0.005164754465449294
-0.011654139766841553
0.012367800621501624
0.009219831386798957
0.04002440915649765
0.008785148115829365
-0.06322630997274443
0.03043668044221478
0.029295396186156793
-0.031605242715332126
0.014346321661505033
-0.013043921593185967
-0.02452896439164047
-0.007442000918598514
0.023708322018865604
-0.027381761837389832
0.007363818482316016
0.00032598907782886255
-0.004212870739199679
0.04353163428970001
-0.005092042022014639
-0.014353263720669349
0.03069731100271423
0.0001547212236880189
-0.014453269833085279
0.019436797919539638
0.03633010014437266
0.02715340580522745
0.05697176807009537
0.023615525391151457
-0.015022403556339256
-0.037471331374137544
0.013370761411784423
-0.03210526402762197
-0.012298668148927605
-0.011450518939112107
-0.027962704975120517
-0.02829143013627008
0.03435206665642356
0.027841653448781468
-0.033739379809955165
-0.03325624342365621
0.0292871287196569
0.020633166036059226
0.010019340676960182
-0.027953616545234386
-0.0011216342770192544
-0.019005276516545183
-0.09653611506546601
-0.0005343491004383265
0.05078606764105715
0.0248569029452747
0.045183327981533045
0.005981645173219673
-0.008189712252461123
-0.05127690789021553
0.052786144672240055
-0.01112959111976305
-0.04473688501160632
-0.0044906696773916914
-0.015418912510998634
0.065239112982133
-0.0036037658229139072
-0.10517125355197773
0.008355612116150253
0.02826921876480868
-0.030177287591930772
-0.11408183009230084
-0.023566379508564574
0.018069117695768785
0.0023057113556473946
0.01399473101964089
0.031008350277318866
0.0075923204359214635
-0.022252927878169255
4.809632348671627e-05
-0.018563463083519697
0.02865518921267586
-0.027527182813220717
-0.05043052048806799
0.051281371804878705
0.04834390324138298
0.003995594541030793
0.030439152369399137
0.07028185334279764
-0.00787534329253613
0.026836270064493763
-0.0038862138851754233
-0.032215199823228916
-0.027327058296214145
0.016750508825121687
0.01711999224604958
0.014899411698906184
0.0795665061822885
0.16327828374765607
-0.0028046733455206092
0.01647635797728423
0.004945917466214162
0.006216689044650679
-0.03402500296940563
-0.1348848562364293
-0.04414076317018108
0.02210635614079564
0.028032891779179267
0.009912026880431522
0.007612235101035561
-0.01460600387782987
-0.045707412948967546
-0.012964466794162322
-0.011753336008521777
-0.05025785509663118
-0.07495582317190655
-0.050388166664020656
0.0837623947302536
-0.00104400257873775
0.08707993643494641
0.006106287742657595
-0.0235788580893926
-0.01559325704834793
-0.066804160585772
-0.013466391062902934
-0.006963270657223843
0.02746803314306952
-0.0013763806307803582
0.0784593553702024
0.06064120471134394
0.004798475359927488
0.01671199373451713
0.06688840092970771
0.06711574734079803
-0.03807484299310925
0.021441419360373526
-0.01320418658646628
-0.07708294264920575
-0.05018148357964013
-0.013229592768139219
-0.011431217854795811
0.012669379989834799
-0.02773929907102903
0.03351034599280698
0.07540405388222209
-0.03638701555114223
0.012123246780618638
0.04671796881920913
-0.024075290732144865
-0.15372268839946282
-0.09906988645716347
-0.01828468682152005
0.02656349799119947
0.0706330857124983
0.0390295670603116
0.004129613607605942
-0.02030097277608867
0.035466202418947344
-0.02440590189786042
0.011289447991916128
-0.10951170274583902
-0.07476972425106812
0.025518987151520397
-0.01862723213018184
-0.006075657606495695
0.00529651491208424
0.05247611677484403
0.12138953633491727
0.01144538698622199
-0.05322089259949576
-0.013640987665125356
0.028371074814632597
0.03378785701407917
0.07754950605281821
0.04797726065388148
-0.022038681740668975
-0.0023652609318827035
-0.03034210118657248
-0.059031889891984886
-0.02351331969373157
0.007551189282566997
-0.0008640626839150666
0.047837348430649976
0.019273113829411544
-0.10756343023716707
-0.07467754467751755
-0.0038906134638027165
0.014608542561268596
0.027457950101573862
0.014723629036260377
0.007378236330788421
0.04993728192303021
-0.011760584212632406
-0.014502047153543451
-0.060160514670189014
-0.022131322362945745
-0.003330941079895218
0.032918593036710846
0.04692470932257658
0.02023507760449539
0.05724804413452352
-0.0033633683798022654
0.016565086460537323
-0.005808803087177008
0.001313371725152714
-0.01866559303197127
0.006250467593413871
-0.020204276922101822
-0.003969448588886596
-0.001649072868191046
0.01406697840172257
0.007909081886941845
0.040862314412038546
-0.01958793144451959
-0.002973253312138808
-0.0132100918633754
-0.0544222306062464
-0.02569232326797053
0.005617341472034054
0.004135952458853658
-0.024272655732271647
-0.06233612352728607
0.0012844605665172184
0.05571955859029362
-0.021484009063936896
0.04367394338335309
0.00717051529261595
0.022126915097866087
-0.034642275517914115
-0.04681055368332254
0.002930285577470059
-0.012307170612533828
-0.0111392007822338
0.06155043668285279
-0.020425689325770276
0.1287833629144872
0.16881712280673042
-0.05667977935973827
0.00297816206696971
-0.04945196402526253
0.035857001067587706
-0.04925954323513608
-0.033008860874518924
0.04371892546917148
-0.030945907764049242
0.004731166105301966
-0.008880643638605846
-0.011356854347844725
0.003837670857423591
-0.0776988662715073
-0.027608129750809937
-0.04181792098434327
-0.013061683046954944
-0.0033445530629817254
0.027057659584536906
-0.05437499933607487
0.028113358322238755
-0.03357648334659302
-0.008376236769974786
0.030738484617991273
0.004545812341966498
0.03954991651543644
0.014138672503398626
-0.05305675415159516
0.0002994332044642608
0.01060150025051227
-0.009364589148761503
-0.025533188104054336
0.05672550010154836
0.01988409383621794
-0.030727444874476813
0.022297267812866138
0.05690199119969293
0.06655259616686508
-0.022171409005095878
0.008831874021032343
0.0029817435411373877
-0.01738773273775101
-0.005879660202618867
0.04112524516069535
0.026281644942221655
0.00233144532766722
-0.022325229163783804
-0.025839082208379584
-0.0074617788800997314
0.036373669599275585
0.024856629683297923
-0.009654868497872999
-0.03301718562883488
-0.03761416092181801
-0.04200051857794624
-0.012943710044999291
0.062099971510209205
0.04427833860014719
-0.013129927818524538
-0.004321490810087806
-0.014334080492843584
-0.054104015468019226
-0.012450588860924844
0.036028448472200714
0.023108211447713797
-0.012618692546796028
-0.0037972255698680776
0.003179693099262429
-0.0032721743245430848
-0.023954307475559863
-0.00913960418513751
0.06590592166580612
0.029797586319852173
-0.03910469603421686
-0.012777660178741036
