0
0.07163671966795193
0.00764216206495025
0.0018944931500130201
-0.0026458432323473316
0.005119710339511496
-0.0015481123066173111
-0.028785289119061117
0.04247235920377929
0.013036121515107123
-0.04389054634634209
0.017551086630309035
0.020547149827006544
0.004027678309132592
0.020163519272687613
-0.0073951248772348155
-0.014716779854023008
-0.033319882618764445
-0.08384351408354869
-0.01261032186855392
-0.019995140447937102
-0.022181124025941967
0.0011163793787281133
-0.03294429499258944
-0.0317406911440489
-0.03236723238203671
0.009375967999317085
-0.005968465795884779
-0.016598630941568444
0.04075295290832989
-0.03912862855266779
0.004725862092914809
0.01802537821818086
-0.014941288398698809
-0.11365604307096118
-0.011657280210314848
-0.03744018261204363
0.11541450606017985
0.12162640372062257
-0.04889467376401833
0.007985304568637242
0.009261770635888785
0.03650378843319749
0.03560565552699793
-0.0003946951809652087
-0.04972130245537166
0.022803176835178823
-0.007140124565226474
-0.0009234305052690824
-0.02750559286865042
0.027261120424816453
0.02586504153420806
0.003967818793755965
-0.017816000616389386
0.00889813974805562
0.10236907741716772
-0.028199812474509225
-0.0941492728393449
-0.02739772927055576
0.016903062605039806
-0.03064364418004758
0.024439559201145197
-0.028616407506815197
-0.006818566279645728
-0.02618510587752462
0.0654703556040133
0.16290577819626959
0.01101868463410096
-0.019305155185179623
-0.02754125142292488
-0.021916141644729298
0.02341937527403585
0.03318369490877487
-0.011634582142347624
-0.02537381388051818
0.006100691947897967
0.02085011101114961
-0.02603953488446564
-0.009775172110784339
0.010203244585371262
-0.016940439143278356
-0.031295133322630064
-0.06348075207316335
-0.030041855057392187
-0.016153019110895502
-0.032718205359213715
0.005089090398405789
0.015106365054438462
-0.044155881318349646
-0.02635725041341908
0.016154014944385592
0.04718984442264196
0.009715197620534029
0.00014379909321438576
-0.005919500270162707
-0.016557941500978144
-0.018116295871472194
-0.05261851719355639
0.0018247615267504784
0.002088092623147526
0.028689089960152642
0.07369979331050781
0.05768026255811852
-0.03827379092146764
0.03663133601425217
-0.005020076446008792
-0.008278004133746212
-0.016068577203241886
-0.02707567678151651
-0.015696243923703945
0.09633147356191535
0.0438052495693707
-0.020356935924682924
0.07616706041489452
0.005752247271067757
-0.021579917397847277
-0.028950978894271617
-0.025038051470344044
-0.01729435480063112
-0.03526554298959015
-0.04087111987999724
0.038348571382365707
0.011738743565565422
-0.03950570966254377
-0.018113468757224777
-0.0525307100244249
0.036683302093187174
0.025263818210168473
0.18707297574926027
0.0008615137547361895
0.006196344746918112
-0.1759329224372386
-0.031819078177476555
0.009957686862425834
-0.037652691998516764
-0.012998892169067197
0.013439954025195034
-0.005312834784177963
-0.021252616496694198
0.009498258579716245
-0.02889233763146999
-0.02343847307177396
-0.026756696701021737
-0.09262896671625373
0.08097218140416448
0.10813579560468242
0.011274810536280313
-0.006323784764699866
0.00532348734950268
-0.025545782537676122
0.025184705001143254
0.1493344466048705
-0.005068216421581419
-0.021212960654063615
0.020284075432287486
0.0027077877593301423
0.041728913785878285
0.05897190509294219
-0.0009888500584973603
0.027105524709371966
0.0025409471899986396
-0.027006089498116108
-0.037193601640937074
-0.03450541215368768
-0.01723622413781119
-0.017350266366741633
0.023863907205517974
0.015010670125736873
-0.03357261159583617
-0.06019982399330629
-0.007866460059407259
-0.04029083406518114
-0.006279610053647828
-0.026767014060253867
0.004965147216273549
0.020947464947149518
-0.05310333038887463
-0.02581431941400018
0.014617162442987025
0.009437551262748672
-0.06023205383412723
-0.0708363950912764
0.11457801471675337
-0.00425155926826597
0.0007303864409774622
0.02012210153590756
0.06320502520654629
-0.014352316532998146
0.014518577207012122
0.05922567480187007
-0.008338852099739006
0.0021419322499966857
0.016745426741209487
0.02131642272413812
0.016302744851676775
0.023953616150790644
0.004645414641925375
-0.0008513926973111609
-0.008645266805025793
-0.04017667072862534
0.018385807323253987
0.01238261732416333
-0.0012727149322363078
-0.013363428801657147
-0.015249164962653107
0.01789811341807743
-0.00918890979818437
0.03022366755181807
-0.018003999019170554
-0.047350902919587434
-0.015368214802572807
-0.0075695064489263554
0.014285491640964994
-0.017535964011813707
-0.10943899543352499
-0.00484835646244455
0.07152235985149309
0.027810968108863337
0.020245856897366285
-0.031813487525493685
0.007284693000221363
-0.03484148401924949
-0.0009435435319937936
-0.02676284161453862
-0.03111162210818693
0.013289470308616496
-0.00524753383238923
-0.01276622357205152
-0.010007198578421495
-0.036097439351289756
0.028587473797009943
-0.08498282003735823
0.10312510403405001
0.2025178941317481
0.005126536099168751
0.027442943288751947
0.012838876883647434
-0.0007031437980347103
-0.08473293170786829
-0.02706943040392784
0.020794042092571654
-0.08064845435401678
-0.04490993449391125
0.07713282810619909
-0.004831593792859417
0.02084903856865638
-0.07940824163664287
-0.07967864475058706
0.017740306097892126
0.01027662850878945
-0.0020555091669435736
-0.02098038812514094
0.07692036038744735
0.15062531176048294
0.0005334250724303701
0.013938062308770816
-0.03760787640536699
-0.039001505801889685
-0.010955184326502847
-0.007722854993559861
-0.029820828983395723
0.025457006562673627
0.025542262899205383
0.022869204649068466
-0.06882091516451272
-0.025360778689888057
-0.00202758511682302
-0.008620875634404543
-0.015804869652174147
-0.012392290917178082
-0.018689031059397076
-0.01877594787464514
0.0344045599995776
0.006358400565993721
-0.01761682826696369
0.04406552412477048
0.062026891183373685
0.0008669113541150227
-0.01881118150986848
-0.01652872659065696
0.011139635187741118
0.0037935598923384234
0.03632055876376179
-0.018268334408390267
-0.054747909557254275
-0.027568990352892796
0.01183393541214538
0.01880987276592972
-0.024365957205858314
0.005701179414535924
0.008645090674748637
0.016502639217520695
0.10604721849259859
-0.016992318432576987
-0.035739575770407615
-0.008409982786392486
0.006924274442948293
0.017891179376356182
0.022904588988758783
0.008013064562461291
0.04125307614567592
-0.022427681793123374
-0.01973895711694538
-0.00984599988615166
0.011069895623651172
0.022191879841344426
-0.051839733316841406
-0.008662588985103777
0.015868884011577388
-0.018747694306135147
0.010120372583389102
-0.05411732149384308
-0.1173015330952847
0.033391130055967895
-0.033831729303571076
0.0809955155449589
0.06640236281797308
-0.043570698612695594
-0.04525751939552315
0.02194121429468423
0.03254186679731608
-0.0030600917814243666
0.022244012234796724
-0.006289544157729642
-0.02905259832239776
0.0036080371046810326
0.01234406917103708
0.008754513846365632
-0.01624683365224223
-0.019713271949587597
0.011555925035502911
-0.009438843937534077
-0.017725129314638436
-0.007387911882602933
-0.01328221494220895
0.012975357256035722
-0.03730568838859481
-0.010435186322777873
0.007210621880526595
0.07400807879981933
0.09197435570955954
-0.0008007662664566615
0.040647388389716585
-0.023841505500462448
0.019970596121519208
0.017171975265502567
-0.014801167577900726
0.003779186218426159
0.0036339800129188216
0.00857451701599086
-0.021429105696582896
-0.022554029581802897
0.008616941557566652
0.04088722964964125
0.0002941065131886882
0.010471663257088348
-0.0017644764141461972
-0.03192495294769583
-0.038499005724757326
-0.0054344812482532
-0.0037974206378010183
-0.016425150103131364
-0.01622638492644267
0.008686984689619008
-0.01300341988969192
-0.0519958283891735
0.021048596441555312
0.18703672996319307
0.013598284963500006
-0.012129998434335423
-0.04283832859168682
-0.022031880153194277
-0.008533837838084186
0.034970463712948346
-0.0978792646343433
-0.061275730396367384
0.00108845965168545
-0.012782091401296205
0.014220868043525424
0.005519948542341062
-0.007805847409193568
0.0508222945352442
0.05097415196454892
0.01924197164575552
-0.020956797147826584
-0.008885068257154597
-0.0025306297977395224
-0.048148020340030066
-0.0051374790688582805
-0.055336807929815705
0.07269131137175082
0.012345572663853116
-0.039947287819676325
-0.0730966958273565
-0.023189669956969517
-0.04913292267484097
-0.030819408046593513
-0.01265235099285318
-0.010886710381087059
0.00458307339754445
0.04015647087523894
0.03400496555027204
0.03229577084511281
-0.01424569855778074
-0.0518823390900532
-0.017055515688138546
0.01573587660768853
0.01728904138147963
-0.030745333199364372
0.0032444561943352945
0.05124741904101731
0.04768827304225187
-0.010887769287934213
-0.07549382964606705
0.10908764319281973
0.05345479991519728
-0.037335114097906894
0.00715627967188449
0.026866515887362327
0.027698715284957307
-0.014958759372643567
0.03252632542608073
0.024095030784517357
-0.02797764436308978
-0.0021515091762442087
-0.03165999862160047
0.07069375971617359
0.028280816461184438
-0.005644444478743878
0.011466228004153584
0.008695028954364243
-0.016118590110811865
-0.015440813246517582
-0.006275156641714718
-0.03302166092760459
-0.009605606628703738
0.017933955563057456
-0.006609548131225555
-0.005257717968607929
-0.0008886844833714051
-0.0034162632741319547
0.012805885404563197
-0.01098825534829177
0.017383841104646504
0.006119314446662767
0.004206787600521625
0.02860784196299037
-0.08846444842649556
-0.06138431963730881
0.006903388084171553
-0.02697855330650976
0.0030482868837382066
0.0010488762009436027
0.08043227102608241
0.11260122330970641
0.0018730527411205478
0.01700383217706242
0.003454524249698828
-0.019056957545526602
-0.04544997682202433
-0.0015266689344194484
0.02062003868746662
-0.038020241441504385
-0.10743051774980641
0.0031720335127693945
-0.02053179909054823
-0.04453251176395519
-0.02937041992541536
0.03240064596664269
0.02557893622819401
0.009747651307760782
-0.02014171366852805
-0.022035920193861504
0.003585394518065398
0.03805186921911459
0.06337200545993037
-0.006422031945975948
-0.05074309939266772
0.02811962093013885
0.032799009568978375
0.0001729623446475859
-0.01989300177643571
0.009316773315653837
-0.0032302655129412593
-0.0029291834655806163
-0.024830099330374403
-0.053395482306681605
0.02668752358850262
0.0029226910131896003
-0.042086609259157255
-0.005619062113103091
0.020790078605010417
0.02151375865043841
0.04250659241173217
-0.017681631024469405
-0.046427495318884224
-0.020999182897485025
-0.014718632088031093
-0.028960726060515224
-0.017116021839592373
0.10791666864679357
0.10918734057807264
-0.045722124654411916
0.01713807011956069
-0.010090458338433167
0.008778449367703282
-0.02207078566658025
0.02475303570130718
0.04723090303545676
-0.011995234166728375
-0.021062867443002353
0.061016294028515376
-0.0055658038730201625
0.026458887279626565
0.031241560897011474
0.010031389389261689
-0.011204824961013254
-0.015366942758484211
-0.022813221190120407
0.02738470134262112
-0.03318689158237319
-0.006976901789930758
-0.12129369420413207
-0.05795814507579224
0.0002523031376977278
0.028444100138673403
-0.004121159370415493
-0.0063784119188593546
0.03222053824268411
-0.002737891326116718
0.004699088436191528
0.016629258558675662
0.029821403804312106
-0.00014463495382877726
0.037251515246951625
-0.002886071885073641
-0.05148981321983783
-0.013218934477870583
-0.009179718906855438
0.01854974929303651
0.02576022549479728
0.04728054477177047
0.04373785081505803
-0.04902614192142891
0.04118386012470142
0.06536599932914114
0.023001047407113576
0.017144501438847506
-0.0021460838238832455
0.04571247191153718
-0.0643311853572553
-0.11382634512440679
0.010890722761696645
-0.008165723678133813
0.03792880941297025
-0.0026085035451129278
-0.0014869788132005827
0.007362079740454997
0.027268494896865503
-0.03634109129562168
0.005438772440483575
0.07014459688648021
-0.1849125257399182
-0.1010252107573063
0.00916048199969914
-0.013722074082596696
0.05400670824229801
0.03340442814714397
0.004090800354795147
-0.00245610352573941
-0.040985568553943016
-0.05382822090217245
-0.013687512003527542
-0.021566366875776073
0.007707298399620628
0.013525949135549203
0.0023693803884828144
0.01972646835432743
0.018422798552241704
-0.015856268860870458
0.025771070672199824
-0.033461116182957905
0.0032343617536426763
-0.07814345083089769
-0.031150155815479978
0.02143258743500041
0.019768819876565168
0.017604072555746676
0.021052306294439598
0.15826219233475203
-0.003325185235435483
-0.007649593591796623
0.003400460448829359
0.003553080469232898
-0.0005472068009123878
0.008944332621996055
-0.005520371218428682
0.031099052779935785
0.023912806859188392
-0.015832299930933345
0.030455531265962826
0.04521407351434191
-0.02174068424650339
-0.04321940049314555
-0.02203847893167954
-0.004836303557261934
-0.007214171331752663
0.0039176046395575275
0.0032152992437065116
-0.02467754546164745
-0.027117541111837392
-0.022185044467451245
-0.0018455864824434808
-0.012644018360109397
0.0008322549455404218
0.0047822012342084155
-0.02418338893263974
-0.00628675949772641
-0.02915501778618049
0.01566080687287866
0.06309870635766084
0.03895862303423658
0.021637894187022562
-0.06433397238694981
-0.1036369488813313
0.011472014651480008
0.06564057656587631
-0.06270474826408005
0.04445143017497983
0.013336654687415038
-0.04498982831311903
0.0055062173206483905
-0.02541742002744098
-0.0016457991160723515
0.06260081046909925
0.027529889600177465
0.1010694031046364
0.13557973769228918
0.011891466825868972
-0.1266659838254751
-0.04589122626935406
-0.02291436747523222
-0.10455253336436042
0.16133446460793358
0.10174537114600785
-0.026270625842398185
-0.018222726398540494
-0.03652035647020445
0.020342346061299903
0.001535833016255734
-0.0026230092895485144
-0.0026432681884807963
0.022169303536378783
-0.023293637214750147
-0.0053710045890359446
-0.024852900552253095
0.009772811055419958
-0.04300752229255636
-0.042817725576553244
-0.006634147125336445
-0.04331543564042643
0.006323530327533346
-0.011341027783292297
-0.007023444259252928
-0.04813297205191208
0.00872105717369671
0.055518169357525564
0.04041097542384042
-0.07782423966654818
0.022920119915867357
0.07590310267726974
-0.06617862847513058
-0.03589058233666536
0.029388432618821545
0.005587996271928639
-0.029265074663727072
-0.01679558154258688
-0.03787864349388111
0.004826451364602147
-0.0326700523689126
-0.01893858515840926
-0.029468786973042935
0.01528026818508732
0.07398202537580253
-0.018901075381460096
-0.008785307248825317
0.032265114255427566
0.00016161086768838736
0.017973723060504817
0.036101745152715026
-0.012654439321996074
-0.011833231656176219
0.011284662790616885
0.07113767244789856
0.0003155812662847898
0.12419305115774053
0.020326050241894055
-0.03490074577844244
-0.00846351311604264
0.03669997505054306
0.0038348217560866507
0.013856944912239674
0.006506674861236329
-0.031281536012436356
0.014740195924630679
-0.031203067756603097
0.04680001638960457
0.0464796401281439
-0.009252283221737413
-0.0031155270265716115
-0.08838606967617854
-0.08940077562688119
0.014369649026346127
0.008792853334322634
-0.049170181905392615
-0.011964726362789925
-0.00111474514158178
-0.002647113446075696
-0.02447354646991577
0.007381914605088917
0.06355923394398494
-0.00520588764231401
-0.02569655468202896
0.008424080489744799
0.023773160741159212
-0.0184094157537897
0.009328885685461473
0.01409311773854277
-0.004761746749307019
-0.008812517720739528
-0.02137941906022651
-0.0012545799023605446
-0.011294922422765202
0.0026650319655291475
0.007541973815998521
-0.03477137972846736
0.004753931145883363
0.010918181055496445
-0.06146207938414316
-0.04202928506416264
0.1116661205910181
0.07637009043376261
-0.010446793547892602
-0.017358782402834273
-0.02396922333365235
-0.002132091428415426
0.022912281683417905
-0.0019395342585306883
-0.02048434914454864
0.03913044829589415
-0.02097712741129262
-0.02605681022308145
-0.004161883080308771
0.00551950443339189
0.060590437214923965
-0.003568542449243445
-0.01752145929391892
0.0395079221252524
0.0049600977297156275
0.009466437231649607
-0.03871726785067403
0.005259865779638093
-0.008151139387736313
-0.014269872347080206
-0.013248099163087411
0.0033109268870353476
-0.04236791112933806
-0.03183224794438678
0.040930069992220194
-0.02619823779972664
-0.008282160428300564
0.014864242535652387
0.03425522772995124
-0.038603084396035145
0.03130921129107114
-0.0019483161106430688
-0.027144510795346317
0.009705581520524188
-0.0076071110434844415
-0.018184665491844717
-0.021469415770655895
0.005937767419233108
-0.048306547074946034
0.09981000444570835
0.08139745715803406
-0.03195035157479369
0.0212218170853547
-0.04026525475495169
0.03613149470441645
-0.08520572780820097
-0.12756370775763756
0.006735500864121705
-0.022431022917670216
0.005509634846653827
-0.10033044458832116
-0.09840286173294605
0.03391253765447611
-0.022365916425729333
0.0695893766039967
-0.06098125550425737
0.13843335555432254
0.08929735626665065
0.12667194499325227
0.08729050966633206
-0.008397064106188235
0.043874208957934945
-0.052714308952601374
-0.02396579260980755
0.0006403197124051196
0.006158782734413979
0.004532331032326472
0.0006151885403453181
0.06392198365025117
0.01712772946356551
-0.0009776399576249123
-0.018079966654484258
-0.016803617126540785
-0.01704076246767312
0.025727378971033086
0.0854130190681005
-0.042745034839403964
-0.0058558612243611
-0.029837026309510534
0.008192310167330125
0.018024788818354804
0.0018565316953704795
-0.01866742628836462
0.010050835772370021
-0.025990890730573646
-0.015603386793378861
-0.011344008510633857
-0.016808738118071147
-0.013884105310465472
-0.010748346643541743
-0.09385579377394598
0.008193096904653814
0.05671612889260135
0.009801380522022653
-0.05520629299291298
-0.06082078282260305
0.05017211876149142
0.007522513266386509
-0.08123469046981215
0.12475530738798556
0.0031102074101934597
-0.007854630619729231
0.013078491223890452
-0.011527562951684294
0.007630755584569862
0.0012480974990514186
-0.022444054119449452
-0.001138392159255419
0.003909732662193457
-0.026605236520896504
-0.003539405467215688
-0.06689784264072586
-0.09921127203297324
0.06992068397968773
0.07593951725807195
-0.021929139654843426
0.006894195461508066
-0.008218027308263102
0.02478971617599803
0.009395493552500446
-0.01298182250685271
-0.03760645060408907
0.01951765569019088
0.013064433843632369
0.06101181604462483
0.04471001980089377
-0.0048799690149300586
-0.009216232752118936
0.009006028345443326
-0.003754599170586832
-0.012122793023789382
-0.024075973267448054
-0.008057886774116197
-0.02462053926073485
0.010231097614561676
-0.09218037147919138
-0.04183298670411344
-0.013479386013075155
0.012154509682002278
0.06258797466159047
-0.032710387521119245
0.005823757540589192
-0.005235721236278582
0.03179013854539716
0.019973621785081216
-0.0020457318627156995
0.08278954328704886
-0.01396422209436045
0.028064664411584728
0.10261434551581897
-0.057266286335765866
0.009572922963112481
0.05939189412270416
-0.018550554619940658
-0.05946542556747287
-0.006500490187824608
-0.03271380237532301
-0.002059841169466558
-0.021429817282564174
0.037619187012468705
0.0027555141663540353
-0.015282938344005789
0.02554595189045668
0.03381546609988424
-0.06236664501333272
-0.028451050822880138
-0.02753316763279124
-0.019165677137150037
-0.005681527118834148
-0.018678728705369428
-0.06662297553255513
0.051353611147418605
0.01104084367231375
0.03858380685519206
-0.0023111179214918955
-0.010346948362094278
0.05554168805709962
0.0272200644255764
-0.058021773421044295
0.04382841174923047
0.07198875699084181
0.06648911464937049
0.0014019340576716755
-0.019757138958699075
-0.03932472871750192
-0.048663982913166065
-0.030782768191931084
0.052118523993440226
0.04100141227496607
-0.028593871694719917
-0.025140212501736925
-0.01614443071777311
-0.012595408561590037
0.011718284661266043
0.004685609774194797
0.012309575529104883
-0.0125868780059773
0.005067509522781464
-0.072890734996007
-0.026677213670694047
0.013857607470892376
0.02283255809639805
-0.0904024149304962
-0.02090757128382286
-0.023130531839814693
-0.012410282438291573
0.004972475594147325
0.003868968297564541
-0.03910990293026292
0.013101465467584807
-0.03355161267487254
0.013800598573427133
0.06673369686372015
0.14354856693217471
0.05149676393949971
-0.013998259969124072
0.0036590321022313965
-0.03737901037476934
-0.014430057953206033
0.05683309488020159
0.1540063257266632
-0.005989803218397665
0.03004081199938968
-0.016157199964144633
-0.021156483914576172
-0.006900498435591712
-0.01471940088806793
-0.10717518411768394
-0.0777300074144154
0.02597319420965289
-0.011097438503210816
0.03556323027684308
0.025062302920430938
0.012269839397705791
-0.05010050050599891
-0.05568416223147599
-0.006744205072645896
0.0014289844759959877
0.008823021118617694
0.030630094435981255
-0.0644133329356329
-0.0007624907699929507
0.016121250777013405
-0.01952829038195325
0.008999258916588386
0.0016864925646572968
-0.034498624669531554
-0.01878516628260099
-0.008452371222777194
0.031106458926119518
-0.0018480463866216428
0.03166255665418449
0.023734692557015585
-0.015760271292194653
0.007150042154689087
-0.011122743342381562
0.008367071753986943
0.00470502881747916
-0.03229484867764351
-0.007609501491539102
-0.018877305818083757
0.06542453478986585
0.003967390990222786
-0.002885381428445899
0.014153298657386631
0.06570761740031572
0.1534981218731838
0.007159739166247265
-0.011467845022227575
-0.04695051703146541
-0.009775931345396904
0.05596182728595427
0.04340134460702978
-0.027179150413202874
-0.04630774726528823
0.03651638751271707
-0.10388452835023503
-0.24889508786927192
-0.013570200121699587
-0.019252001462546464
0.0009927646887512712
0.05719175850453011
-0.017575407642738964
0.004577737329785255
0.03975772390170565
-0.005273762886982182
0.01677511215854718
-0.014486787407482687
-0.010046691667724891
0.024636505797833233
0.03225640926173837
0.04853306688438675
0.027447396359310545
-0.007286753544821616
0.0052735995487114915
0.029031867665099416
-0.024133321393072834
-0.02004156319983513
0.020888863911529276
-0.015078331901463949
-0.014254885837086033
0.06629753983813542
-0.025954002448111937
-0.014347882901511698
-0.02746278792090469
0.006630918435162721
-0.014524721039032289
-0.016664591347198006
-0.0392370752650216
0.0050396431045585804
-0.03653237318510392
-0.011677954911959148
-0.019129030452954655
0.007147007555648263
-0.12502258727563123
-0.044119218464202414
0.18052224697193905
0.02238903482878412
-0.043308579208892736
0.013059750572690784
-0.05167426089372056
0.11840413219510577
0.14214316081328335
-0.04607809477382214
-0.0064977099829864075
-0.008052700651644755
0.03637633161685144
0.016300092352782656
0.0057743631942140305
-0.00929111725365986
0.06146229200800735
-0.011053251330694744
-0.014222873904244046
-0.030535321941076613
-0.021044743957726104
-0.05706708914716981
0.09421379136356071
0.09708412607993544
-0.046489884517023024
0.009198311024138754
-0.04639557891866238
-0.04962203517433307
-0.03898797122291444
-0.01809107196782112
-0.027254088276926026
-0.008222598029819183
0.017783658123608097
0.0007407624497730056
0.002707575360201301
0.046644724853227945
-0.001616504284538098
-0.0622010881793108
-0.0017595800000992146
-0.01674293100604688
-0.05117322897852014
0.046683617264800845
-0.00701569594972745
-0.002212945372368049
-0.01887079558508831
0.014193208777711729
0.11191079627259777
-0.04006951629944978
0.007507870477934783
-0.03073385502955991
-0.014769074670926193
0.0414710370655739
0.05222982607963936
-0.0038769452099282143
0.015744126316068533
-0.0030876008617636438
-0.021962387944783904
-0.018041859237978217
0.03875413882538411
-0.036276557467284753
0.016717340934021566
0.006786793325785935
-0.0655119913157841
-0.04536141731909181
-0.08272851345711167
0.04957814093148605
-0.002152066712456192
-0.019695621556694565
0.04982023995880403
0.0021247596484896183
-0.0140007520065891
-0.003358458630966084
0.013805004457390569
0.04506688914245837
0.024229770312518484
-0.04933667624130903
0.026222337487903258
0.0874135830547098
0.032734735009052496
-0.0064760784758096475
-0.01796789505245863
-0.041542725468226224
-0.004559584589402878
0.0018286579933773056
-0.011745293998390964
0.012145114161668084
-0.0052315965712953025
0.005330192278051847
-0.011821332981527176
-0.03522669407035173
-0.03277072099944969
0.028451535828813625
0.06715342569708178
0.002267851292495446
-0.011594027300884605
-0.01463503879991992
-0.016021817795269205
0.020423442180865906
-0.09106045137968291
-0.08532443517284753
-0.020713364973454818
-0.06299502373423028
0.03174758603070306
0.02554363079897025
0.012042212178579011
0.0031755683190704156
-0.054112478631224314
0.015353269705857797
0.059083437134497506
0.009593161539660852
0.040789682437955645
-0.013127618312659971
-0.04002354902084384
0.04991126709359264
0.03976119323800336
-0.007722088506925432
0.0041315423037646855
0.09641961664337187
0.07444192065318116
-0.007861672830747216
0.012145053983707504
-0.057060224906741855
0.04606458981897679
0.07899644562300547
-0.02186906050974407
-0.017796449053662355
-0.037276654274168285
0.00573059166297225
-0.049619386097626825
0.015003266748707469
0.11913930834870093
-0.013960585230869892
-0.026779271421510636
-0.1043636673522369
0.03127641022215897
0.005849062863485958
-0.010913122614539028
-0.03067091296339753
-0.015539800395887624
-0.01559248910093318
-0.016216665853972283
-0.10569905935452979
-0.03793595192866057
0.013776523104782348
-0.021120971098212427
-0.018347836514897683
0.08734786023695548
0.10334690840972006
-0.001966990937070721
0.050273249562095605
-0.08139974924558145
-0.17782483112156455
0.0674954591023374
0.02209047489952176
0.007857398099017863
-0.0032078430442493747
-0.0059958752566144444
-0.01388816621703128
0.05121951573866812
0.0520795675219539
0.022301758919402583
0.01703957283053028
0.032799101248204995
-0.05328826039224228
-0.048463797228428834
0.043141049253248964
0.029411614419428887
-0.023665082625329723
0.0036464847703460445
-0.0021657510639804434
0.006860120365323485
-0.025110023759192687
-0.013092114321772088
0.017545591543015406
-0.030692046382561424
0.006245039877244316
-0.03804659079899884
-0.007225653685463948
-0.014899707052495707
0.00912427929494048
-0.004375632396058838
-0.003927341943585745
0.038137075017981
0.027531600861468324
-0.003547216179949531
0.006262472156852951
0.014911310497850811
0.01125961560509606
-0.03792254170019248
0.07131940150079812
0.024635613440727802
-0.0002222855503417591
0.01699437430680624
-0.001994544778087868
0.005843193846162036
-0.03809043591820677
0.019213999392907573
-0.010875127203218673
-0.08682968538224795
-0.0167280490644061
-0.0683833297987836
-0.029180079407112012
0.044759768974941855
-0.023004041506025915
0.03138214742662663
0.017620594156410554
0.09122314029076092
0.013227934406370375
-0.03445404605772886
0.012774691734824234
0.001956347642765762
0.03062812439118553
0.041410957349227985
-0.05201969595429538
0.009996910289431539
-0.011484175622439979
0.023622821736242722
-0.07093301172509996
-0.08010148609025229
0.004534333560638456
-0.013139935920640913
0.002862005916328969
0.008304682474855786
-0.01679568424420106
-0.011341468928543106
-0.0036031433613056088
-0.03732393140743165
-0.0018893784563971526
-0.0073581297177878055
0.012931408765111518
0.01447647871213517
-0.014138405420929994
0.010907183215905145
0.06768862968897363
-0.011934932898859137
-0.04087519689150972
-0.007469833818477358
-0.002917770828092847
-0.0204844833711115
0.018564497628877845
-0.014362390636852166
0.12846595059883284
0.03163703053884424
0.004150926601758943
0.03535702249459042
0.014679640920655306
0.010686603349448673
-0.024227336487705354
0.03490407029861983
-0.0752472575341756
0.0071784341525199845
0.038795870194700134
0.009379350339822404
-0.002741763838531805
-0.017685217964549898
0.012841079376524461
-0.021009437953262246
-0.018852474082427278
0.0019801723637813346
0.014504701844489204
0.004014399574219249
-0.003368417639650481
0.11460079727031007
0.04876701458243726
0.007821390874999836
0.01351340114764737
0.02048353985102329
0.01856237334682339
-0.03131133268740112
0.023703792577261105
-0.09640812487736065
-0.12347916001792371
0.008222427254678156
-0.0009769135231277885
0.04170901838068123
0.0059995632946626964
0.004258125662541575
-0.026265874067770464
-0.008411370466748322
-0.1041477399249062
0.005212550262297375
0.05018562042020954
0.014971301786302474
0.057641847135876875
0.1016244733783592
-0.005737358183065227
0.03630027872110509
-0.05806460669762109
-0.052522663901910516
0.007896043906239375
0.02491004695731793
-0.02373903007009268
-0.18277405692889798
0.015790677838432247
-0.007930774040519109
0.04395438498597134
-0.09546669285664579
-0.07405984848298341
0.05861472419827303
0.02377584420499298
-0.07486732588591102
-0.030362101754954973
0.06401452608747968
0.0159848235832787
0.014264758063599692
-0.00831141410588106
-0.0051134898771242965
0.04972343684167344
0.07653555553747522
0.0015500871202703754
-0.0294595890960172
-0.025963533089203607
0.011732942479542655
-0.01365638005319564
-0.0026538231271840546
-0.07144425450389628
-0.04761545619533164
0.030886754635968967
-0.035196222160301355
0.1265088705570309
-0.024310260063437956
0.0015150275928766637
0.047122099577071495
-0.06644297931543917
-0.011875337271092176
0.0075406964912251885
0.04222987432118841
0.14941164906885837
0.009479925477122118
-0.06688651567310944
-0.04901391462652147
0.014555793170902364
0.006104411393571415
0.03160160119384665
0.025586240248680468
0.020707689812395277
0.03494243252840755
0.012098321256469948
-0.01825119288410749
-0.007875994899505391
-0.0442215619155577
-0.02015932334669308
0.011380195569524203
-0.009323529421743807
-0.0146991467263579
0.01461587696803951
0.0044058132782418
-0.05304480560553483
-0.0967059058409259
-0.0362395599992736
0.03175095469491033
0.00014547802299907426
0.028714861172458174
-0.00020250148504985635
0.07210146102881623
0.01125554518333805
0.04446409237826972
-0.02003447588731457
0.01095796319340157
0.03499066963639982
-0.016372742631625848
0.02991917506309727
-0.011080396568376243
-0.0311657893086646
-0.009380487635445186
-0.02636866054650934
-0.0054779503407409785
-0.04142647124570579
0.08608129193047118
-0.11566645979875338
-0.12239809887509856
0.019596712087794118
-0.02771002737708923
0.03779116973213971
0.05596390147361661
0.13865804291464717
-0.017386335089201854
-0.010217765743022193
-0.011240385978602711
-0.01615373441573903
-0.00228460727001084
0.025624798755137446
-0.03311119927014929
0.0005552030628449554
-0.020347998709866096
-0.011120850413019039
0.036846939858599416
0.009340987110810188
-0.004267056578729951
-0.012582817333828534
0.031143058368205953
0.03887096115671461
-0.03162192265941407
-0.040690659593152906
0.02247870300293019
0.1400001207947878
0.05462479146477975
0.07358149464311069
-0.02948504301722316
-0.052162929504893
-0.020734789520504615
-0.025628943819336246
-0.002654513992069584
0.03566143118984677
-0.009943962710703896
-0.039926448580764426
-0.06641504045270819
-0.16685897085095552
-0.03441707962306455
-0.028722018330621567
0.04848444189426045
-0.051893324871362875
0.026575631560132103
0.1819474686442801
0.01540442036466322
0.04495656149355529
-0.014273018510067282
-0.020474043822914376
0.017008660722016813
-0.011275665057299246
0.011589415412056147
0.03079091956688003
-0.04416770529624605
-0.0010748441854816983
0.007096702522479272
-0.01165216608690728
0.011131201106190244
-0.015361643074112832
0.020570124201633698
-0.056049046828685736
0.05618249552148274
0.05934529130957632
-0.12694226755734642
0.04578627446435662
-0.0254645318178888
0.02154067631188646
0.011872173545098659
-0.01858121062824696
0.0029388414534381965
0.02156689177672603
-0.18741000608096303
-0.06587538467534297
0.008984458866124333
