0
-0.04824766523245918
0.011896470615002588
-0.023629425920711693
0.1178145042474638
0.11305051680005816
0.026116665043407084
0.023796449940525287
-0.02945546229315573
0.011221750264150914
-0.07226972844767245
-0.053484494255325955
0.007740982754265678
-0.0010435399776495655
0.007205471917162911
0.0070662267513222805
0.0057231747343529015
0.02668497147857482
0.044966756504298044
-0.018453538670540236
-0.03263484837243169
0.000832348919239429
0.016642626720538102
-0.06027709420088954
0.007940477486502567
-0.005438650969377281
0.03376855667987247
0.05189013248608375
0.018929092600635564
-0.005205013915468391
0.003767748538335914
-0.015615666770876861
0.009359138009056913
-0.04832918430313055
-0.09199088578575303
0.006708919400991363
-0.018652502993373742
-0.034436812349559295
0.0560660553036264
0.02061119834309142
-0.00035337290375693747
0.01348344670560845
-0.006030433992880303
0.011220318878071699
0.022387732443572336
-0.03052280706622605
-0.04670012703500176
-0.008482762563609634
-0.03221529032246268
0.010220957076252294
0.0025152762840136337
-0.04435602082765224
0.008913190028575213
0.07592768811362553
-0.03325726547894803
-0.026068833584602605
0.06765893675043741
0.03148856587313931
-0.00966961136582268
-0.011561365161630987
-0.020593890346722828
-0.008714720956715338
0.024425654773010758
0.013985316851725424
-0.02659211502422064
-0.026504935403156772
0.06143140337936012
0.037450382071156
-0.004750589871406942
0.00849243795801485
-0.035354955283381215
-0.05796708389286769
0.06337365150638245
0.032215539543286056
-0.022117073051385747
-0.021244172627468756
-0.02551655204211128
-0.02300994805624638
-0.011274858357564742
-0.016001057296358617
-0.004053643911892944
0.01999917282912854
-0.008707204242599312
-0.0027773790198388623
-0.06862743529319716
0.04095934669336464
0.018139639449375626
0.006572249199915475
0.04689205785415638
-0.015760813907823218
0.031721947116309795
0.05403940183702467
0.006646837433365878
-0.0043979011243491855
-0.024936569467170114
0.0011714177925187246
-0.005399623898606816
-0.0010432328752541578
-0.009035248811317393
-0.02916307039877325
-0.03703194176649166
-0.012463796938115305
-0.004796555605290663
-0.0022618750519058477
0.11096476625702113
0.0013247951276403006
0.024666579602696654
0.048518901647535764
-0.010914242859395651
-0.1280528223185537
-0.10291252214151021
0.00912737221295179
-0.01652819384774737
-0.020506207239542763
-0.03311156864254118
0.005939707994307928
-0.026449082505369825
0.011997421028920048
0.11349768990937766
0.024940444025271284
0.03153304663261128
0.044205381875933224
-0.0409885873913446
-0.00815071011297801
-0.035249636010834924
0.0160598199645854
-0.056795544110274286
0.14236552704902147
0.16440000307547648
-0.055190817739905175
0.019004674498944617
-0.035459447814200684
-0.0066035949697590265
-0.04314334435079809
-0.014068974918520884
-0.06589792757016892
0.13647282703640232
0.08827412979403133
-0.016508999964973462
-0.008702549047201004
-0.0066172270377481196
0.006739269934424527
-0.021280904246391803
-0.027784067064941506
-0.11147796773911943
-0.008106129197794843
-0.03552041208654983
-0.00935168404420615
-0.02764930775154617
-0.00322144712792023
0.03654844064561817
0.05398850206288847
0.02526062857749897
-0.062075869507751825
-0.000984299031720186
0.02558689647775608
0.00523130427661097
-0.021112296689311152
-0.016991150501008283
-0.014279059927179621
-0.013212589069282514
-0.01232972441526659
-0.03951126026062789
-0.006892828466613584
0.001113147037916034
0.02988986925342879
0.05802919779375454
0.0044003773587970385
-0.00028589099689325345
0.00025334042889843403
0.05343096988377343
0.030288105322919475
-0.01592023752193904
-0.06381643291441103
-0.034244342547054
0.022536020668068254
0.03416380811983853
0.0006490586005262715
-0.03500345829054953
-0.0080092474718882
0.02576032667502803
-0.028243080876980263
0.0020090739983087778
-0.01058636254173165
-0.03824093791961299
0.006970178134849489
-0.00013301151751996397
-0.014550482770634676
0.02697158340710461
-0.022433300645601006
0.03468508649387159
0.07189652184159746
-0.024983175694065933
-0.0006583211018926483
-0.024855368022551037
-0.020047596214836566
0.008540287711160652
0.049486054132640137
-0.04211716884334397
0.03658043690927182
0.14583918029417334
0.00994166225534969
-0.015599850185145694
-0.03829881148929015
0.005723840839288677
-0.019880944387631116
0.04074398368436098
-0.07197365432524573
-0.11176978214542888
0.0004249506729222148
0.0016932269868730962
-0.01580082200940646
-0.02340480177475535
-0.003566869646701134
-0.02788190427696539
-0.0341440152800914
0.0020192952367487625
-0.008129574029606273
-0.02088392055816015
-0.02576220778567022
-0.044349132856643186
0.016801946418259415
0.03155764455092614
0.05314019566885731
-0.018945567040544075
0.05754034916151926
0.045343278620246556
-0.051587500249393126
-0.007312223387098129
-0.0014032280402626574
0.018833877885502313
-0.04504455468242802
-0.006104227230930156
-0.047839419566245336
-0.022057984284680046
-0.006366295305913227
0.021246249923387917
-0.0354178664164505
0.07310106284040113
0.1284700931305814
-0.04644217604330656
-0.003171122142832669
0.019458639800305023
0.0006601106211450884
-0.02002070025102317
0.09851714101673627
0.08156469395690193
-0.02327026330862141
0.047511252762519426
-0.0038133587461535155
-0.01668153070564665
-0.07551729286797491
0.08293467696947959
0.11534589178883779
-0.012133936717684587
0.03313080310011553
-0.04685078898855553
0.06179401881572708
0.0465323098017754
-0.03141967458167954
-0.028708357570884455
0.06105761109444881
-0.0661456462692697
-0.19905800731291873
-0.029036262327877933
0.0053155274115954465
-8.903493300289711e-05
-0.00880154939714172
0.01578618824888166
0.08151622853295255
-0.03665564383435454
0.0329082919100593
0.011198268772627834
-0.030705866278198473
-0.021150482598444743
-0.015613591729023522
-0.013589038176661539
-0.013697674445182951
0.001844308670695325
0.01798250149521989
-0.05934949634763779
-0.035065257733782815
-0.0022972811058926913
-0.011182716075818144
0.01660491313681987
-0.029972998197509815
0.041750904344796454
-0.006829130983380356
-0.06154452686012239
-0.012566480833829073
0.024887741880316144
-0.015739392571840653
-0.03406809635763477
0.05903518612454057
-0.029637839186794655
0.03951617760230962
0.010333506574868688
-0.024880589117887316
0.031007805943919362
0.014054687426090569
0.01135093798624589
0.006571305386821822
0.0343897736524378
0.022654452333114673
0.03824343375992941
-0.013224125501275188
0.030948237606821215
0.035119336208813905
-0.04698654328301962
-0.02321635127462177
0.0002745358575233919
0.008154608238679644
0.04057747534335442
-0.054650117332578484
-0.031119371543536396
0.0271216905112509
-0.0023023456326922848
0.08139665029710307
0.062426695938683024
-0.013471075943650655
-0.03348150075364358
-0.05055794945792152
0.014502406547900783
-0.0159505954209197
0.044433604577350225
-0.055214522404243835
-0.05532467880663143
-0.01667900546020796
0.004104727910692365
-0.002925470352721008
-0.04768536264355426
-0.01762785239968935
-0.00282762160379525
-0.14350821032714423
-0.07992017691825107
0.02553111273370596
-0.01118558463149156
0.039845547402278234
-0.04730155048760744
0.02876130801946278
0.048319366417675085
0.03385490593404376
-0.0321021620287872
-0.02209317843991299
0.002928429209874425
0.0040437967519198455
0.015964370770156115
-0.004642361647856325
0.17291109622282688
-0.011174055431316148
-0.024017386773264968
0.008360966870837089
0.007924212852247647
0.03585547194049587
-0.04662952329612957
-0.05421799360989973
0.019052924580678428
0.027607151879923488
-0.018492005633684704
-0.00557643647644749
0.02079524926209512
-0.0023382576275248
-0.023098012347104284
-0.025965118264807147
-0.025672835810816932
-0.021850267114434146
0.022889628247703974
-0.0131153971716192
0.0788940651501074
0.03137585358478946
-0.043013559697549934
0.12714856977326422
0.08362922094757126
0.02991378685017399
-0.010150895526043641
0.06945352317117884
-0.035895168898740955
0.0019932438326907983
0.028213502315664215
0.0035713758835939193
-0.014327360405166151
0.03043168903676343
0.04473283213067319
0.018970496310089586
-0.044102832544476056
0.01899379820255218
-7.14228300562073e-06
-0.02434313956531739
0.014121162539695342
0.012597080317105854
-0.024997376286637174
-0.004518579352420982
0.039034644092576364
0.010496898684225134
-0.03180599545318733
-0.015153042373552283
0.02066399528909774
-0.03780089722127762
0.052744773604487
-0.11553669884586557
-0.1967564576458436
-0.06525405459058146
0.0447831125561486
-0.002544352077548403
0.0354977359412036
-0.06979477213995953
-0.171400048415013
0.009012877999446882
-0.015113480793065097
-0.017207138887310708
-0.007785894245746244
0.007740431234381908
0.02151603583846674
0.0064417031006158134
0.14416901826023254
-0.014171891031064214
0.02374624410754711
0.0045593421862252246
0.019904940619229677
0.17520379260194727
0.0028524895901034285
-0.03355429885945718
0.012893476960401485
0.05712458934853565
-0.03218037135100412
-0.008235835778155043
-0.016270775359896263
-0.02091205817018027
-0.02781537209653478
-0.020388554160274568
0.00045398379452210586
0.1028302787417743
-0.03097842233798859
-0.16845026898248117
-0.002681605716975196
0.006889969967302075
0.036274471142073425
0.007950793260885259
0.019158954831699767
0.0026998934200499623
-0.06122332024039921
0.014668410687355717
-0.024786869265499625
-0.02697012490467972
0.002011147456453727
0.024542606319746415
-0.011737935529603366
0.07445187343707692
-0.02493744477395397
0.019780519823498762
0.01605302959823723
0.003399730884353764
-0.09362337867290464
0.039683777782314855
0.06701422428256655
-0.04619944366980808
0.007470321564953831
-0.024169653088868558
-0.10193034394289742
0.04142896629607215
0.046958121990735874
-0.02016427248381442
0.045976297399899904
-0.00844165218394882
0.027852566214450834
-0.012150802897363143
-0.01810928944904481
-0.02277647331469605
-0.020321409178083706
-0.03078624525544385
0.06812718970999515
0.15838420305365075
-0.012169542330728367
-0.005418990601808399
-0.016161436574385946
-0.014742443053041546
-0.0030677675441304043
0.011826259305793384
-0.030183009836920748
0.007460240895682457
0.026269707428754285
0.013939875582193536
0.015489190139460256
0.0183195390225682
-0.009304670676437447
0.089745279377457
0.028554426217526834
-0.01968573317306818
-0.045793721348271005
0.013064741734657633
0.018852585853849135
0.006177438798622073
0.002384335034167551
0.052807856784391274
-0.018314730954163274
0.02928550352081681
0.023501214923500095
-0.04668314491819841
-0.010884587134256612
0.012941386863492388
-0.005603946482175039
0.004325674153223773
-0.1475664737667611
-0.07845533907670821
0.026809784330329767
-0.00999227774952823
-0.001463597555453786
-0.11744909664358287
0.0007843116270231809
-0.05406043283620082
-0.22936826891346623
0.10093404516758837
0.11839036033556198
-0.034802754518903335
0.00039936105094582047
-0.011106113192713946
0.010627699139598702
0.0014232692050379866
0.0031234673733998735
0.0302702971928822
0.010660694616836358
-0.02474625303786219
-0.00858456110418002
0.04271942030272902
0.041653079875639515
0.0075692967988428145
0.005501468668523478
0.0028119467406441854
0.000542197611032115
0.03865606613555463
0.08388839906077179
0.036450197210796065
-0.003917556028173666
0.004283130083502211
0.017468398179690762
-0.003432567062335992
-0.008784730019118711
-0.010780076124758679
0.00020824886989386776
-0.030067473943074626
-0.004602441223476195
-0.01847032470546954
0.033381789324453626
-0.004673655702657632
-0.023737219734671206
0.005542147063055057
-0.06428181476119553
-0.03306094079859519
0.0879771269172017
0.05539769444519935
0.007917480387179491
0.029813235896574596
-0.008813156624450173
0.05258238271712127
-0.01114909371533974
-0.08389468985270535
-0.0043244242588617015
-0.0305569371563864
0.018875963492078384
0.03730796986221494
-0.003105274983422527
0.01967540762637052
-0.0231335299290791
-0.021246071986539782
0.016107055463315294
0.04147996976830767
-0.18422220480915077
-0.08481898491199101
0.042292707404052575
-0.0635912101887274
-0.05138786924120118
0.02334545562238555
0.08274908952172022
0.0743188031306537
0.059214091827390604
0.014059905118252197
0.020481893319842886
-0.005541984707516646
0.018118922816405487
-0.04881863235290149
-0.022710235496240756
0.013865609144756813
0.022129323197151617
-1.2634587855851059e-05
0.03392086824048617
0.19240940301249887
-0.02098556542705506
-0.08351694661024266
-0.07648681498877798
-0.05403105853497783
0.009161723057117285
-0.02898981823639399
0.007828400071989603
-0.05714876971357844
-0.04620121531826361
0.035916889414567416
0.005987782207769198
-0.05802664535163851
-0.002765560199747662
0.058902223308601856
0.040376770355494036
-0.057193427335763394
0.0029243129566642926
-0.024701211297600584
0.005731248612247669
0.031195472392902747
0.0035908285208281765
-0.0023007418697302442
0.06975996080073929
-0.007412821508643401
0.010657574382328434
-0.021664386201815187
-0.032411408778554446
-0.06604747429351575
0.11659950861598319
-0.04423293211852403
0.1044103132108558
-0.03541150980101098
-0.17024199851192945
0.04514577012280203
-0.011482326970213608
-0.021465237077949964
-0.018289663011122708
-0.009091710570295564
0.03734681478236316
0.06163907344416754
0.14373132286458795
0.0019896337143151493
-0.024694184739447338
0.009662253251443355
0.00955342192963468
-0.0009231162713578502
-0.011168574473509605
0.03563591926466449
0.014819108790937383
0.0019157228006384851
0.028373197612794946
0.015258430636296536
-0.004996471468361373
-0.04602569204923194
0.007326929318220459
0.011244542997937071
-0.01251961856003649
-0.0811246780718116
-0.038507776583967854
-0.00086228621423615
0.06038929615119569
0.010200139790515523
-0.04130421917314963
-0.027085289467961043
0.0031098623722133154
-0.0017393445373213537
0.013853068803388982
0.016801355792376058
-0.031930309976939575
0.00249399825574778
-0.023463421058830362
-0.0029320556101373944
0.015134750463765913
-0.017113459562932257
0.007047919375602279
0.017290144438635812
0.02555014740984907
0.027348120018395254
0.008180242831839097
0.03853527025010529
0.014695042600949572
-0.03314674408766858
-0.08195387198553049
-0.01410788663485111
0.003123670623524463
-0.01834773520411349
0.017994110537821302
0.066476014606044
-0.004062167454411707
0.005308799947536904
-0.029984866128934317
0.0048593678358514894
-0.03647053784476356
0.001236211951560951
0.01595757586436168
-0.005676165453488452
-0.010934196670004491
0.09368316856052915
0.034598380598546065
0.020374985723213262
-0.03967245024376678
0.001318131824742298
-0.02341209918788106
0.038571416801624674
-0.0712531189648625
-0.1403433326569507
-0.007571705108239375
0.052827524283775455
-0.07207565826817748
-0.14457157521343328
0.025281784656697164
-0.021880779267884936
-0.022005325588813348
-0.0020665585664904943
-0.004752004452744974
0.007776423085310143
0.06024591224562982
-0.014735433926664149
-0.027160234184672664
0.0014922731158570346
0.005571122765366901
0.01648569604285572
0.02280428910250028
0.06041371100009377
0.1991183921162716
0.01241234809837846
0.017128688811676316
0.017703569273815414
0.08639183785211563
0.07581797223045895
0.004138680071951
-0.02097000611474304
-0.008297053575272752
-0.01605835483923989
-0.039530473225436645
0.006556057680564894
-0.0373019904423386
-0.03872364495033546
-0.0318651409512144
-0.024937004160787462
-0.006249340328543179
-0.07184105447969612
-0.031755126009973586
0.008451103361928938
-0.04212717764956285
0.00411947777816675
0.01913555284232721
0.03166355215650802
0.00037118522106309736
0.08907429052771676
-0.0006658142028828636
0.030959245756347644
0.07836502573794445
-0.016219837167471194
-0.0013252786422710526
0.010083275162624241
0.01307880724152094
0.02053060513153202
0.07940868712536578
-0.03257535486740557
-0.051626075590866426
0.0028855335453059996
-0.002804344264621108
0.015076865557415628
0.008196633730238045
0.011097510864847893
0.010966925761948808
-0.05528510227218834
-0.06910150055525564
-0.17042305226257703
0.005685546557484275
-0.008689148976728059
0.003544619663461032
-0.0276908118689763
0.05013175789462666
1.114823109453203e-05
-0.021585902917481633
-0.002244998115615633
0.012238324893860805
-0.025766849937007497
0.003181283603919947
-0.00715871537870495
0.009055078150167034
0.004680799551529332
0.012579174529771753
-0.029838967348567693
0.017090301337544873
0.018484072027752024
-0.00048746583050148006
-0.005304240690642011
-0.0016021549350805
-0.01977670584753419
-0.004019634012195908
0.004311220329377441
0.014263254190967642
-0.0022152373763477517
0.008283199817416032
0.01856855777944049
-0.004206953215495239
-0.023484283029018838
0.002839075508889355
-0.01652726844547446
-0.0036424817853003273
0.015518771564467895
-0.042125058054751696
-0.0001364614214701445
0.045785448162594715
0.04409222107303942
0.019453617516952123
-0.01994689671432084
-0.00894279378805426
0.009339006289941939
0.11926007322030364
0.002545937884230196
-0.0764792663145376
-0.02597468174338869
-0.0280254487462258
0.002656117179038553
-0.04003061979802616
-0.01475641733891445
0.0466894878953826
-0.038424252325219385
0.0314221169294065
0.05858491344208827
-0.02021338505134778
-0.02342898791968371
-0.018857391076189348
-0.0020071283065951186
-0.004359832611765252
-0.030877957657344603
-0.07727357727298798
-0.05184899921178922
0.009369474297943003
-0.0002044085562297389
0.132679801429599
0.01916532959827694
0.02064229677903661
0.0063795303667288005
0.06310226254501085
0.1194926841969592
-0.06488120641359003
-0.014332268282343743
-0.05415122983381145
0.013303432126407068
-0.05644170773229592
0.11210040029718732
0.053397810878069114
-0.040567856386276066
0.004488674276352577
-0.025958105666805738
0.002197600455935747
-0.017715500097428682
-0.009774822936189123
-0.01202800567389203
-0.0024490378847858586
-0.011195500979011223
0.0027654432732046206
0.04138750539146502
0.0032434004234749175
-0.02218011257877599
0.04441418617016488
-0.06589853517480895
0.047061193308049004
0.06681554673731359
-0.045532602595881946
0.03193914500749364
-0.012226237054503698
0.003071576001859285
-0.032823814056687904
0.02100015193373067
-0.013250776476821557
-0.017334163110231476
-0.027697266456280706
0.016658161832015246
0.003435408411857845
-0.011290206376695044
-0.009437272734262278
-0.0328455745997978
-0.009701468185780701
-0.014363252493628074
-0.006480431791659939
-0.0002631910929878507
0.020099817686302188
-0.022263676656075537
-0.01672020588540878
0.00587231590697013
0.028353639837633293
-0.0062897435896603964
-0.07568806850325319
0.12713287147103933
0.035708795077465355
0.02171315011743205
0.04274236082559724
-0.05508433180921745
-0.01520746663539429
-0.024203179880519014
-0.060956864434431504
0.005903973721034609
0.016981182483940975
-0.013483806638409961
-0.028319263751132466
-0.05677499839402428
0.03311619689930448
0.042255646623373645
0.022173479271057225
0.012543598488772317
-0.016239279076370634
-0.0053457767976150825
0.010139143980147092
0.009190011479898863
-0.039540024447740095
-0.03572745584030391
-0.02841984395397572
-0.0686405858828318
-0.009643168928994998
0.05607193664574356
0.0024569715159575415
-0.02544685998787792
0.0015298601892847607
0.013467622378279415
-9.666865371351702e-05
0.010007242435732732
-0.00503341986148777
0.1156845306887096
0.029559606832436892
-0.020306498671525893
0.019078264175594602
-0.025724123583715685
-0.03893996478006589
-0.016719154930662228
-0.016656546106742224
-0.004002575756309873
-0.002080191466110793
0.0322820693774028
0.029740351242023302
-0.016098483474973155
0.021169049484860397
-0.030447978073924884
0.05942660446613035
0.0655244472461042
0.005351694528642474
-0.01484739677628625
-0.008284807561158066
-0.03986772003722403
-0.022881811660092365
-0.004551778012706171
0.01571370210314537
-0.0156449503232684
-0.02308207534095763
0.0031401229901664297
-0.003978405424610641
0.010909753821703613
-0.004362000275517032
0.040089596853292005
-0.01857623472413509
-0.014002650439477675
-0.007430214314571468
-0.03688949767135673
-0.07886432784098739
-0.0038247626198666842
-0.017801902916125944
0.028783422027581714
0.09746658220575795
-0.015755007361673363
0.01846121530115095
-0.008159339377061127
-0.014158571567395889
-0.023340111893957554
0.0325582087522848
-0.0016634638125125987
-0.009395345453940326
0.17331260079339614
0.031337063025843284
-0.05754717111072034
-0.02955235207446118
-0.022107456096439364
0.008606972535103148
-0.01784034153456837
-0.013703729814338178
0.0009972878419988044
0.0422006488900077
0.005193220508024263
0.0316040783988161
0.02850146604532023
-0.0007894237023350802
-0.0277521356665205
-0.09205582548132663
-0.024118726880451035
0.0262219648479183
-0.005174713566338324
-0.025696724743066657
-0.03168028798470382
-0.03385958078939884
-0.03734678772090198
0.014234261667260086
-0.010038133778252526
0.0063223596027399635
0.008972212375167004
0.013405331483415541
-0.030408377194708583
0.055740682137339355
0.12604309051631685
-0.029354294401137866
0.007590829570330196
0.04654019710428558
-0.051802378323493756
-0.035318171816369766
0.02055978534658134
0.032076137972981
0.015563350799486092
0.0010613483335020837
-0.009227658828499961
-0.057845049524849916
-0.022061396746860983
-0.003208003132634774
-0.0881786197082655
-0.003012914208189752
-0.009125434794308274
0.04470054723105685
0.05245744526326498
-0.01669971942003465
0.018022408283454017
0.0006413973653058081
-0.0024988906249553767
-0.0425771035195985
-0.039222637662718995
0.003717315091563076
-0.023793928385469214
0.05849502845168824
0.05702305397779097
0.0448319645381748
0.0636138516402114
0.1657103962439859
-0.11567743877348659
-0.11356926891073554
0.006988356529411749
-0.02167456670642303
0.04301210447269967
-0.027905624401887003
-0.03855315434868959
-0.042301201036599734
-0.0338313561997205
0.018107588216373847
-0.002407794440221486
-0.017598798172841684
-0.01129153024530215
0.0386663872583825
0.012218982068622932
-0.012299309922416082
-0.02330700351764444
-0.056124555846849396
-0.0028617333368032927
-0.03758740197691002
0.16180205258818892
0.09702810057608709
-0.010877211891680151
-0.012150504776807037
0.0018930196269115965
0.009239338357546834
0.004350127366841363
0.00016040120073018937
-0.012210318615033331
-0.026489965982658622
-0.026688284213580164
-0.0018343249429342663
0.02743342638988287
0.002554185909176866
0.003087061118921159
0.016031326170984232
-0.004890036765255452
-0.022627586413361177
-0.046863648812461925
0.035627422141140785
0.0761582557634773
0.005190422046623745
-0.020700120385433795
-0.031819271546503845
-0.02105180163710374
-0.023063154677340752
-0.0384696210205955
-0.048936307430341455
-0.02888339031359903
0.002177371393472441
0.05217056216643191
0.014496812538690822
-0.012643045763945962
-0.002700747743782589
0.016547061580679426
-0.02854863188842864
0.0009514787549316617
-0.004182814127937182
0.06977471345041424
0.03723995612359559
-0.01604699609434909
-0.0116379077763184
0.0011396517163933962
-0.01523098944967522
-0.025509516637950567
-0.03998814218363158
-0.01283360094689969
0.04936668117858039
0.03419452607621728
0.05857306572712289
0.04750420203173822
-0.04974990602703962
0.005096819582898606
-0.02684876886125267
0.0215261173574689
-0.047901980964978
-0.072280991883204
0.008071366178401764
-0.032623213446702284
0.0022301293593156965
-0.03713965479412323
-0.020329986499458927
0.0014771615793061487
0.024417898727272996
0.014104404185173376
-0.031705438644229464
-0.015416696779398206
-0.016607074322825797
0.014448851407110611
0.09033141120561204
0.032166552929361346
0.0011499959321979469
0.049869277585277594
0.016195653602176237
-0.006075968579817775
-0.010194705130056466
0.016190288512355537
0.014626200121864474
-0.02787071859069374
-0.019906202221547622
0.03033231118086799
0.04185087554437391
-0.0012471442987037912
-0.014399927372120385
0.010039189174768823
0.03993801970517557
-0.022283107743858943
-0.024705541626930866
-0.033456606828514805
-0.013291734119256162
-0.027072933950275553
0.0035549534556753274
0.01555052555010605
-0.027945098130671506
0.005780030687080886
0.01961872110965758
-0.033750522073035645
0.008148286576518839
0.013715435009481292
-0.021495796972466993
0.01718041236502249
0.023892644074742786
0.020831721666125104
0.025318657936113438
-0.028762344728585538
0.017700251474482544
0.005405642578574451
0.07055730108400948
0.022381810595203295
-0.00627532917194043
-0.03596656490774536
-0.001025497122778576
-0.008235045482433425
0.056573931171559545
0.06178853640574346
0.007534085694058104
-0.08540892934055372
0.0006698087545222992
-0.11002576002840603
-0.06639910609894933
0.07380614088258988
-0.02959345164300836
-0.02970157061361396
-0.0023865134326735006
-0.0030885203818477825
0.055329863916180215
-0.0026208454191405093
0.017826184093235498
-0.034620962585889634
-0.0488349129194491
0.02033044899380154
-0.011041805976165324
-0.01458339537352972
0.013482510389505598
-0.01782404427024355
0.002120127833893768
-0.020758652623748007
0.0010100477186282433
0.023336882939316263
0.018926482604156632
-0.03561500404220274
0.011330355910460017
-0.04972959039123919
-0.14692898886894623
-0.031030423090278886
0.09968823380711743
0.09923103253534939
-0.03175004035625188
0.04831163181483613
-0.05921335216905041
0.02080587271866625
-0.00259516311279718
-0.008148622117728032
0.025693207999591103
0.041097591253445594
-0.0721995020371674
-0.030449094347703855
-0.0007664998274221471
0.005966740713285451
0.009669263593701823
-0.002515689098750645
-0.004197546220456494
0.04318156660504161
-0.008955435417459884
0.12431635549205723
0.04874940035323535
-0.0068278998625765225
-0.019537228743477415
0.007725973196231514
0.0406429111101984
-0.003580154235330275
0.013558831119758879
-0.016712081089260856
1.4690977612028085e-05
-0.03311001411687265
-0.02037477201167318
0.03734405710296383
0.0037742550477956774
-0.06303013559630816
-0.0004475951250136432
-0.0153479200959783
-0.01404474514799062
-0.006218023384570517
0.022033512154310247
-0.021484117764693018
-0.03453651503842563
0.028446146388736243
0.09486908585559088
0.024785340183727304
-0.04560999079690033
-0.021295664481262362
-0.017898280880369946
-0.017731815051154454
0.084646341486048
-0.0021905971495244413
-0.004058874311447529
7.438254139367111e-05
-0.009408506180393478
-0.027832124217850862
-0.0011855704459198453
0.0018349585796405736
0.02330893379137097
0.003570351932574858
-0.033961348405512265
0.029508154153575734
0.020809097822233016
0.027322199423648667
-0.014217514183880287
-0.08237230831403161
0.027786973042947104
-0.0657660753835853
0.008868505473206811
0.0014980718454612283
0.00986011490404782
-0.004867606779692057
0.005876931608471561
0.011843285668627428
-0.04362476124686014
0.011602224826124934
-0.03533590834988273
0.01794865618988578
0.0408132868289712
0.024143347034906535
0.03545316978428252
-0.039230147531690865
-0.018787547833358488
-0.0396478627855216
0.01394488468508796
-0.006898554337085811
0.04273048065632079
0.0012258546969628715
-0.042958215698491536
-0.03963177309236715
0.007932271219258597
-0.009304610176620492
-0.02001539206605618
-0.00186616913289965
0.02838175578314601
0.0013705836301711532
-0.01701053031659296
-0.022628175808607248
0.14944153946928462
0.050558625690791906
0.007453389045668848
-0.02018014496507017
-0.07401233104866127
0.04284405375138558
0.050265027337735003
0.0004043104705115479
0.033214730435515795
0.04587486671249683
0.0073170437821140875
-0.05514056978901809
-0.012472597693496559
-0.007427247331163554
6.85094198185999e-05
-0.12862743855119982
-0.033190924920964454
0.019812608894453982
-0.01713780152301783
-0.00016462025374842029
-0.0391473413525407
0.011914580822564852
0.04860418421042319
-0.046124423107001634
0.10904952120354262
0.04772765080566047
-0.027171777178494033
0.02193236647487748
-0.012459362994039299
0.007060724313280891
0.009693153171003468
0.01106501779161494
0.008321187470819313
-0.0027162790118539907
-0.018591486172669095
0.012671672628880633
-0.00017447958294389856
-0.0228450886805844
-0.0536980810079996
-0.004886371670293523
-0.018240310665604272
0.014212351264286055
0.030101097298732938
-0.027860414296363486
-0.005666361054131845
-0.030655329178083682
-0.03529706760134645
-0.026184811734447103
0.0006693919689904867
0.024973428709108136
0.022992606545247794
0.04344958185566547
-0.022161041700636444
-0.023525533612078084
-0.024406606646941695
-0.10004836540735368
-0.02867848338509589
-0.03910358782990019
-0.03051546164749757
-0.01620840744996761
0.05391925528751671
0.1339991525796192
-0.03805975879951722
-0.027981299978407457
-0.02663896645990455
0.08925151170115843
0.03637305180664569
0.013840003819210581
-0.005738136952756407
-0.014938880462359817
0.03396631750690738
-0.0005464273836052993
0.049325980292099086
0.1315707481043079
-0.05403756193373007
-0.038228068201648466
0.05929524801276234
-0.005246368863134533
-0.010036534059058412
0.00920863118497712
-0.02401985181938148
0.03614389391706456
-0.009333962299711654
0.029745885758255756
0.07069878000979157
-0.04772919520148534
0.03138853228389965
0.03666662239156458
-0.01427802025505022
0.0011988377613664511
-0.03481046580801231
-0.03197603242870578
-0.021329181559569747
0.004092892254129472
-0.029336251951733013
0.013110568360967313
-0.13135902274387476
-0.05336574496933981
-0.01681938988081503
0.0710476717154243
0.0055279763532762585
-0.03389123381753822
-0.04888412117377234
-0.05009337873715171
0.012558368746142044
0.06986726757015083
-0.07792976768887509
0.039003278806107246
0.09861993429086496
-0.057291611043918445
0.004628419058824859
0.0036679056818187394
-0.014591499136607435
0.028024396617306113
0.008913719320081863
-0.007144281839781706
0.015970079255519302
0.014781630042552375
-0.0004379334608337959
-0.004630689989186442
-0.013538336195670807
0.030315410492595406
0.016787150002886966
-0.04089898403374952
-0.0004958408126073101
0.00812113027047715
0.013668408169494637
-0.003087043823329599
-0.018730068793385412
0.012867759211707774
-0.014340441776773611
-0.016506922363633523
-0.003368050849929112
0.03634035815223374
0.05119979924321541
-0.016471561102364335
-0.0006427219531563772
0.0047392871329971905
0.01303458714565771
0.000892476901017097
-0.008965234319446411
-0.013211088399448428
0.007307999705727632
0.0051491106297527805
-0.022595349557192362
-0.012774527615006836
0.0008174846246085181
0.024638747622343984
0.04041445570175974
-0.03573410156162674
0.04871758744926183
0.026511719629347993
-0.01198536390743226
0.017948554828649644
0.012517660518840318
0.02680420345451967
-0.029929857863111347
0.0037248317635695835
-0.022562293451868023
0.004632250846093577
0.0014123917110718258
-0.01765445283954801
-0.011859574759929981
0.010716457550587614
-0.0573474349725813
-0.0007458987444367502
-0.04293165188919482
-0.12705735370005763
-0.004410170185613228
0.0038804386116396534
0.01794321932144336
-0.08128263078643813
-0.024565046880579363
0.010603854151090783
0.015425792276197484
-0.02194610244741614
0.027168073665390684
0.06275532120827283
0.05922463131025208
-0.0009138864709441854
0.0191439530351734
-0.022635086257474443
0.0009383145066933168
0.021845967491565275
-0.002455321346363429
0.019477872911507425
0.03603630977455384
-0.01901822032944875
0.08630078302305823
0.018891173902723043
-0.009748733905027921
0.0042136701644023295
0.01080399217044314
-0.025515685656765555
0.020539500268106987
-0.027950580758490603
-0.03597013448304936
-0.013405840182991836
-0.03077974247048071
0.0010916747679109494
-0.015779584899077596
-0.0018484884133205739
-0.03245928891908308
-0.026146745600238004
-0.10885871779451675
-0.024944789363290046
0.17665515054309588
0.01282367992677078
-0.04277266878391398
0.047424265130204674
0.03965295379217357
0.009908620177715011
0.02396988757770588
-0.03991707982325395
0.001420778604205016
-0.009634656308248071
-0.0019655652369300527
-0.02052629375632158
0.017462678625633395
-0.00606978457618827
0.008057918071540993
