0
0.009137204636514105
0.009790340166990883
0.007354919448898339
0.03956469075242585
0.05172591179953874
0.05043118007882419
0.01857847771193596
-0.00014224479677130294
-0.010833466062362225
-0.00039825651094489863
0.0048909342300936815
0.052437670816053404
0.001556007632896916
-0.01209570542539351
-0.0317562723545861
0.019298803617029126
-0.132503371009067
-0.01388645874656
0.0037479076307703123
-0.020120541488400225
-0.06604975010432268
-0.03746306203700584
0.01896007944488204
0.002544392957037675
0.0595346855994048
0.04314127769198181
-0.021913555824455828
0.008528306059575774
0.04877996411919445
-0.011814245669456925
-0.036186293689122365
-0.0424833329549278
-0.04878881377268729
-0.002304129416981207
-0.020860707204897914
-0.021528634811312685
0.027011795664399693
0.020294426153417703
-0.005510665436929828
-0.0032536988746316342
0.05009298236748856
-0.006107357600650429
0.11753114836823346
0.04838247346691675
-0.029622318525231298
0.03735955122050487
-0.03606003946410751
-0.2089514851766696
0.008521253922355978
0.035443512293050185
0.019814176457279863
-0.004999559219054786
0.0015141907509218298
-0.04062862297822234
-0.04848834307662237
-0.018379742815778654
0.03378658360591709
0.053868851723556585
0.0025334219623885644
0.045259652845446224
0.017233535084253862
0.005247933475269781
-0.005715047227173924
0.028558327475755558
0.004724395260990317
-0.009835596989829698
0.007852647671371836
0.02394192605420634
-0.03702336339112725
0.00912314486228087
0.07293204731820614
0.01529084779215101
-0.06541788498118525
-0.019858827695441155
0.02791828111884065
-0.012542666772230385
0.0698284101733694
0.03778339734108783
-0.004756299349982283
0.038812045970716504
0.03273325753977938
-0.009454001461235147
0.04142359085709961
-0.12534993864396884
-0.14610555622061844
0.10964660156314573
-0.06326685321510465
-0.07783383085465348
-0.03243938216149419
0.014529701123204406
0.0369470353949456
0.025422068094250787
-0.012490022594091996
0.0075257078468984415
-0.04278951789258001
0.039032117420020315
0.03698451903809122
0.00511647117545705
0.0008784858973163154
0.0028195654470213557
-0.011821889096751711
0.001178950150547327
0.003696811286100669
0.03725163049103195
0.06770257539034154
0.04056111047040866
-0.019081522589586144
0.037889375608342345
-0.05680048733746333
-0.06217922371391829
0.0404194583317046
0.014585983178921397
-0.09453198412908961
-0.037224428676838714
-0.006015345078642092
-0.0008912605965250945
0.025233021909399182
-0.06916547162477481
-0.09164197238283246
-0.049552033228524084
0.06512134520569805
0.025180800561850878
0.0025207528103973424
-0.0272613074118167
0.03655631368950228
-6.344986771863906e-05
0.010586245883682451
-0.003734496200740014
0.011171496955446197
-0.07305537915025209
-0.08031489149672114
0.056745927552016955
-0.007936922339083573
-0.017606494633324973
0.17999665514216373
0.025828550461330934
-0.06665453477164937
0.0531656725464486
0.0005807182575408643
-0.013159533239131584
-0.012744657141957988
-0.03814781059378492
-0.012846940922269673
0.00731306558650734
-0.03302537917785421
-0.03619214252247028
0.011464135667335066
-0.05469232647177925
0.12003152214123458
0.11896807241867201
-0.024448780806626703
0.007220812624885613
-0.024811769325584102
8.96544762886861e-05
0.15734891448766267
0.04928075112057288
-0.04161113448353928
-0.08405931258628475
0.010737196223999152
0.029308575796694988
-0.017415398284520534
-0.01586123486368677
0.03727251042610807
-0.0014861240623599177
-0.01920961795475337
-0.016153100905553136
-0.03801647622270676
-0.010471711449711773
0.008641035354598054
0.004778189655629704
-0.06662835977754196
-0.030660730646987624
-0.04535621146075719
0.0037364446141999593
0.03962111574064257
0.02768629809672523
-0.0339107939414171
0.014173570394643824
0.1595217348694378
0.08558438441627866
0.09978001358737298
0.021180539960133787
-0.027386166909024103
-0.05822240860609591
-0.047197650281579955
-0.031074428061432745
0.0011016700718294767
-0.11870506685560213
-0.13247284628421266
0.010754824741845082
-0.020863468208093646
-0.01075662303471757
-0.0034326173632992923
0.03054933236528472
-0.05463503470761128
-0.01929351610770541
0.051823566159287696
0.038985563691953384
0.009558516845395526
0.05432683215150502
0.04477421029127496
0.014178938771200966
0.01119553468364634
0.025775378638281016
-0.028698812520397732
0.027415047357623134
0.029272869649957484
-0.17089053285941835
-0.035911562322271315
0.054524586424527545
0.009307146071560834
0.05065600040336482
0.01753607575639376
-0.016172973119263967
0.012732028675663054
0.026265604394956187
-0.042337487796796434
-0.002340787850780426
0.003559354641220339
-0.022898325178456417
0.037983410289642396
-0.052725418977078116
-0.04828284116023637
0.02237612324293156
0.006336860694615646
-0.0015966789767579328
-0.003927149004966382
0.0017739201641230468
-0.023575291923468134
0.0825871871170053
-0.06543929531286313
-0.05803676680534314
0.03747127281243115
0.009710955175527966
0.008192307856047706
-0.015074851454396358
-0.01271990528959243
0.025516393751692665
0.03956849416278207
0.001502849614586948
-0.02070962188368384
0.011259039243678489
0.013678203949406614
0.005554106284008358
-0.014182738151076017
0.03283868722719604
-0.03816052489603273
-0.049474848372767416
-0.004804229778605116
0.07543236007902743
0.00486663277253324
-0.027841288691904525
-0.0044636532334266016
0.010850790195369364
0.054040561817901824
0.009495361474763861
0.03066946849602788
0.00035049355398939484
-0.052702213507901385
-0.06287800418807099
0.019453605613757415
-0.07970334041764564
-0.01015781280627802
-0.025454265508087763
0.09925870176564194
0.09414735993863882
-0.005640814593458625
0.038078473327399845
0.02875174900683461
0.000924570286055999
0.032990896175230745
0.03548811222759658
-0.016437996103201034
-0.0783691842160263
0.009308100711047079
-0.017287177656921227
-0.0020141695561390013
-0.0008793292350228897
-0.08613150125282915
-0.10124739911799163
0.007179969815662824
0.02053933405140609
0.02658072990572824
0.0722555671035034
0.012298228224682722
0.010487297683828601
-0.003674390956583659
-0.007356877355660598
-0.024184525430201612
-0.017611647749453695
-0.04660105443670432
-0.023838382875448767
0.018691957931852878
0.00955690711692173
0.020090178120085907
-0.024685902942491296
0.008433501628842132
-0.001000948198335928
-0.02836513989472523
-0.003961304808817729
-0.014730305587887117
-0.010417861247950898
-0.002592308593734566
0.041504957824467364
-0.00299249628094431
-0.020145301913959312
0.01331262420322383
0.01861367946453801
-0.00910693545407108
-0.034840611900648265
-0.1217170777676581
-0.02636733269557087
0.0023395752788917196
0.011794227468030527
-0.034073871867708404
0.06122591114189124
0.2055287112166019
0.001495161445294563
-0.003910660635216911
0.016722672422932808
-0.010924623445590245
-0.0282878800366535
-0.0006208656908196717
0.003754395124787591
0.004849103643294801
-0.012221237548108358
0.009079661730061908
-0.012110396226698098
0.037724895922145604
-0.0058624514520252535
-0.018279133404555347
0.0372182599741873
-0.0007681121967675907
-0.0037803487035732164
-0.010772605389063394
-0.034590647854811994
-0.037809102737442764
-0.014908437044826512
0.047076525671857036
0.04264430684993084
-0.020114371744871375
0.10335112415014311
-0.00021703693907847407
0.03481271818502231
0.01745876958537354
0.0013961036312773955
0.027726270694056487
0.00015516715729634674
-0.009083536033299675
0.00598244533248328
0.15044510503830116
-0.003090967607738844
-0.0158574351477742
-0.02317835234486828
0.003529365146750226
-0.03540082862833635
0.019214888547724025
0.00632160974356649
0.03451515715518999
-0.1732411784652659
-0.11766999897631109
0.057597599951603747
-0.002559689918233396
-0.08038202992378472
-0.04304033838256435
0.023783355761175885
0.04182231952181775
-0.042207454933857885
-0.0280580478358866
0.012340959709619079
0.031080467039446436
-0.1309817183453263
-0.10715034034153763
0.037979662380844596
0.00907717859332515
0.031595682260299546
-0.016655777163623334
-0.006597973031552516
0.001990067840554033
0.014100275517970683
0.03947928792436024
0.0643294882362869
-0.0037099379217811895
-0.033584971235462294
-0.01535559608965123
0.00419210527408101
0.013296125298938937
0.010145353528154107
-0.01244539012635128
0.01650440635680302
-0.005828170967772193
0.013576553885357931
-0.012304741169290381
-0.06061314498871042
0.007089305695122338
-0.00913116447662689
-0.010250796461367423
-0.024895115975549977
0.0029548600362738864
0.007338863619957084
0.11967833431438797
0.12149591793437334
-0.024085883305607205
-0.005142490943036227
-0.0223778944508481
0.015261041834995003
0.10501678683962398
0.03783232893107313
-0.012998634058041738
0.018773921694656467
0.009528001834624947
0.004180477747605745
0.005425456936138779
0.016571700644747146
-0.06843540453655586
-0.07011100678759262
0.03300082496770234
-0.0036386758808783356
-0.010011311136984578
0.024099628848334022
-0.01593766399150019
-0.02475930392846936
-0.020899547348250405
-0.01713907656019835
-0.05662498883712983
-0.029784976734479416
0.05391053740295444
-0.010215821397369564
-0.017265782403787355
-0.04089594949006914
-0.059116237847208326
-0.0105961207070244
0.050378499903586164
0.01734419163897906
0.05753847174771807
0.016678067793944252
0.02340966958996441
-0.01136200619228761
-0.003373317396013744
-0.015303791497031143
0.009187312229576527
-0.01043515186059115
-0.01684894294018569
-0.005164754465449294
-0.011654139766841553
0.012367800621501624
0.009219831386798957
0.04002440915649765
0.008785148115829365
-0.06322630997274443
0.03043668044221478
0.029295396186156793
-0.031605242715332126
0.014346321661505033
-0.013043921593185967
-0.02452896439164047
-0.007442000918598514
0.023708322018865604
-0.027381761837389832
0.007363818482316016
0.00032598907782886255
-0.004212870739199679
0.04353163428970001
-0.005092042022014639
-0.014353263720669349
0.03069731100271423
0.0001547212236880189
-0.014453269833085279
0.019436797919539638
0.03633010014437266
0.02715340580522745
0.05697176807009537
0.023615525391151457
-0.015022403556339256
-0.037471331374137544
0.013370761411784423
-0.03210526402762197
-0.012298668148927605
-0.011450518939112107
-0.027962704975120517
-0.02829143013627008
0.03435206665642356
0.027841653448781468
-0.033739379809955165
-0.03325624342365621
0.0292871287196569
0.020633166036059226
0.010019340676960182
-0.027953616545234386
-0.0011216342770192544
-0.019005276516545183
-0.09653611506546601
-0.0005343491004383265
0.05078606764105715
0.0248569029452747
0.045183327981533045
0.005981645173219673
-0.008189712252461123
-0.05127690789021553
0.052786144672240055
-0.01112959111976305
-0.04473688501160632
-0.0044906696773916914
-0.015418912510998634
0.065239112982133
-0.0036037658229139072
-0.10517125355197773
0.008355612116150253
0.02826921876480868
-0.030177287591930772
-0.11408183009230084
-0.023566379508564574
0.018069117695768785
0.0023057113556473946
0.01399473101964089
0.031008350277318866
0.0075923204359214635
-0.022252927878169255
4.809632348671627e-05
-0.018563463083519697
0.02865518921267586
-0.027527182813220717
-0.05043052048806799
0.051281371804878705
0.04834390324138298
0.003995594541030793
0.030439152369399137
0.07028185334279764
-0.00787534329253613
0.026836270064493763
-0.0038862138851754233
-0.032215199823228916
-0.027327058296214145
0.016750508825121687
0.01711999224604958
0.014899411698906184
0.0795665061822885
0.16327828374765607
-0.0028046733455206092
0.01647635797728423
0.004945917466214162
0.006216689044650679
-0.03402500296940563
-0.1348848562364293
-0.04414076317018108
0.02210635614079564
0.028032891779179267
0.009912026880431522
0.007612235101035561
-0.01460600387782987
-0.045707412948967546
-0.012964466794162322
-0.011753336008521777
-0.05025785509663118
-0.07495582317190655
-0.050388166664020656
0.0837623947302536
-0.00104400257873775
0.08707993643494641
0.006106287742657595
-0.0235788580893926
-0.01559325704834793
-0.066804160585772
-0.013466391062902934
-0.006963270657223843
0.02746803314306952
-0.0013763806307803582
0.0784593553702024
0.06064120471134394
0.004798475359927488
0.01671199373451713
0.06688840092970771
0.06711574734079803
-0.03807484299310925
0.021441419360373526
-0.01320418658646628
-0.07708294264920575
-0.05018148357964013
-0.013229592768139219
-0.011431217854795811
0.012669379989834799
-0.02773929907102903
0.03351034599280698
0.07540405388222209
-0.03638701555114223
0.012123246780618638
0.04671796881920913
-0.024075290732144865
-0.15372268839946282
-0.09906988645716347
-0.01828468682152005
0.02656349799119947
0.0706330857124983
0.0390295670603116
0.004129613607605942
-0.02030097277608867
0.035466202418947344
-0.02440590189786042
0.011289447991916128
-0.10951170274583902
-0.07476972425106812
0.025518987151520397
-0.01862723213018184
-0.006075657606495695
0.00529651491208424
0.05247611677484403
0.12138953633491727
0.01144538698622199
-0.05322089259949576
-0.013640987665125356
0.028371074814632597
0.03378785701407917
0.07754950605281821
0.04797726065388148
-0.022038681740668975
-0.0023652609318827035
-0.03034210118657248
-0.059031889891984886
-0.02351331969373157
0.007551189282566997
-0.0008640626839150666
0.047837348430649976
0.019273113829411544
-0.10756343023716707
-0.07467754467751755
-0.0038906134638027165
0.014608542561268596
0.027457950101573862
0.014723629036260377
0.007378236330788421
0.04993728192303021
-0.011760584212632406
-0.014502047153543451
-0.060160514670189014
-0.022131322362945745
-0.003330941079895218
0.032918593036710846
0.04692470932257658
0.02023507760449539
0.05724804413452352
-0.0033633683798022654
0.016565086460537323
-0.005808803087177008
0.001313371725152714
-0.01866559303197127
0.006250467593413871
-0.020204276922101822
-0.003969448588886596
-0.001649072868191046
0.01406697840172257
0.007909081886941845
0.040862314412038546
-0.01958793144451959
-0.002973253312138808
-0.0132100918633754
-0.0544222306062464
-0.02569232326797053
0.005617341472034054
0.004135952458853658
-0.024272655732271647
-0.06233612352728607
0.0012844605665172184
0.05571955859029362
-0.021484009063936896
0.04367394338335309
0.00717051529261595
0.022126915097866087
-0.034642275517914115
-0.04681055368332254
0.002930285577470059
-0.012307170612533828
-0.0111392007822338
0.06155043668285279
-0.020425689325770276
0.1287833629144872
0.16881712280673042
-0.05667977935973827
0.00297816206696971
-0.04945196402526253
0.035857001067587706
-0.04925954323513608
-0.033008860874518924
0.04371892546917148
-0.030945907764049242
0.004731166105301966
-0.008880643638605846
-0.011356854347844725
0.003837670857423591
-0.0776988662715073
-0.027608129750809937
-0.04181792098434327
-0.013061683046954944
-0.0033445530629817254
0.027057659584536906
-0.05437499933607487
0.028113358322238755
-0.03357648334659302
-0.008376236769974786
0.030738484617991273
0.004545812341966498
0.03954991651543644
0.014138672503398626
-0.05305675415159516
0.0002994332044642608
0.01060150025051227
-0.009364589148761503
-0.025533188104054336
0.05672550010154836
0.01988409383621794
-0.030727444874476813
0.022297267812866138
0.05690199119969293
0.06655259616686508
-0.022171409005095878
0.008831874021032343
0.0029817435411373877
-0.01738773273775101
-0.005879660202618867
0.04112524516069535
0.026281644942221655
0.00233144532766722
-0.022325229163783804
-0.025839082208379584
-0.0074617788800997314
0.036373669599275585
0.024856629683297923
-0.009654868497872999
-0.03301718562883488
-0.03761416092181801
-0.04200051857794624
-0.012943710044999291
0.062099971510209205
0.04427833860014719
-0.013129927818524538
-0.004321490810087806
-0.014334080492843584
-0.054104015468019226
-0.012450588860924844
0.036028448472200714
0.023108211447713797
-0.012618692546796028
-0.0037972255698680776
0.003179693099262429
-0.0032721743245430848
-0.023954307475559863
-0.00913960418513751
0.06590592166580612
0.029797586319852173
-0.03910469603421686
-0.012777660178741036
-0.04092812299022148
0.05698957101235033
-0.05335516795033967
-0.028566982838190504
0.021872240038056275
0.045217083276675216
0.019604020428364767
-0.023524614111241085
0.009639177391966541
-0.03020582712101863
-0.0551846585629396
0.01665100739819035
0.020571632594687177
0.006536893209179718
-0.05666479334617238
0.040444145167328346
-0.0050815059912527405
-0.012583300064416228
-0.022759323207815995
-0.026019205740868745
-0.01919621667232074
0.020565099127449294
-0.005522211241004585
0.039814424923790684
0.10426035118285139
0.02601174062799327
-0.0027718039349916342
-0.0151097569627401
0.0019148744523504598
0.016052337152998662
-0.010576961074991183
0.007916487200158154
-0.004655578452552772
0.0254280460400451
-0.08312153009220503
-0.11487304898167913
0.01045319319213528
-0.09448648199652959
0.04478049793545242
0.050718775437540976
-0.0045005043651044395
-0.02329834725497649
0.03242708366369296
0.023044329585489007
-0.01587284368982483
0.007839001114936912
-0.012551246047350145
0.027211823201531097
0.01992254932616061
0.016621617164825027
-0.036739873934036056
-0.08851002905647308
0.03974638277924644
-0.006881005994770143
0.006510419547003487
-0.015077181841373672
0.003433399127372813
0.02853858449129076
0.013160632896176444
-0.004960155171449732
0.020472381724986093
0.02266268804312324
-0.02295869838281757
0.007047968635997998
-0.0018829408445446287
-0.017374762471059034
-0.015529904706139847
0.04248837179756296
0.17306435384826235
-0.030704861149676653
-0.04252550202449815
-0.18089574257743912
-0.06520265423007318
0.05416380149029353
0.06989026088669113
0.04804567554511681
0.0008799509467159564
0.05479520763663303
0.08030324791712334
0.0212336099330635
0.033282985808854366
-0.018941580643364698
-0.039534436276094355
0.0302760269169776
-0.021078252701351337
-0.00813400411549854
0.009033747764437232
-0.04592865518281815
0.004901807157830211
-0.0033512637202146823
0.005925303242244953
-0.03361784161088967
-0.019204883927734666
0.01553792791534376
0.0116896248913117
0.01095951016275807
0.010672395872027493
-0.04307476333084612
-0.0034561451294467687
-0.05282518275708852
-0.12147550352949311
-0.0041446120203053865
0.0025925933010866008
0.00881218901928342
-0.019478726885389597
-0.022910771503826595
0.0053447673147904405
0.03270346018178131
0.010392043979200344
-0.0033143523672643786
-0.032074125703991534
0.051319822194022494
0.13085668152080754
-0.046000723088772295
-0.015777479736710225
-0.0073026295511896995
-0.01666143284278469
-0.015703898042167184
-0.004646672595591804
0.005137385645555618
0.004803883136259254
-0.035656568981668316
-0.022581297748458882
-0.03714022444644398
0.04221940555425458
0.08216418162898514
0.015410236041919363
-0.02733233518891427
-0.014118825611125138
-0.005162856334579009
-0.030822699460302902
-0.06425135019765657
-0.008134934264972382
-0.010362709468166345
0.16815992430214158
0.06575168831504942
-0.01096774228114332
-0.0008509675478676381
0.05780576867704682
0.02387335277327153
-0.04990988721767403
0.042147690740069715
0.01273847934998858
-0.022034070431062702
-0.031547408702690474
-0.019770446875868524
0.0403908109950858
0.03477897529445388
0.02940074370549502
-0.06830379233935381
0.09741287521692515
0.14318347259494701
-0.002131027717968853
-0.013806150031470302
0.03101708190874192
0.008744565406611948
0.010802146051527888
-0.12145979443247865
-0.15449631325547644
-0.06738295168977373
-0.009157538787696151
0.011870541611098465
0.008561194080205775
-0.03340167925987963
-0.046430042498777885
-0.007981452137576688
-0.022251042168201944
0.05494978347939717
0.09069330625201669
0.022709938776542263
-0.05846073183192352
-0.15370939052344115
-0.06495331047822205
-0.07493273643907243
-0.013685264613518081
0.0029481308217794585
0.03839576870792654
0.028382862361800428
0.03613274054887843
0.10232279955282947
0.0013259719880475247
0.0021742834522149633
-0.0264878358434881
0.014834719659742698
-0.01156235436841084
-0.014177386146619642
-0.036180125281606364
0.00285035301950277
-0.022044474811288135
0.10473440058431399
0.03876714631277201
-0.024653630246046228
-0.0041419396972446655
0.04433584139735514
-0.0018042514047169713
0.00594100118683439
0.04801884100332915
-0.011754941574761433
-0.015034408282337949
0.030610243369330957
0.019351061301657015
-0.036455809923753774
-0.013261213270133227
0.027342308070847393
0.001141449623099559
-0.007645065833615491
0.03839407820984032
0.04583920707595559
-0.032538271487305155
0.02298152412365817
-0.019425358849659652
0.01413342767690547
-0.011126008885944696
0.08092322492052428
-0.06168647836738708
-0.12458526586439786
-0.09200592703433386
-0.06958822855874608
0.039726099126275644
-0.014166885594663945
0.04027592604421623
0.030256402040517473
-0.018044837700011796
0.04920431224153911
0.04526777322011284
0.00826803195648693
-0.02221872582176228
0.028174726421939345
-0.027100351857497457
-0.030347082887654996
0.047419930560617864
-0.0027145547957491585
0.06462586570597482
0.0005448708721828811
0.020908601938431283
0.009052376337226461
0.03358019343148219
-0.06723622360805713
-0.07332275772995583
-0.03077598204219437
-0.10874500623619712
-0.01166030284389961
0.01244663715670568
0.017260743176207367
-0.005781007947500487
0.021036335497068664
0.016280822443488895
-0.007130856783726149
-0.06524121756216661
-0.02873530413682814
0.01925283816097044
0.020270701753123024
0.024191216547907804
0.000635360213282685
0.002593381376400517
-0.008405437976161927
0.027898931484994054
0.06303340524687519
0.02445174996141467
0.02269132612954889
0.049231407448147094
0.01250602353435016
-0.010740186385660638
-0.012497627741190523
0.013792345392719535
0.018026615351958233
-0.0008299644804385751
-0.012923949816259689
-0.004657901024917827
-0.0028794725547931534
0.06436265599796095
-0.03966469849023734
-0.011233049121151261
0.013107471602512645
-0.01866425187668256
0.010052540320094902
-0.007429537709258776
-0.046761363092596875
0.008869738319831644
0.030411815816181523
0.013395110424653248
-0.024137751937754328
-0.0009787577112266464
-0.0005544713051580837
-0.023087730888552375
0.005256876679851537
0.018099616671265584
-0.03368608174399026
0.013956889970578881
0.011363271087941378
0.03597475609060872
-0.030045845051693696
-0.027760757205269115
0.04226335175292951
-0.008052108732469601
-0.007653755771884297
-0.009001087354859948
-0.04057095128481014
0.037141619670707664
0.010199953845347786
-0.034527092610049485
-0.021459755251745937
0.016162254401594932
-0.01600447748370386
-0.019684475997037376
0.017095950314767475
-0.004502768158837473
-0.03528683254473458
-0.013409054691469875
-0.0013736358107746198
0.007972840338713231
-0.06789411888316699
0.018120031641876366
-0.022167044581926074
0.013641107573739996
-0.0009994124985560032
0.03979147563752934
0.008639493493245049
0.013349409714860929
-0.02535977853486739
0.047207588366470224
-0.07235038732488872
-0.046815866971456815
0.09313586060482296
0.05528893291895632
0.05668340864731619
0.007015067124038547
-0.005069416828754917
-0.01978298238084653
0.021544533086934763
-0.0021611264398494704
0.021773603205822188
0.03865239667996468
0.0015964078568739685
0.038513235321521795
0.0042848030328837584
-0.0055673576610706455
0.008374727149012526
-0.008795346266079784
-0.05190399269248943
-0.14468566852819695
0.007708051465528269
0.05365710232306057
0.007257048360166273
-0.0312147101104081
-0.007033085386664193
0.0015436831850431194
-0.0466651570396414
-0.021069342460939198
0.029446082406049862
0.02157318479036722
-0.006812292099800226
-0.006653953574312086
-0.00821084917909246
0.04392090475699675
-0.01850720026803442
-0.04516217553679523
0.02956241811225356
-0.02009013967614456
0.02693000112743173
-0.030990109934079677
-0.13274460150691497
0.023767974888713166
0.011771955225258495
0.037373194401376784
0.04725074394890109
0.02139912067604384
-0.003301808166176904
-0.002712725440065893
-0.010348719913503123
-0.008182263811430873
0.038909578380222506
-0.01866543476222766
0.01736998914862952
-0.0020770000959832785
0.026216670872461018
-0.010792746721397963
0.055155342121910395
0.08076397055780724
-0.027838337513422438
0.009552748665729959
0.05425537118554098
0.04614577292828671
0.021728449930849165
-0.009466316725621796
-0.04231745582899201
-0.025995819681565644
-0.028993178932505727
0.004078168371240103
-0.01905537315896437
-0.004531184126841544
0.02990881456519238
-0.021430307395354054
0.0024754783309905797
-0.011071965859830177
0.014024928545260966
-0.03984686650965869
-0.06422248975259448
-0.040636864834566654
-0.02411534277926663
0.04013715625898345
0.013670337711742406
0.026930696529549807
0.015031204221724057
-0.03781675676649708
-0.04732723534713821
-0.0005839895628732075
-0.04595472444265006
0.037239987296293596
0.01788526654087714
0.046900834348398306
-0.012830957506820576
-0.07539859251480062
-0.00902559131334596
0.03802211914441848
0.05300092753818181
-0.02527512160964732
-0.03838874455764839
-0.030003963346910672
-0.044859122612881275
-0.025405241619473915
-0.0354030388483159
-0.01152175849782234
-0.03136425763512659
0.04708189964408025
0.06271713676789642
0.18119809628674952
0.11334829243431077
-0.07322261897917108
0.014113392297576938
-0.04297497781834915
0.012772386494909051
0.010705485727195381
-0.034259495426965894
-0.013657076296366788
-0.016079693023368154
0.023936373395076982
0.041624795255958406
-0.01613197282895708
-0.004844086928272971
-0.06926983186345129
0.04855430034429655
0.10351359990793518
-0.03205171082623661
-0.006677186017826723
-0.006799989832413072
-0.06268694792663897
0.013545593170368825
-0.035313041559457144
-0.0663198769431153
0.026462404757005526
-0.005122682506464224
0.008011296667886813
-0.003509304222397149
-0.02130998944258172
-0.06871477481002994
0.039908672421091064
0.09198304455380721
-0.005166994799718803
-0.027302741846758974
-0.05421449269302455
0.007515957100159442
0.008369890766303336
0.05391988350596231
0.0837000279868786
0.03184053046021453
-0.03307121031788298
-0.051153085561282514
-0.03547903371318385
-0.003074432744634975
-0.021003023909257772
-0.023701727457932892
-0.006424625862413595
0.0059912533701653396
0.0006687652253034604
0.0896507612026112
0.17093821006586993
-0.01352073241676378
0.006507770877853749
0.03125443097144437
-0.03730686435570159
-0.035954418556487254
0.004570420495728288
-0.024204748918462977
-0.08123007057385447
-0.00861467980546361
-0.015536665808346208
0.0023592922455622305
-0.03417193081850852
-0.1378365309281548
-0.015048326117746787
-0.03223343267294976
0.012841715300244135
0.008490386621861006
0.009262225774199826
0.10548124269523942
0.03714211894872737
0.0027903633403542996
0.004929811975796711
-0.02675772971343887
-0.03600800502533518
0.02703066464358988
-0.029141533367006714
0.004589473056983845
0.027090868001976992
-0.009313787662021988
0.0005376817090063273
-0.008751813081248368
-0.03821889540373979
0.035161717216973844
0.1977832423478656
0.017220756168671456
-0.038237636512020605
-0.014600035308106309
-0.010170325380444588
0.004130952602755087
-0.029783432200095748
-0.03924335404138194
0.031826094683669766
0.009734622972864372
0.034207771908087804
-0.01604018765857983
0.046374069676998295
-0.02354288331829224
-0.01899999118917284
0.016425187501728507
-0.02618667789527969
-2.1220383762913242e-05
-0.08026999876011487
-0.03534939913726934
-0.007321575807896088
0.05362146174581461
0.014490197403365435
-0.017521835818440554
-0.0060573739237840445
-0.0019626938541037983
0.05407065784103863
0.09234023726321783
-0.006734723605769096
-0.042915852042504095
-0.025430096983048118
-0.01284299119823253
-0.02645457139241987
-0.0014136722997915394
0.031405757278072356
-0.014580426994891444
-0.04111554865263345
-0.024511460416808448
-0.004881290595894492
-0.019563769586740096
-0.01630989622740074
-0.00047945121064797903
-0.022233341058475686
-0.017975273520207835
0.0025459225415451463
0.04622100931453896
-0.001997506914897039
-0.035076910463835015
0.01118808139750116
0.010106104756978136
-0.020363303059086235
-0.015599617256579138
-0.01042123105585442
0.0549601059591811
-0.01296759673557191
3.547602670322968e-05
0.01614541388205193
-0.015479666821669813
0.007906929059483475
-0.032239006654932775
0.0042636129538941294
0.015544134818480056
0.0045718562563529025
-0.006934083020286771
0.020051672021869523
-0.04710861145153675
-0.004430520528428118
-0.02302569042783185
-0.02740956326136965
0.009211395978038961
0.01247141879314681
-0.03974650942223825
0.0012832571140283268
-0.03261654566295008
0.03273674288042082
0.13643558746124557
0.08080189073296143
0.05408624945696125
0.00997059558725414
0.014670259396161246
-0.05065679057348481
0.032516215716304434
0.024805600552139526
0.09832781469451264
0.07160001147015248
-0.02254325987503653
-0.005200100465163894
-0.034075629809837464
-0.01072646738052053
-0.012614827406677414
0.009141483121805858
-0.004529703935003267
0.0008428141023294765
-0.052569842384407255
-0.024706720612872064
-0.0016613656226504125
-0.10170245483811806
-0.05359412341790517
9.689469491749068e-05
0.0159344175568427
0.04685698295132041
-0.03140946146193652
-0.02400644141207533
-0.027947039198546773
0.029663186394531693
-0.007019707743327708
0.004871889018550052
-0.016956021287876894
-0.017944265717565
-0.03170117427171807
-0.002755507219989799
-0.0047846173486842175
-0.03420942177694076
0.01490200751988602
-0.0033676904419500894
0.018670304804886875
0.038923009376705085
0.06608147351493916
0.05276251039236579
-0.022170653424126354
0.012042942921065721
-0.009106347221063871
-0.005852328648442175
0.008764660855587785
0.03854938132319855
-0.026474156365964032
0.0017075566123192446
-0.007152897804908375
-0.048284937804278207
-0.1529484878283946
0.007832022800780106
0.03243322762592605
0.032401276399172264
0.04421977386498633
0.01574890219519039
-0.02161179263620959
0.0021574461144467684
-0.024033785706137532
0.01441187700530185
0.13138213661639497
0.020686590627832985
-0.06588562691856255
-0.05454089238839207
-0.0654896472416902
0.022090901725776567
0.08618215748271416
-0.10242931496164993
-0.0605069607229716
0.03173895321614583
0.015351707282480264
0.08897736715870898
0.0380537335975935
-0.029065932379818124
0.019365765682373096
0.009104668050203702
0.00505052993898544
0.016136835646754954
0.03520090892406375
0.005980221257603684
-0.039681997068382435
0.043367972349544155
-0.03486010788243387
-0.056292623141276095
0.10595643228192966
-0.028979752645223233
0.005394714812238526
-0.01682348279230035
-0.059449106041247916
-0.03624228306319009
0.003993525876269024
-0.0009224364645283544
-0.004554288242729866
-0.019468370422076314
-0.004038985301178738
-0.0019661314945106454
-0.020112952616207064
0.039658621696314324
0.003963329885192568
-0.005630585069804747
-0.07055980747091935
-0.03129952214350996
0.004722948097563019
-0.013456482412077595
0.008679665455707058
0.003596600245510882
0.021760046757461692
-0.05443620597893726
0.141035004893166
0.07299430409378661
0.0010002905953821362
0.022725668091827786
-0.04587842611659112
0.006909848206901216
0.007906858039395063
-0.017671373828280768
-0.016710188332979697
0.027313554808310866
0.015530047847183315
0.007572240369871065
0.007535825791218156
0.049320648798443535
-0.061367834754496975
-0.031165292869233138
-0.08987829373077232
-0.0514308600771589
0.06789642364884091
0.03554961524129061
-0.019419430890027095
-0.024955175343293848
-0.00335605679188491
-0.014610656776074853
-0.028522315981435724
-0.002074389684044022
0.011284453780163467
0.0006814333122375963
0.01985543379589275
-0.0058808113530603974
0.0624974055413446
0.004285148789984842
-0.02203856100244504
0.022554761817122636
0.030276151626812173
-0.014388286308527834
0.007170164624287178
-0.002497703882269605
-0.009192428256755727
-0.0007750127558972845
-0.021659780761684885
-0.04584503936675339
0.02044777680844268
0.14111314672681938
-0.11054601653757944
-0.023973923021319975
-0.02030589136988157
-0.049783977253148017
0.03838014154320029
0.03835157811709593
-0.010488729598235344
-0.006279542424833682
-0.010379092560897259
