0
0.1264684018065891
-0.021830313717947022
0.010825410355372812
-0.016164449984030514
0.020527814339700676
0.07786294425182658
0.009848533962948231
-0.04200109685438867
-0.02050277619376163
-0.006475117336927661
-0.015067806441423524
-0.010802762946985508
0.007452458046796286
-0.015139825184081064
-0.013344483845513726
-0.016424576935607352
-0.012450545525370327
-0.011125374438382943
-0.01754768657343784
-0.018876481844945135
-0.025648375629713307
-0.021027041181512943
-0.011353819174240587
0.005311291725549296
0.014008375014339727
-0.007178436043159165
0.030406381936524486
-0.14809458337902817
-0.0761236284853458
0.07414866243596005
-0.011471566131229695
-0.023428450166030165
-0.00115289704254079
0.008557110441168646
-0.007338795368444928
0.028828922607008374
0.025427516827445925
0.026135994240560914
0.026005799133420073
-0.013181014159215717
0.012910854293408167
0.009360337488697235
-0.026436743073605478
0.06365918911265638
0.012161069516070527
0.00874672514316412
-0.04575076802972739
-0.03039408245970061
0.018897211055449323
-0.011576903850055062
-0.024964897946045256
-0.0038378032190288926
-0.011822731384876611
-0.009080457159630443
-0.045688357740995715
-0.07261152378282111
-0.011833409453998774
-0.003709062830619086
-0.004283772290757099
0.003599910502650504
0.0641380089194984
-0.014131640050806176
0.020478824538729307
0.007909313204724919
-0.023999325027464782
0.015688389626864033
0.041515604247792944
0.0067503030600782445
0.0028029919269088378
-0.06961471875452734
0.015133108704485594
-0.027463328446807773
-0.0026215621307576543
0.0182855868487305
0.0632216902030674
0.07588757416605561
-0.02165599782973534
-0.02383619513977868
-0.15465621980907038
0.07835324489858365
0.03616630487234764
0.013623111773464485
0.02375131355710509
0.003641079160513987
-0.04060556618570888
0.04123717447914873
0.07523389390359313
0.03702574231218936
-0.012494245396754424
-0.03716917974041298
-0.004127477860610264
0.05756846606697888
0.0103009378947654
-0.009196996829492415
-0.16850808014313778
-0.013354020239971858
-0.005559414710432814
-0.009221173495915018
-0.03500633168280004
0.042374396929554504
0.14103413674135254
-0.03315149458638605
0.00708316149274645
0.02233241715548104
0.04317579843941152
0.009120355072914364
-0.007179858871399311
-0.01772952790301012
-0.02017499289725635
-0.03517195586927902
-0.01655524912348616
-0.0037584772104187853
-0.004611283210471068
-0.02373910855190037
0.03093176194345609
0.029636873527044003
0.04533898310647091
0.016195900252946004
-0.07905387390152664
-0.027678370189906914
-0.007882818543861279
0.010659826822476674
0.08725387029701787
0.05483712207865748
0.011937161579136333
0.0356980318366819
0.004112555550535306
0.007276489720260315
-0.012106590655541765
0.0024902636546211775
-0.024212732857144835
-0.03872507844550544
0.0021644130819953073
0.01107816247519669
0.0010049162126936325
0.023164174169506304
-0.1457393616112167
-0.05754814148535862
0.035899614190858714
0.004173277440902764
-0.025746233540819986
-0.00838784083389608
-0.025460838639352435
0.012897028277228637
0.023725577416912065
0.0029420379511787597
-0.02016990115786948
0.01563132920495378
-0.13914729728898662
-0.13057802286147985
0.042643450861024376
-0.03059368385010564
0.0502980714009949
0.000973193439124474
0.029316741146929087
0.019195504225379766
-0.04438367299578806
-0.0007925338573507604
0.17802369856982805
0.05039407639720793
0.04298394015816007
0.004703859332047349
0.012950746839823049
0.032032088791212686
-0.02887918841001452
-0.04654590489293272
0.0496575171621924
0.051907128660580795
0.030040478616993563
-0.02413913265118787
-0.07630365482597302
-0.008539681836791529
-0.025207957679974708
-0.003590409873181768
-0.008779997980557055
-0.004405895568140794
0.004357264659065546
-0.014189858424759812
-0.010923072602937683
0.0378259323730299
-0.005936563177517164
0.017004595206252325
-0.006625127101481294
-0.04326548671478937
0.008974000005605725
0.024249765445244327
0.0198086307851482
0.00026416936731909536
0.008584083548093943
0.0355853984010363
0.037908974545415385
-0.010694078851841359
-0.01765737089057517
-0.0378262987419629
-0.01403552267815843
-0.014734195491190339
-0.0012136520130444548
-0.003820899364600901
-0.039987586725732174
-0.043262603060327275
-0.006040809962548186
-0.01841515727877922
-0.05534353608979942
-0.016233253127693175
-0.006277525855509066
-0.0041184978697393244
0.04153161271227298
0.00308204381626274
0.016797047774024965
0.0393838812205962
0.06484194920971195
0.004207267034176399
0.007682407066998396
-0.009343272954260294
0.03179306517213297
-0.0077115411343424145
-0.016595979617104708
0.006249942684002309
0.05011581790894799
0.09396854370981458
0.03588383247791545
0.037618202332469555
0.027734958111742283
-0.04670542808495357
-0.09588574032503648
-0.01567091619170628
0.0074345921145546326
0.01798699741510757
0.017657825981008592
0.029692005775462237
0.014147788204223787
0.0030649829894405043
-0.0006820977779328822
-0.02982452101032622
-0.005528196082683093
0.017156796713971613
0.01823007382240738
-0.04987019468301375
0.03690554687974688
-0.08865631732431599
-0.12183917284724076
-0.027096816919412216
-0.04251290013266267
0.0210113607769242
-0.02249301472558248
-0.008558502516718507
0.007575775482405364
0.0018729460631755062
0.008381512017977525
-0.003466578850917186
-0.03366397761603612
0.0442159663659347
0.018281430835967012
0.009158783811055823
-0.016996292996370208
0.02971384023502433
0.014296893500202221
-0.019861586018386102
-0.010182036400884357
-0.008364087323916317
0.020804147554403383
0.014491755139376445
-0.027904354128414785
-0.006597374412137998
-0.018960676694271924
0.01637431750730563
-0.04565876828283011
-0.01466753617342398
-0.06101182734245586
0.011435117896685203
-0.03021924838731353
0.14511925923310426
0.1291881147746811
-0.10202400410182084
0.07039824789587226
0.00978653253227993
-0.02602604969879302
-0.022865867667580173
0.017267836606621022
0.017183062809281332
0.02685161707584623
0.011768214042172563
-0.032861530050712746
0.01063353746641521
-0.0009571053743423919
0.014351572654690918
-3.1191510531187137e-06
-0.11088300107424581
0.008840859685860658
-0.01674454490527316
-0.015919833445505273
-0.04300339357461417
0.1737504636883884
0.1350664931557865
-0.0460710843428315
-0.007784413699862588
-0.02590633308790832
-0.014145341827226461
0.08099202924372963
0.005646999196321928
-0.036679625152583946
-0.007682381220774668
-0.01658784551645724
0.027418305499204654
0.001297872382717246
0.0328408499813877
-0.03064859504755401
0.042152836155719846
0.0772277979095766
-0.01565863825925726
-0.03302907471996682
-0.057154641992631136
-0.040628759543682474
-0.008582850224248708
0.010503407300431231
0.012261435410723652
-0.014878384499746225
-0.0001933650341652952
0.00039416905795271314
-0.047360727746266186
-0.12036866983103436
0.010368028820248839
-0.02031258673450638
-0.024676697836709446
-0.03925366876582976
-0.025306540831880036
0.001132442472839544
-0.0016076466732945249
-0.01788221344997941
0.030690034997849603
-0.005995233957880287
-0.05786305738652648
-0.012014118018036724
-0.04162061134407164
0.033847713035958724
0.04927820438336531
0.008137616434118887
0.006889321731824125
-0.013080505393530853
0.07392048599487427
0.021483991886039867
-0.0008678192749740693
-0.001289689573435578
-0.013041837733111614
-0.011464352760848456
0.02347259861635279
-0.009824631998764722
0.04126457244200491
0.03111601812505117
-0.12006171932422002
0.06624352250201923
0.048010325323831995
-0.013142439782247857
-0.009405810295105526
-0.03188654986621713
0.17368615205473623
0.1093288951223751
-0.007228006590071139
0.001649207350322898
0.04467496720455293
0.02324090810428903
-0.05767770145078941
0.027833265307177137
-0.004975874732995802
-0.014609532019466387
-0.010687334417141776
0.05158256271913329
-0.02276150390044012
0.006867305903693205
0.040641445198965155
0.008173029878647802
-0.13927181190112348
-0.014911900173010785
-0.08307781888924323
-0.07578984922350183
-0.024922882657955614
-0.037428320996809955
0.005898703821387022
0.0023143048254002747
0.01906752108657422
-0.017313461088960636
0.014914975075834952
0.02652892010573098
-0.011278994608766017
-0.008005945740167985
0.0003975255846649694
-0.006254722763487441
-0.007137615141060111
-0.013309115185161898
0.020498378123912815
0.046386334197322875
0.03132206530311834
0.02961465745494149
-0.014584217031610848
-0.04604072071082345
0.015844711483558933
-0.014622182958977555
0.004742870835805
-0.029105938943375015
-0.013107700027947417
-0.011488121767951895
0.023723918037705176
-0.024755319001619903
0.04655386606200538
0.01061027501840241
-0.024584794403518937
-0.028875332793372847
0.04000883426811042
-0.0038481358686128413
-0.0004793278062683587
0.028264958644662195
0.0030107740310584283
0.018869304512664126
0.045289047847340023
-0.015145808642384108
-0.0003198482123145112
-0.017527438906818453
0.01234365429747801
-0.009923882548023115
-0.028784843768673872
-0.014618116661956171
-0.08397378497246961
-0.0652327339947922
0.0237740793424462
0.03736152396078183
-0.022474457998192796
0.01557715268706314
-0.003465283009069744
-0.06811008719987685
-0.01011337499009067
0.06356389165746687
-0.0149371176119651
0.15567079182251664
0.1153678905211901
-0.024796885648943282
0.00745928284205105
-0.012186649451971327
-0.1503093779651678
0.020520360857236856
0.08665542538410934
0.02277781608878075
0.024500824370761204
-0.03600604061959746
0.036675685212789806
-0.0212840365223412
-0.02987003200372713
-0.011595422726662911
-0.054128160385217956
0.024147612239915617
0.026713833374444024
-0.007007447290357309
0.004791511016109162
-0.04395310962417285
-0.02478909856380748
0.04503939483619597
0.015042727116363955
0.003846437500022199
-0.00260130863212666
-0.02324237546092013
0.018719359957800764
0.028410643336943653
-0.007275561830616474
0.008343835303538931
0.013004214734747204
0.019496859321816603
-0.05424149573378488
-0.060095586763660426
0.005932044157657446
-0.05517071371986517
0.02123501644718214
-0.023334815796899937
0.023266971741490033
0.04531516822767449
-0.07839305994239884
0.01748800568425195
0.049713125082214565
-0.009436781814610695
-0.0046489865964481954
0.007235258386578659
0.010121018418724904
-0.022437842681634478
-0.0040763872396847554
-0.014757952410656168
-0.033551958870690596
-0.018485983270489434
0.010226187432570477
-0.002920513585788311
0.028603822574621646
0.046613148552390724
0.010599141532443982
0.003133685120141937
-0.01051790683528031
0.0301422599462432
0.006561633533640099
-0.024623010003501235
-0.00465091230949236
-0.018975144994590767
0.023443718585026724
0.017747465971713883
0.06293999540123452
0.036663269788702775
-0.008927794152360531
-0.02239092299282419
0.013285415129711818
0.02319738561400701
-0.007940240141865833
-0.009423709015350832
-0.04131232595896572
-0.012118212588580028
-0.013883221878475597
0.022666607616405227
-0.006381216956862595
0.0022443711163877425
0.0419293915677732
0.07023971150237988
-0.0005381797072407873
-0.0015109933549315444
-0.0033672815729965423
-0.17518052301803969
-0.03321155771053688
-0.0019436761340718802
0.0014964455677023113
0.050335108721317016
0.0007545330162053946
-0.009259274021423083
0.00041228537094683713
0.008272500227149811
-0.03824414993018873
0.0009033441679754065
-0.0033007069644947623
0.0069045090606713305
-0.005934893579003265
0.015279137367582445
0.0013681585703955391
-0.022406577598783683
0.03191939129124349
0.0250302392730649
-0.0039011948571250087
-0.02069975490997106
-0.011185400670398103
-0.0016644599685467082
-0.01422013539286171
-0.0012702850451725152
0.05630305859118062
-0.007991720716528181
0.044749122296498585
-0.03189356267096986
-0.01684520675918206
-0.00716390478400829
-0.01728836962644104
-0.0157412483643014
-0.014501953939543946
-0.004544396164797748
-0.015564303663236714
0.015490335281608258
0.02170752796789904
0.025824920128907712
-0.041954214096421624
-0.021968347927464018
0.007700416219815553
0.004400911050151431
-0.008805515138019956
-0.003986127130049985
-0.018702500851155605
0.02527847382544112
0.0050286621490657785
-0.017333680415581466
0.002855132053988694
0.005946813244608868
-0.011179809014081615
0.04778600793328385
0.004394741727524931
0.008160665633054152
-0.013273713011865574
-0.006556628616087367
-0.04591471860616517
0.009845545577304856
0.010059769628626819
-0.017742370847699546
0.05212424265613565
0.12769073741733403
-0.011139262072708081
-0.034878799132437445
0.017089495354527754
-0.015702243592460478
-0.036647632654198854
0.018654988938743716
0.007546684744175036
-0.026783324974198254
-0.00444060707340601
-0.008310677248439991
0.030065559929829976
0.008569652753118351
0.01124134477054945
0.010533995777443177
0.017784643577210168
-0.013504500888246784
-0.007869188989593864
0.017647150349553282
-0.008749214661084857
0.006518456687952811
0.02229165356393094
-0.05074600260243024
-0.007174525282375248
0.008100968982691126
-0.009541850787684693
0.004777439128688865
-0.017926466160570097
-0.038365795674846694
-0.014033982768709848
0.06737908367498374
0.04349654714154533
-0.023603832842410476
-0.022492340844346134
0.006002923387360599
0.022314753097386217
-0.02309184460086889
0.013682093765612555
-0.01846723475079367
-0.04350537410743753
-0.03435095933353581
0.029310421266642083
0.04517350119279544
0.0440253301402112
0.03263862102721461
-0.02314959822256023
-0.03626685118735907
0.01716046253293283
0.014695370612515139
-0.03434185946511006
0.00741475776563168
-0.03472644273385898
-0.0010485244232710871
-0.027802857553343205
-0.1326292924858149
-0.07078300634421439
0.026142724154897316
0.024727401097478258
0.022079200006273104
0.029837701252080278
-0.005006122802881072
0.0030632024640463358
0.008476187943769541
0.01222824765300651
-0.024604670412248668
-0.037489215900162236
0.00829302235800269
-0.02321369093245428
0.02240861868062621
0.05555924788899378
0.06198460776951949
0.005578758832334082
-0.0012737838662775739
0.0042000418532330665
0.02899699575260963
-0.017800046612664475
0.07143077002410024
0.04407980930608363
0.1106689018214044
0.03201589776980227
-0.004560332255114947
0.005974510770399216
-0.007307440419314084
-0.004856101105426593
0.01798179731260145
-0.0005368273069430602
0.007770197335418987
0.0082673233331357
0.002864736388701987
-0.009305618122625365
0.0005079909864295338
-0.0263679798095758
0.0123185982456843
0.012839345995479604
-0.13498311930288273
-0.06540352112891298
-0.06253239735215453
-0.0984884495339184
-0.05753747283799794
-0.048351413348263296
-0.006436635593665799
0.06148343272109628
0.01824776077511565
0.03839079950684403
0.03170120759476986
0.013267637236853145
-0.040092352212346166
0.03555603143656918
-0.06855312019671204
-0.026672632756145054
-0.008046505964558416
0.025643765518106047
0.004312262618479474
-0.0840534189851253
0.03299968740986217
0.045491776153438586
0.0024603645579747524
-0.012323244568280173
-0.007512295641295011
-0.018172200809631143
-0.015775289193523598
-0.04423947920459434
0.05702004259054315
0.03747208693469884
0.0081771849939397
0.06410417435665051
0.01020753080017283
0.033184856639738414
0.004757662213255535
-0.007034873648039712
-0.011114395591793088
-0.012129130198290957
-0.007575151498769907
-0.01396505472923294
-0.026320635399879326
-0.018278899900249095
0.04102648999810002
0.03955898250170648
0.02319801326316117
-0.0006380439691771898
0.015448518802780684
0.0012549534994174634
0.04636915910275455
0.023160475087452025
-0.012831545717961083
0.02465543150204592
-0.0009108267745728094
0.010971819722402399
-0.03151075917483699
0.058665653843255644
0.01762660189178501
-0.027243098062215657
-0.0024675993361123597
0.009770363266784671
0.010393213684887666
-0.023493880007339967
-0.04478087904112562
0.04258133102875558
0.048165395577261204
-0.05126732107378613
0.013346652854830015
0.01645484807394802
-0.024306340961858474
0.00998080943467171
-0.020992095930900692
-0.02219494951363225
-0.025866128601020878
-0.02927037973484896
0.001551499898294052
-0.0009123476833995756
-0.007591650577570027
0.001252159740938138
0.016349478095368353
0.00293758023927446
0.0006639092730802903
0.0002807153438081024
-0.01975158683251359
-0.02315346900691395
-0.031439238099729566
-0.06008201002207365
-0.11775555184382779
0.06694092889649164
0.05886615295381085
0.010593959074264867
0.07062717793665839
0.002116651987881584
0.016749389201765837
-0.006586715969466526
-0.12224886190844422
0.0040723718160012275
0.014724591470175463
0.009288732411362566
0.021119689450519
0.027918072724966467
0.05425785484553298
-0.00975052584748621
-0.05532402774474758
-0.011126335437662168
0.010755836327102251
0.006505831833292929
-0.00883042852875094
1.4733564273165544e-05
-0.021432327017337195
-0.02516925723688918
0.04745169155092594
0.09535063485912201
0.03355179855455878
-0.001191682261614814
0.02263445225027207
-0.015024685103649908
0.01163831166553742
-0.044523337554652605
-0.09882128717128728
-0.001776620299826171
-0.02365207845605054
-0.021056238898206764
-0.011174327061054281
0.05967904296708773
0.00920225105538211
0.004215867336814665
-0.0018010155769038305
0.019022577683899183
0.0462056777579424
0.05062182935359138
-0.005407125018529584
-0.000515554853283088
-0.03826236365844163
0.02280309230975152
0.04400392259533031
0.004021420799436638
0.007210003730714768
-0.0015020132977554346
0.022759629889895255
0.03518455612699992
0.0006785003327774312
-0.015926654842831064
-0.02899218659988551
-0.019873175372252937
-0.0383723410110256
-0.026740577451442493
-0.02803412626320734
-0.09633688968163265
-0.003313423178751873
-0.04266244857294067
-0.023505900574830946
0.01336145047963691
0.0147370604462396
0.06600604453970506
0.01757050141493223
-0.025556955523077563
-0.008838376165541102
0.04795007584393442
-0.0006278890221828776
0.0008372537326688308
-0.02020838479141051
0.0180987144168297
0.0024161740550740244
-0.008361504197959379
0.0012914161831513312
0.009207044855446185
-0.05305475676545526
-0.12799146452147714
-0.02973194188544413
0.012511970977306318
0.04680243152444441
0.10760234230841632
0.032885806514397806
-0.01251702059447829
0.016061305966752915
0.006138097209134404
0.023184036334463403
0.0065469433314234125
0.018125569821044057
-0.032599977265405006
0.026482985361075226
0.016985401675603584
0.011089148006745327
-0.01028893453468131
-0.009078231504736968
0.02713013919961124
-0.1743945239336037
-0.0942894279088805
0.10170651926688336
0.11812358371447422
-0.034443587912519
0.07937397426865281
0.020771615691472088
-0.037587362424182404
0.010416444253352357
0.024606356009468124
0.010455895634642108
-0.0029091266760408107
0.005789744757720556
-0.02491012023771728
0.013831222661640507
0.0008926842165197213
-0.03436994703916275
-0.008200428462930641
0.03469246873325384
0.039497911601991266
-0.000859937239066459
0.004718003380645841
-0.025355679797787096
-0.03485889607508882
-0.0027885601430241804
0.007977121696034073
0.010389195878967273
0.019722888945127946
0.0215927345043242
0.018415644003416474
-0.07223725153837597
-0.03606100301985605
0.028123531094064975
-0.011381176642534846
-0.01846451777915452
-0.009087841214662403
-0.051486269826239245
0.03194124031484358
0.02267045060185565
-0.006007972185944538
-0.011956240605339367
-0.00994347498461917
0.015320622053358716
-0.016874910573327503
0.06354230819949823
-0.015479733322722775
-0.06673527932084553
0.033193148670598
0.014786127121664785
0.02798683434827921
-0.0033657349373905927
0.005764720308587741
-0.09478049199338534
-0.06956851953976415
0.03480618569372725
0.03340958031296678
-0.0005699417269207116
0.017984211671003992
0.011729043416986473
-0.006661986122556353
-0.07811325334084201
0.025586697868960333
0.05278772117520708
-0.009113503381632932
-0.002479311402080525
0.01738777061768693
-0.0032274532597938344
0.023384990744355884
0.007798468880177067
-0.002682931611963352
-0.037569203947663714
0.0036714839864659668
0.04497441840089152
0.01833806039519425
0.06461725988774825
0.0003581629929709839
-0.04210315557135981
-0.007607279361157723
0.048717519557477475
-0.0013591723944363352
0.012300020248297029
0.007582990969470639
0.034871596524969274
-0.01004249060960398
-0.01790759339501916
-0.032732611258947227
-0.11381033959043275
0.02441226964150968
-0.0276565054359423
-0.007328505706815167
0.010487279582018522
0.028158101596169622
0.03911520393018607
0.004243593885503167
0.02808321268128251
0.05069624664630009
-0.013370337114704253
-0.06378043354251804
-0.0013841775972430262
0.010904540722262965
-0.0026041726613088355
-0.01710607598584301
0.0008706609205812284
-0.03517556722470693
-0.02671768826852559
0.03757281637149048
-0.01620533261920692
-0.014673779016790964
-0.01602007180554931
-0.002377966777382515
-0.06577741425829833
-0.14736407139595725
0.035893368691057144
0.05549477470726813
0.016585032105230376
0.001218190326285817
0.03466715486119753
0.06658396754751794
0.033335826267676366
0.0018212584834346314
0.017557883799593322
0.017469055278037087
0.029077378535575654
0.01327092451156651
-0.023849258425684274
0.040663048109472875
0.03544957784930362
0.04243412356175905
0.020038015203637745
0.04974200508420494
-0.13747175663216873
-0.08344955256456064
0.0631125513283865
-0.15841142118959778
-0.061617419161517153
-0.0040035112848474715
0.017264985947169673
0.04191583783410321
0.00904575153649837
-0.052977191374755636
0.0043567089904685595
0.02544800122937559
0.04628254709484917
0.005637646032575923
-0.016710506807632447
0.01302760414701849
0.02354071428461556
-0.002356573583671678
0.039986980778532744
0.02357904861755386
-0.049607102755223786
0.05693308371513975
-0.026127861659803603
-0.023136366926468744
0.005730579617206061
0.015416611007498391
-0.012368441788077942
-0.0267551741396944
-0.008605917434226257
0.08879258986807849
0.03935999403884623
0.01739573735705537
-0.0210428393965996
0.005403345055474569
-0.004188618938228354
0.06240776281583485
0.023646189423057653
0.024021895250459765
-0.1086369057417849
-0.09611969854104804
0.052414417454742034
-0.01806974625049196
0.0077831111002618835
-0.019494481931800187
0.018256171158027155
-0.003793578155400903
-0.050193232372107266
-0.013470746349203042
-0.010299456910682665
0.006733589669918408
0.0021282612280088243
0.023133156206432866
0.017593111702882133
-0.025800291346299218
-0.054628975106884185
0.005525579327771999
-0.058652014185470926
-0.07765446508687206
0.029587257029656807
0.013557624578759803
0.02270292203524656
-0.004084965978160373
-0.008617028907574481
-0.0061700419590717
0.007326077518225563
0.003524583223061887
0.010900282716074433
0.030563852202556228
0.14602576771854717
-0.03353924561177565
0.0027823531313909823
-0.006142849547204092
0.01244891812829128
-0.018214518208274716
0.02299398230878332
0.06366604930241399
0.02339983426760462
-0.006218726293041853
-0.019604795003642025
-0.03635761521222234
0.0013875522136121605
-0.03955297134889831
0.18400590457690533
-0.01618795405965467
-0.0938555941832102
-0.019842447417919514
-0.004518256142233248
0.01877955853468744
-0.013479137314360711
-0.002631070020317464
-0.024382050311498534
0.04228160557512141
0.007990024988047248
-0.001898293810808684
-0.0625805818505787
-0.04120852618621462
-0.021439534476162227
-0.01699459893220862
0.02815473190588361
-0.002719901525500049
0.00443166733181525
-0.0347282569518561
0.014807953416145322
0.042291959551392935
-0.016931545471293913
-0.031190581174359345
0.015052303147880582
-0.014248062716568964
0.011428408796229238
0.06322299865186745
0.009115544315557217
-0.003435916613262817
0.07372128188453383
-0.039809435822801775
-0.04695930346072349
0.010006324075955916
0.0205052015480272
-0.01924702427705943
-0.04597993385776317
-0.026699710464907798
-0.03708716041780753
0.01374540078470761
0.12627645885877575
0.01699975482766633
0.021349268059036263
0.00935157104508135
-0.05141734310794416
-0.026784554239233906
-0.03346733249534071
-0.01618019579741362
0.056149230557015255
0.021462615108895963
0.018614585656694556
-0.013259728934615448
-0.008968634481974384
0.007565135443588083
-0.005166049743547327
0.028840350672014046
0.017767490506810448
0.04676768953624205
0.024019836906330506
-0.010636607202804687
-0.034896459136714235
-0.0030514960389458313
0.03152326520116796
0.06161313116021943
-0.015362895939372099
-0.028682590910939575
0.012047067225303153
0.0058799312207048786
-0.07010388493370599
-0.18507995149119602
-0.016180314392858487
0.0049268706035379
-0.02902577596459677
0.009357923991294636
0.051320000868471
-0.024210116704332072
-0.03759846842204497
0.012458710845228553
-0.06521905929559628
-0.040636791140517874
0.018093205490045373
0.05949050498481252
0.052219865815718254
0.005619353386842513
0.031089855403820546
0.025846911198046146
0.03130258622882841
0.1502145067534788
0.05471354564928003
-0.03868526574822118
-0.02105742136830918
0.02321577514734863
0.03328195378044941
-0.135576516121233
-0.21876093298946137
0.017467183214005668
-0.0012026746918012059
-0.003221463385922976
-0.12465301617997485
-0.011237327848236072
-0.037111527280089186
0.052575850196484204
-0.004668983156840744
-0.051837045916173566
0.010314569394541286
0.009338412932597398
0.01232475611186827
0.21721605579936476
0.03984379805285062
0.10706399391350137
0.06901802888446683
-0.0026583383055384545
-0.025245094944527608
-0.03702939277305066
-0.02315982532250724
-0.03613527749798838
0.020786670241299116
-0.04353204397095026
-0.012166172754162732
0.01385405692171005
0.01671507084076924
0.0016992608321064865
-0.03970911076054724
-0.033890131982274696
0.0012622243554324321
0.0072483719317730086
-0.002716545446121197
-0.007414298781058186
-0.011560603452007618
-0.030196475937982293
-0.028442570581110282
-0.0014054127673661788
0.033738830461730825
0.10030532039548323
0.01248584655873472
-0.02343871793272157
0.011328994488024866
0.006793672162483993
0.045373007475011544
0.02307336680095887
-0.005898024226617723
0.018318861658314294
0.026606676990069886
-0.01385792617724132
-0.011018834086688066
0.018032667284889437
-0.006744740163310252
-0.027723728664399698
-0.004867118764288274
-0.008059657462220727
0.02075855786648582
-0.16212275983206972
-0.07600274084511614
0.029762248704909136
-0.025751183669895813
-0.010818808751910788
-0.02176674762228492
-0.010692767940916378
0.01638077139990387
0.19230468268919623
0.014926565303934113
-0.02569997346398614
-0.040136145139961305
0.02959962815246668
0.01961147620926193
0.04583188843215338
0.02662477142798952
-0.09439936888674585
-0.011739974057751417
0.013562905344508009
0.07681622547061859
-0.005867329720485481
0.034775270663071345
-0.019849732248866374
0.0011556546841716274
0.013558497010064782
-0.024086608394873595
-0.07188128629063588
-0.06183404740208109
0.0002704171202690276
0.024756287548246016
0.04001919491322733
-0.0018636134460056487
-0.005029389140643572
-0.018102363807747764
0.01809842263242061
0.047920042021489404
-0.05279792615869946
0.008081027443111293
0.02834994935409678
0.02643826612968167
0.03829055784750633
-0.03159678060367379
0.019590660374895964
-0.09606826851169206
-0.19337083786111195
0.02958549015711256
0.034639982325042125
0.018818970016087337
0.0005145323798091629
0.036488332547021225
-0.004969794443603222
-0.012854927694614104
-0.03326364743523156
-0.013339820244213313
-0.004929807293475889
-0.029306385054874762
0.014126553337487184
0.08596046660038442
-0.03076695809955777
0.006612173496796318
0.04404172679706649
0.003490066076174998
-0.03518032741119289
0.0017002588367805633
-0.004065928998455614
0.01655828373203529
-0.020998165849496105
0.055798822231764765
0.003391558139796059
-0.005819107836498695
-0.035317604504656284
0.10806444897175302
0.08770215543553427
-0.042167566914177
0.020662923661116436
-0.023921544258134846
-0.05026451194391311
-0.0020037777393904373
-0.015019959266973632
-0.04358414313940322
-0.007037934173592158
0.006701089547317537
0.014399409112917986
0.03072077568458035
-0.031244922209340522
-0.0054217370795070505
-0.016853183626011483
0.0013776253279542611
-0.003674017545060324
0.00920750970498217
-0.009462871142328957
0.0173037955628427
0.00602798160012667
0.03781998636304851
-0.025717017457978202
0.003861748107324821
0.0014080276873808713
-0.008444644872077776
-0.040658117931920534
-0.003718920800943271
-0.0561342983164835
0.011503120467825438
0.01902342202414871
0.06526862393628013
0.06959947859142417
-0.008526667614401321
0.008291464390339433
-0.01678256744812685
0.03390872699484625
0.08191586845673068
0.08420354406896666
-0.04992329024290314
-0.02995187948995404
0.009760464259449009
0.10800977491062239
-0.05033170280496673
-0.04853455800133026
-0.021714295933119923
-0.0012844392640375083
-0.010329804288745924
0.0056684158616549804
-0.0016100536100136806
0.004503378154892841
-0.005235348268091502
-0.15519285234362168
-0.0049776751305467305
0.04073002701643697
0.03293342935795292
-0.02931417308464651
-0.018370756409153224
-0.012643341174761697
-0.009557476573224364
-0.002199160799477703
-0.056617275282588725
-0.011720421268271062
0.05442625348386765
-0.04564977238928976
0.007183805237134165
0.002702439627362259
0.001857218928766433
-0.0014370549710106286
0.012420054442106893
0.011935202231122767
0.001418375831646932
-0.004956611648085754
0.018398255258435452
-0.02333604820852638
-0.01237535071989819
0.06109455901023282
0.004357698648232549
0.007160276387221791
-0.0034857205510813237
0.018514792764654855
-0.047353667058687585
-0.004043702262159291
-0.14959522444715947
-0.06254176793665765
0.07642196502492189
0.01519767632865873
0.014373596778530815
0.0023988814877663397
0.00043893642468818134
0.06483838174232873
0.04453445532738234
-0.029419293904634082
-0.00036547529753280366
-0.008959885951674056
0.012990433965218044
-0.0022215838193394436
0.040585384646331595
0.021159883222371636
-0.009789644388919131
-0.04096398492714689
0.0418723293196637
0.019117286389773936
0.024735455240145972
-0.05089308296327116
0.03616676016580271
0.03297834206461083
0.05653251971239633
0.05025605209014728
-0.20636435200499031
-0.0625114827367008
0.004999603236322148
0.002402242557818384
0.00965100307593584
-0.005574149661034296
0.04123104173094535
0.025247971714312024
0.01684643760991717
0.007612440902696333
0.024029298454395193
1.1088971303685742e-05
0.03232651524005288
0.058177854878505096
0.0011628183461294057
-0.04888353792871141
-0.0008887118290619927
-0.00046304459840541194
0.004582656208340939
-0.027328152598389263
-0.03309247479875961
-0.005766354544950955
-0.007028488621208368
0.01219637542698794
0.009728814420282028
0.023510343326082372
0.07269941833769288
-0.09350898233676351
-0.05420631231720562
-0.009127542052180452
-0.008003865623311627
-0.009611528227300393
0.00932061224918537
0.0073593633213525946
0.03198806002829141
-0.06085917946618924
-0.0248285343640357
-0.034119958693432706
-0.03698543289182169
0.007893107012815941
0.0043772275289502395
0.011335429158315922
0.05510157224818463
-0.025098754620989733
0.015873895218874435
0.01972347172574601
-0.014840016957086491
-0.005948686836296229
0.016694408197622686
-0.002708817516813601
-0.01269203536790746
-8.80034120131529e-05
-0.01452251025096728
0.005624091780575368
0.006123800088464291
0.1017197204525016
0.005113144699294241
-0.02111469406645014
-0.01072344489872705
0.06152231333162194
0.05590122326174468
-0.05668708300749826
0.015039591124441216
0.050130138991698894
0.016757105587326647
-0.046696554145374575
0.004642734122508
0.0016869485374871817
-0.0070075298916998695
0.012311006322675563
-0.021719355232403016
0.03189814640826411
-0.00048031521196156715
-0.05604941409337679
-0.03261347284583972
-0.023503110327570992
0.028828493493498853
0.03601302544243808
0.030799069692828956
-0.00872995508777146
0.05049850380409604
-0.051065200330639555
-0.05600990310635216
-0.04290879668779327
0.036514734300156226
-0.012439993687593676
0.0021856753247585926
-0.021084918814514936
-0.006843611602168924
-0.006045191542033652
0.04418883428199802
-0.07346373933332818
-0.03326637846896602
-0.010542637126649873
0.02809102878223995
0.017750092463111614
