0
-0.058796493042301695
-0.012858719579929286
-0.033513428521493915
0.088582154915335
0.026277492762282098
-0.058722197828604945
0.025286347563049472
0.14480911568165428
0.0014418574325157083
-0.0013014244972801732
0.06892087306020157
0.05501286495482166
-0.00876874423269599
-0.05548088388001266
0.018269019062057645
-0.027069608072639816
0.001397904275908181
0.009287100096875464
-0.0650123826146905
-0.043987442657192934
-0.03115526772832438
-0.003468532517574357
-0.005920900928852768
-0.04821153078895814
-0.03116689252924736
0.0044389834208849385
0.03264527061562871
-0.02378293186227867
-0.01171947189382237
-0.02595504505108717
0.006732571496504684
-0.058350909573810276
-0.010608404075850486
0.019584802754097103
-0.023846940587801586
-0.021047581352236226
-0.019201326998611826
0.04879982792497849
0.0014180768021879976
0.01698608775766745
-0.06347882718673044
0.0449013500791452
0.052472000747205316
0.1660732842565375
0.04381305138554101
-0.03277387524368252
-0.019607431782265133
0.006788209616035958
0.013239209939875351
0.010640467189196619
0.004993461018768816
0.040291624765075834
-0.0929158730469109
-0.1347508572523059
0.0254985358631001
0.0018513585218618259
-0.00543544054606885
-0.02126603040836988
0.0037588957222876645
-0.028946573021311664
0.0038618468582750217
-0.0019070226456667603
0.04319259719808999
-0.0037162629631980132
0.04633702242416327
0.02180795091691481
-0.13343421929139315
-0.02639352722378613
0.02044282634735628
0.04640165486432828
0.012461610859779445
0.0028831171527997387
0.027116870758879977
0.01535960813306226
0.07458768339863368
0.024217291961998472
0.027607989326012477
0.008209615691620376
-0.023871089080598037
0.047828725354424215
0.004255985904810162
-0.034944853137720465
-0.1477403422038174
-0.1690203566584244
0.030254576719959785
0.01820801050822524
0.02141295360630444
0.03219829474545209
0.0180716823159643
-0.05081122963755418
-0.009218760793447401
-0.004965450677699169
-0.002504512949601514
0.06229879458834335
0.10021871861638935
-0.08047398236110678
0.021723570478147304
-0.039954975444513416
0.012681310618775823
-0.022708651136697885
-0.013777595066873233
0.020553561433286877
0.008686005777114938
-0.01693338829149799
-0.03522602568819074
0.013701792353938511
0.016737492190241603
-0.02060148690732935
-0.01525442180843679
-0.032389936253945206
0.003575024914785437
0.03093043058067362
0.00395108314418158
-0.011157020345829006
0.004442958680268331
-0.02864540838877066
0.029231775189908354
-0.0009711995233554469
0.025658789376664014
-0.0036017618410303267
0.024100932046896343
0.03406696178741289
0.11691284797512538
-0.004103547906147335
-0.02122369563262639
0.014744479816341548
-0.0037185439621392727
-0.03751609316820201
-0.033925560158157016
-0.0166207291156155
-0.027093368964107238
-0.023471029977597535
-0.021497848501212787
-0.0011410293753959379
-0.00023060110907706236
-0.026402974119063775
0.12365027989968255
0.07938988885858186
0.003391766040659704
-0.0028622020092725106
0.01628720384895598
0.013522533219562441
-0.06272090163222002
-0.08793057012349176
-0.0006095335334779223
-0.005369229340269623
0.023020114551907125
-0.045333097201342605
-0.01736841654044414
0.033908729676430424
-0.08999305286473125
-0.005017517465612543
0.01642100929940519
0.1646239240293799
0.04826424146104033
0.017144021275360598
-0.017475149423407176
-0.013830483046411431
-0.009469630993149418
-0.011603234157171505
0.04257707203636049
0.0539935376224681
-0.023765892144574034
0.0010570979815016075
-0.009944696314927016
-0.018040369129311545
-0.0001878388773608739
-0.007284929974084563
0.015975825430251896
0.04461701093611311
0.04902281238048145
0.06096417926239465
0.054592283992172794
-0.004431147413411765
-0.009146860163079269
-0.051440601975725815
0.07285025297124915
-0.15367166231849916
-0.0876735623031746
-0.06732358855125385
-0.12289515877839403
0.022242953021700283
-0.0023852924098101574
0.012970308601118793
-0.04030575082165861
0.006344897707320861
-0.13887200877034303
-0.04207247729575453
0.0009370915535188365
-0.0006206301139719641
0.009915843903401476
0.018455486932521022
0.0227175939042303
0.053013541107476754
0.011344499689560583
0.001420943039617004
-0.031136355008508677
0.0003939072496073934
0.009440839030341541
0.0482025370608617
-0.0016498553842829156
-0.006389750471494263
0.15709806742817123
-0.009222832872853878
0.026246482995002082
0.01710690625427211
0.004088204564898547
-0.0028558106767877078
0.00451313447371619
-0.023364663447136225
-0.049503332803277546
0.008085743133719524
0.041902520717428865
-0.034487878364280966
-0.005267955852804016
-0.025595081492905975
0.027013507065203602
-0.024576399025263342
-0.02634336833066636
0.0015140926832743018
-0.012779524904066744
0.009645392902170504
0.015177385791996494
0.0008647240596509926
0.0067104458345749315
-0.00966259763092968
0.017299267007723912
0.039677385858068646
0.016526103225340264
-0.04323483062265152
-0.008174411262360225
0.022879086098514495
0.012840218209552683
0.10030146305316544
0.0043232914520865105
-0.03539679197925015
0.01641216471647828
-0.015183209885839342
0.020917964612349082
0.062428117015998506
-0.04325662455279751
-0.041843170012545255
-0.019144268858091753
-0.01670839833321489
-0.024071924921155702
-0.006301009037933057
0.03195775381391455
0.01113309937163647
-0.002859537186072025
-0.010671523196712081
0.00423805121717527
-0.00906269746562078
-0.037802196091642135
0.007305546361984521
0.06510222408018253
-0.005089826850684923
-0.006655696682885913
0.014047877084573534
-0.011851744013001259
0.029974531496249162
-0.10671433571891814
-0.08324787575277057
0.01392233934221621
-0.030347941542566693
-0.006099287493799434
0.022816030650266165
0.0021303300161599763
-0.013004882395200144
0.07653453237030591
0.027412843623939052
0.014306767119769309
0.027663307189591
0.02937068840328327
-0.013614565729883394
-0.0354369941312402
-0.03018650954312972
-0.023573372676172624
0.03411008480197799
-0.03455486500345233
0.025921999039642037
0.014728718342307795
4.8967681736662064e-05
0.06323512864756727
-0.029410542301433456
0.012099531498982062
-0.0031286142098812452
-0.08475794109351789
-0.04033171864220716
0.07575872679472828
0.05164820218241166
-0.023563456139626456
-0.029132943526189826
0.018269059344747225
0.019070043291674593
0.003421079553271413
-0.010333477790742089
-0.006863853332426807
-0.022585431058391496
0.012206343270555737
-0.021935980846751697
-0.01831233194522076
0.010602104396238519
-0.017220751979794904
-0.01190868869666865
0.04753111317949292
-0.009020261354695445
0.00925568848809194
-0.08432944129036746
0.07827379645701954
0.07386633282537236
-0.054163604011572865
0.009684199597905289
0.015870341435947722
-0.003231700230283686
-0.03372970920743232
0.030334483246462488
0.08458180957915752
-0.0314460300530869
-0.12587705192620383
-0.10350020179646408
-0.028522181279333425
0.009377775863971462
0.021488013500438642
-0.05281449255608768
0.09882760512317422
0.13846662756715725
-0.016110209045799958
-0.019632857661253635
-0.03637637288666175
-0.007739149117165948
-0.01600983221395067
-0.008520508615520266
-0.024378266159005017
0.03542487538913693
0.042178734169870384
-0.0340543549495353
0.0003801816417723037
0.0675412768230158
-0.04472125906910692
-0.034762142302825906
0.060117283165288284
-0.026308455554688182
0.06638589593308544
0.07179632919260588
-0.01871071469726162
-0.029591274322945126
-0.011362932743059757
0.028971150946865597
-0.008771875699352451
-0.019595450710096458
0.0031564363750353638
-0.0031002245589385026
-0.08620209661422752
-0.020278519938086874
-0.020063215371200017
0.00832057762347137
-0.010655668105380421
0.0010997221840235067
-0.0011936267766902865
0.039789290149516945
0.0174623843741424
-0.011837900890384107
0.015438748287340178
-0.018051373530772772
0.03488561678737601
0.04095304954573904
-0.00595518446718795
-0.014363210317847182
0.02382295211665964
-0.0020819198178847207
-0.009986740041233563
-0.03508171613197116
-0.03994268983846494
0.013849806343475407
-0.0267772156584243
0.0199535171290935
-0.008153405334600218
0.05548117112932265
0.05291722209980796
-0.044173529059674824
0.02171780737374145
0.02605455544378576
-0.021747377597153585
-0.023286733752373993
-0.02396305627915936
-0.00966240003123267
0.02065119676456482
0.0037869612058893465
-0.017324045752192138
-0.007686091562882517
0.004952450209655048
0.027590532610513717
0.015756676575453453
-0.010345389552052544
0.00015312190873206856
0.02621117487115182
-0.014960986862106902
0.014416287930141478
-0.02273901351739864
0.021849741588538828
0.022193377938048483
-0.040910763335801625
-0.024879222170391162
-0.01702480326574549
-0.05588632855320307
-0.047608287387157514
0.01966682092367673
0.0386436119356779
0.022845987553759176
-0.012563217543208698
0.009734242747932132
0.011900679051691275
-0.022634596340534247
0.008485127493054056
-0.005174976436101158
0.0014419078074153677
-0.12539367161639786
0.08779266411400341
0.09169421509904142
-0.049310810495223456
-0.020729334426607425
-0.01036677631377526
0.0008142914474294694
0.001616298060602881
0.020825141075782237
0.029491408317514782
0.025546230185164803
-0.012921835041910716
0.06703002139571936
0.02919869622008097
0.01937708807748693
-0.01939102849052084
-0.012844930458505828
-0.016648706875520627
0.021351671795305317
0.00869836522483506
0.038533337853582476
-0.021876273589635536
-0.1095422189249336
0.005698930034886985
0.001958513849160208
-0.034269932206389936
-0.03012415778838858
-0.01150052093793768
-0.017057285405743472
-0.0004760705848959481
0.05011227612059063
-0.044537511830460355
-0.014376407137942911
-0.006961297595202878
0.031597086423935015
-0.016861059592750267
-0.026669968598721106
-0.03748502467071921
-0.01666087368876926
-0.16230839410031045
-0.008909475113699649
0.16761713083038549
0.02572191636932285
0.10216835358163782
0.1331982611684079
-0.03335462293404979
0.0034769149441845316
0.014356870150536117
-0.009105747143320088
-0.011778400331604896
-0.02893949518576998
0.022142317141238824
0.03518859180070162
-0.048423316286143374
-0.0051155380295608045
0.008439349827615942
-0.0036844105169216096
0.06503545197198009
0.021299842528046863
-0.06317479375147929
-0.011936899002072546
0.03116842730713693
0.03679711509109763
-0.004590592891885579
-0.05328406076872824
-0.040215883773325106
0.002019641290557331
0.002073841158145586
-0.014349403863072624
0.03173858425844399
0.064345645908836
-0.0056152919802863795
-0.0739390233867024
-0.05068265119697701
-0.06951484369188597
-0.08779775222556975
0.028248032688764625
0.04338518549837863
0.05822524773659796
-0.012949974370021025
0.013355917636154754
-0.027664822391773074
-0.013673392892234055
-0.020455094675990396
0.11757119375494754
0.0665740102169155
0.025294468798623713
0.016372988902144604
-0.04959078810714774
-0.07717001296756813
0.02927009568027364
-0.003111380376508414
-0.02304823920810247
-0.003418755494896165
0.006497406453367921
0.018681696428614544
-0.009654484416793889
-0.021456668379122572
0.02072271602586292
-0.005447096153981284
-0.0037944268067885605
-0.05017125359771468
0.009167083995831347
0.009970863224189434
0.03438519977036229
-0.026454761395117057
0.03650636294013852
0.026167632467624
0.03502465035117427
-0.014143512591907775
-0.0230808607800123
-0.04635425620245146
0.014280631831964907
-0.08588782731515818
-0.010592361309668194
0.020885968294226488
-0.01457940651612784
-0.1890589783370342
0.062286007635727635
0.09640683688055775
-0.03933209502102021
0.006891920465392407
0.035303442116490794
0.09294070662735503
0.01915849939973241
0.01591311063983833
0.02094893069675841
-0.007799200671058253
0.12213043500349449
0.13870896962668178
-0.02752124243863611
0.04243164346608636
-0.19337382913546855
-0.056507064673737284
0.0028138657880041724
-0.015235891117109133
-0.0018315935756981537
0.005797542729331373
0.007999600434120907
0.01842929609099679
0.023939316505537607
0.003648564398548237
-0.00336056390663842
0.008440245088656638
-0.017251657777441313
-0.03833650654449684
-0.07830658702971868
-0.19440270566623805
-0.0015323539603260528
0.006461672930762144
0.04283745813469222
0.021349333404709705
-0.027048789086376996
-0.023254534734342573
0.11222389886339383
0.02065588128384687
-0.004332120965288916
-0.011641794470921302
0.11761050099099493
0.05724152953403336
-0.002358913976864247
0.05870012098841895
0.02979787496940765
0.008953187862879642
-0.05672821040955144
-0.018334182003889872
0.0058042737944262075
0.009998753321732617
0.019451077797471853
0.011256604791788626
-0.03676095907141219
-0.06784720925313671
0.004802175689414325
0.02384664523065523
0.028330217676785174
-0.008855607144831669
-0.01891801607174306
0.022026144456942325
0.023935589370428088
0.007812143115183069
-0.0009159235844415397
-0.08955178022613222
-0.16607937273013088
-0.0002199261703040465
0.02611188996338284
0.020927372245565543
0.007531973930037566
-0.009028989894336302
0.004868370200575507
-0.006220287479003475
-0.012414743375440873
0.0073367878252553875
-0.024272359193976946
0.03112205207558816
0.002657082730453838
-0.00022823036618923757
-0.03929507724485373
0.024330938989847832
-0.016797528846141933
-0.06025717580571315
0.00313645939447994
0.019828563326499005
0.038487183927039974
0.0009670597997268872
-3.588539674345552e-05
0.08528423422836084
0.1451130640087537
-0.01923496182585259
0.0012072700426007971
-0.02822717955458018
0.018542566508261023
0.011765373527846432
0.020847415876947106
-0.051099642676480844
0.010575384141764944
0.0024076387052208697
-0.03881506651182397
-0.03719317916428218
-0.027787057304834606
0.03784205806700671
-0.11681980039700617
-0.1662123187768311
0.1486644150784959
0.11637182671290448
0.026661409668852505
-0.0007767754945654714
0.0056885524028455385
-0.02451461976765635
0.012418929025060178
-0.002227545294380171
-0.009721960738915231
0.022471525960673536
0.02810875857863355
-0.016280325640374817
0.002143245127319039
-0.007825274077375342
0.03758318560522922
0.05287591616886936
0.02860361553178583
-0.08082185697125799
0.03891414906773952
0.03427553450358093
0.015356143695608804
-0.22060831955008767
-0.05585544030741949
0.041540534934355756
-0.028103665163464703
0.021563431672726584
-0.09070612667650196
-0.0766845100723379
0.003588267543108614
-0.01318285989006417
-0.023984375880042222
-0.010350142179114109
0.17443237178100743
0.023639381500672307
-0.006389833037378753
0.031271067928994714
0.026554286369619134
-0.013854223011298896
0.0730329912458814
0.10399875450167706
-0.03323208575245906
-0.004177738352772532
0.015815456588713347
-0.028490962205206388
0.006346669026115956
-0.04245718583694769
0.019314546597755923
-0.012429972425632749
-0.017003286528075746
-0.01864217838324857
-0.013617682447941232
-0.02263637631313923
0.03280763303444609
-0.013524792756959685
-0.03132333177276084
0.01640439430958506
0.012016072436147163
-0.009946873764088721
0.005618064993480705
-0.014746855425509249
0.03866485046471764
0.013311315714852473
-0.009235938130438761
0.001226775655149912
0.04529055130688998
0.008591093744128362
-0.06965961993031408
-0.03943831289325499
0.007159038438398336
0.035125400121477635
-0.01854130638205034
0.009795578703608502
0.05270123550352605
-0.0093588326835745
-0.06634273451248004
0.03831226233455809
0.07170484180649189
-0.0012554527509094787
0.024546385662879727
-0.033915869580269424
-0.035827256154865865
-0.0066131158213829115
-0.021996226527596564
0.01860137454720294
0.05324317871003232
0.04586488053224238
-0.00962157709883936
-0.024871473226533325
0.06621093096979572
0.05234750181755491
-0.1795928097236536
-0.058659244448693235
-0.008589088758228398
0.020405806458872355
0.04393556821922464
0.05353324896842193
0.00680683078301196
-0.0047718557942140576
-0.019835136703055162
-0.021937122527699388
0.003990699710983488
-0.10569838660557554
-0.05742921564242294
0.013952763209024844
0.007649486977363181
-0.05898126717598284
-0.010036635325464815
0.0046285615486867555
0.04517835859558462
-0.011751578632150275
-0.01826815959928888
0.005686317789973657
0.04064915116865693
0.09165354590197547
-0.0547389844564662
0.017629711940594428
-0.007029055477207941
0.019825061736144102
-0.01230114894608401
0.035748044490150024
0.00617872992786464
-0.010851658767297913
-0.01672643183950627
-0.017502860112913448
-0.01700299826987552
0.009220053040236568
0.0005916710243159428
0.015774212828753208
0.005810636392981906
0.011227736009361182
0.05125320075618286
-0.02442177790130084
0.0017277206431554684
0.0340273303402681
0.03005557745226373
0.01672924417369621
0.04339532387679676
-0.03941002387394777
0.00449590708870338
0.05081178491059433
-0.007901833050230156
-0.05419071635011229
0.0011601625752699414
0.00827200858837698
0.0034607300321603425
-0.02608384709335597
-0.020467492669137406
-0.054510503995849224
0.025290832568110967
0.00023487274698467234
-0.010889382296112514
-0.014239273325387169
0.00014892949857954157
-0.013387584643321297
0.002495565468888853
0.008843579948534882
-0.009260782466655362
-0.021415501587302755
0.04343192790760073
0.05240179733456385
0.014699140759506532
-0.0010632888810835084
-0.06461359944473292
-0.023881207161623244
0.0018534372306806086
-0.018681349172895434
-0.001022830231509269
-0.00368155379422395
0.0010759816381386725
-0.002413503032822161
0.0023034354867993902
0.01587131423836601
-0.015449043833067623
-0.032266774522764226
-0.017227854149141252
-0.023466993367067555
-0.01934071597367526
0.0072972467750817395
0.022065428076651017
0.03397220574295242
-0.0005914749560571365
0.012917330573285653
0.012304817402366953
-0.0118849879877811
-0.007938326735288976
0.011997014329688903
0.013471547511974165
-0.020333999132798406
0.04015224447559907
-0.040657197717715476
0.05734398401677291
0.14614871972320317
-0.03701118556547048
0.07730426725094267
0.07675077115016012
-0.04179612078437737
-0.04522921042487216
-0.06022929912585749
-0.0236191419092632
0.07552898909197789
0.025643194044382516
-0.0009026698802113635
-0.011910120583508049
-0.04437228600468882
0.02143694416788786
-0.011323739135729665
0.04978427046184524
-0.11932967409321826
-0.13360398499119872
0.039274556653301596
-0.0492167422932126
-0.016219553209316503
-0.009822070878244354
-0.02587409794378512
-0.06483203319340855
0.019827645931619443
-0.024415489411470846
0.03175977011628169
0.03551980495635575
-0.07703798422808449
-0.10244091908086785
0.05578244325917189
-0.0014935819766254172
0.036671688674513196
-0.03846219758928873
0.010639176326493313
0.00011401955640376709
-0.00978398573479514
0.029281217845528982
0.04747267655593919
0.05125617051837265
-0.003965831598891265
0.016951611417308696
0.008601307281643714
-0.021824481759091543
0.04213919745321397
-0.026017921481207518
0.029991799100502863
0.17402120470303928
0.03499458619078469
0.03896306464173274
0.02674703163426148
-0.04215979077260895
0.00021128046653625328
0.00696866993564463
-0.01293594040663075
-0.0815987143181033
-0.05768551224247852
-0.018198224689455797
-0.01531524200530332
-0.012477794358339303
0.0797377974900077
0.022575485563390126
-0.012805790625147404
0.04346219611060235
0.002880984680400246
-0.023647831497256834
0.008228286025278917
-0.058947638860389694
-0.029356229725457848
0.04660361185126924
-0.031866888112994665
0.017656599129497432
0.05149118607639829
0.016467532044467745
0.04856403358357203
0.025366105593178336
-0.0076231210370964276
-0.024226358861740852
0.002094533628075396
-0.0076626850450130166
0.03202768558293106
-0.03528249345792384
-0.017331641712844383
-0.002808622663888658
-0.023091147898948255
-0.016711316215578784
-0.02583869161071086
-0.06341333158101434
0.05648455483738556
0.023520861386547357
-0.057862380500477664
-0.04751000002939119
0.015634512133011588
-0.015779181136430506
-0.05721084586092058
0.01340185878764604
0.02655868531817368
-0.015397742496582848
-0.014021222702144814
-0.08969674858327091
0.026012406118701016
-0.14531439277273098
-0.0809529605841113
0.06889379914972082
-0.006348993039077039
0.04598955692799886
0.07722851496520822
0.10947082253175504
0.07967867769464328
0.07936867289619616
0.031005708707260243
-0.0026411515092946637
-0.029964874690090168
0.014876529619700658
0.005508048558504813
-0.035884607110289374
-0.01277676716242522
0.017734684957296434
-0.004118028546187272
-0.0022826862825260086
-0.019951264542077452
-0.016669404770704034
0.05563684466119819
-0.06502205335308685
-0.023051275550000742
0.02024483145590748
-0.00720243943639624
0.015818053478345057
0.00587390354525951
-0.02943473494877912
0.11548131064992131
0.06229168320883992
-0.04839545469166704
0.028671486519694964
0.009175389208891214
0.07612686693661443
-0.024877308466956894
-0.06287982279694172
-0.014518729611677507
0.0016126272877065792
-0.010995925528071515
0.0025853398504302127
-0.10848096238845938
-0.16519184195544967
-0.014724912130259773
0.035101655267123395
0.026432666800216928
-0.0030745138450216053
-0.024095401931725175
-0.10268162048981214
0.017262883646225524
0.0037409078512793004
-0.00790748063484424
-0.0071610731655983315
-0.019796620898490214
0.000515594321662612
-0.008389368701757653
0.03100932946978302
0.05921150509963685
0.09579572145441877
-0.0022206266457269292
-0.0031262941494552814
0.07881696271585174
0.021665132617261506
0.006396481266209288
-0.01741183246294655
-0.007738774336596369
0.032518221523672515
-0.03329962651653853
-0.005564360536110625
0.040004205542325914
0.03683229926775254
-0.02216992497248569
0.017030397352933893
0.0010655123927779
-0.052660128442573166
-0.08367378068178859
-0.020900003746703585
0.015653580093735884
-0.002840443488573281
0.0015249331040298427
0.006083188021701211
0.00011329016897328398
-0.018224972291632058
0.05849373913857112
0.04039836514526989
0.03199618463654955
-0.008105096813398544
-0.06723768745367657
0.015111409442158372
-0.001141319295121838
-0.0024636107596106233
-0.004527430518728752
-0.0036057006087102717
0.10958165768689748
0.014673910500466514
0.018484354845262493
-0.0009108486849374461
-0.02371633014708882
-0.04475288758804572
0.00868244821676183
-0.02464093784929141
0.09472478969397156
0.08637994006095566
0.0335972205509204
-0.08549628898049234
-0.22014395562450972
0.10163036482374024
0.029730379536989246
0.027521366192666298
-0.027314539698125362
-0.0050008041381136075
0.02012344151662665
-0.03477287336247211
-0.11081928945230075
-0.011477181574743194
0.008994369858883503
-0.001749620878868992
-0.06825669853256792
-0.02357421739198477
0.016054007758899185
0.032120312614713056
-0.025829386819596154
-0.01293588767712856
0.03632522732315636
0.02322656921565185
0.028769522000066727
0.007590353836838903
0.005227101421789678
0.00019709770299372012
-0.030489731651194275
0.09100922695378126
0.024744205061406305
-0.03613494505850984
0.0012908879243827048
-0.05054064036469127
0.1749775083849786
0.06436054379698711
-0.01504513001018907
0.03837049190805987
-0.053032329387366094
0.041284599390984916
-0.08068550769130421
-0.080612534352178
-0.0014575572361192142
0.007964137882844589
-0.007937498062467196
-0.04778332679263603
-0.007549193372230251
-0.045089820835718046
-0.044849170411180646
-0.012668211918427867
-0.008736008899629309
0.0034471523571498706
0.005196852448757903
0.05658763390801806
0.007096379499377779
-0.009355239274354714
-0.026408845239857766
-0.008453627078848168
-0.01675239285450308
0.0013076295110688258
0.016114278285162497
-0.010462270007448374
-0.003932571670219267
0.03845524168422737
0.007414805307429308
0.03496586469874598
0.026422112695442403
-0.00914865341406085
-0.001563335495987276
0.010930786778645868
-0.0030434863423595884
-0.014762607143172523
-0.03868654064360799
-0.01896486377002751
-0.0455434546213628
-0.025771941290539502
0.024281724517820236
0.0715298630169269
-0.011240290880686437
-0.024592746376854283
-0.0037713070893616828
-0.014835125078900694
-0.029557702206728445
0.06542593764570165
0.03273833956410838
0.031652590548719654
-0.035854213934494665
-0.009658426457197486
-0.008929067822612732
0.0071102201497374486
-0.0282183149887796
0.005071827259367912
0.10469716123512877
0.15062906014432548
-0.016351979203212866
-0.03539817041019343
-0.04480359957179472
-0.006544799556105519
-0.01640464628982613
-0.002291942451792524
0.00783782452020167
0.008418187064052991
-0.013308489448705666
0.009826011897859997
-0.2596812059131419
-0.049152296656181045
0.00959859892187997
0.11454722740735189
-0.03632268576072072
0.08289662171617306
0.0465364564149506
-0.0388234108765031
0.0119489075369462
0.07104830175699138
-0.008761672054415267
-0.06705072760925013
0.01651990523756207
0.009539277909431914
0.017258422199911756
0.0009830805650951596
0.011947842535024416
-0.013368264599610423
-0.010073773321966606
0.04036773605333903
-0.004857823194680061
0.012010240033234566
-0.0010311406925423226
0.022537475071487168
-0.03447189905016579
0.11204410781472458
0.11290142587035368
-0.08534650374808976
-0.02084640221796361
-0.057212606356065614
-0.038429477787731564
-0.0248513070660634
-0.0038808280390960474
-0.008571448261440056
-0.02496702022252362
-0.0044485828766068596
0.01710416162713012
-0.031367357062836505
0.006274509880074054
0.00708470592654345
-0.021294309646062652
0.01287290906084417
-0.034271743815945194
0.0561988072509617
0.02428554827870259
-0.004239745738593884
0.006184208207770665
-0.02739804010420289
-0.005558933320210986
0.10302006935919152
0.0025768867238481867
-0.06272617573743212
-0.03140708600316823
0.007161100544825351
-0.042676534085337565
0.016632383016594116
0.07473821079470537
0.05225150962209676
0.0025848830295970926
-0.026892399304813974
0.042778294463648774
0.010727718546092706
-0.031073052145471455
-0.046690591091547495
-0.03222420675880486
0.04626133912399996
-0.03490297262878125
0.19464532408387106
-0.0850346308302255
-0.1255252105966611
-0.01838374323009676
-0.02527690551967956
-0.014582560853088376
0.015880048919049664
-0.05445746126888313
-0.09695384174707197
0.06103170293016811
-0.020815381729420556
-0.014622921129396144
0.07029830001409915
0.014145126541800035
-0.031450490301237526
0.09956397592240254
-0.06069938530091479
-0.09672711532654239
0.0088556387789962
0.004432370594111009
-0.013175558175598977
0.021363284945784624
-0.03297579626538659
0.10720210944510286
-0.06552068258224687
-0.09771027593310355
0.11409959144925363
0.023515546597475935
0.03660220409266881
0.029067064330341855
-0.047441717324705736
0.008514809000357214
-0.05630988390773265
-0.0017304259767058113
0.055476724940171473
0.08627319962860786
0.03952946031523309
-0.022879382214560585
-0.0181032574893739
0.054133965362267875
0.04211570242287106
-0.019866773136348072
-0.0332411483820484
-0.004740099479271004
-0.007414518433447257
-0.004087988205086557
-0.016587293500490354
0.00988404767637425
-0.008478174235610567
-0.016375825845837737
-0.02699910344764974
-0.006558491503549662
0.0019449455906672753
0.0024252475103589246
-0.04238534272846053
0.0025765352387817357
0.000952165349369918
0.08514277191577531
0.10874915502305449
-0.019950842218849296
-0.018108492850998036
0.009575739514394428
0.029026310741934038
-0.06432152787044118
-0.027089558151900436
0.011385185815148684
-0.002065308990515905
-0.018184876918701052
0.029397157747372542
-0.017960475945583424
6.979811878962877e-05
-0.031807178720008614
-0.03304976771002051
-0.034473294677980576
0.07814786330094553
0.056527469349745375
-0.033619810308749776
-0.06858779397160213
-0.06627430798928031
0.029892114475060506
0.054776717124202165
-0.11578753193317749
0.004805233648499204
0.0764485442471576
-0.03212194476582475
-0.029227809093455404
0.021148132373893066
0.053634087192554775
-0.008312881407470623
0.004635000547611465
-0.03175035543012964
0.00025599662270867096
0.0029838978125912843
-0.013990097958638892
-0.02318539333977904
0.001366193314583633
-0.005955451818154226
0.0530786584678362
0.022178040387261313
0.016632358396914994
0.016219211895353084
0.028530035555514713
-0.006734968823635502
-0.026732972297446707
-0.03859062027511144
-0.02726480243323558
-0.009175209212064727
0.01727156000832616
0.013683662577852352
-0.015645574842747232
-0.003985711648982614
0.036659873276772365
0.00491448070656024
0.0016532114393860557
-0.020170505956875723
-0.04656737264716392
0.0005934725171451775
0.004218401114703947
0.036168961684502544
0.05409057869034716
-0.00016169586276954456
-0.0003696939060884082
0.04044758779036525
-0.004215397760186554
0.009852942088595091
0.03936464313278273
0.01695176105164114
0.0014538309727037497
0.008174206149607682
0.02853375522067524
0.01825901201616462
-0.016831051423253696
-0.21534655804290923
-0.0790452151124775
0.008575583403154539
-0.005614107811472761
0.02949296696615378
-0.05108691424266318
-0.006907007876773999
0.03143885432881716
0.07514290345950234
0.04298477175715091
-0.03022339294627912
0.0012479459195925942
0.03517996170866968
0.06670308306568094
-0.04663529849125194
-0.029745796515034
0.02355236531526352
-0.01154249929981238
-0.02206393824621369
0.046322126191926445
0.02382537188121056
-0.014736516956528367
0.02630674359295315
0.010167375014476097
-0.05655649772767432
-0.06811445440830556
-9.005026515497136e-05
0.007083961861169141
-0.0037203979848663233
0.004426040880027804
0.02175572787045061
0.027512775073034436
0.02224648249426148
0.027084289936123464
-0.031724690235058556
-0.040316839958044644
0.02712936546455332
0.026646290036311547
0.009586881912476669
-0.013149146504718115
-0.027800151922687134
-0.00944110964107528
0.0012466352888326725
0.01776555567270648
0.0070192267113470055
0.0015835686757209768
0.0014999289354767052
-0.0028691403761990347
0.007627737456023835
-0.0216278866914188
-0.025802592342628407
0.07570452350263848
0.008070537090313976
0.022847337289319192
-0.027077393061963807
-0.02802594072030736
0.011470590404260246
-0.11154679520026775
-0.031834124353572836
0.07617024691523427
-0.05730745593318986
-0.045283389729140464
-0.03214169068198375
0.027351037862056355
-0.017065868672414265
-0.01758903106179032
-0.020268555166691772
0.060726667357269525
0.03324080507130409
-0.0369129941176715
0.009047035763305802
0.031089708644118436
0.02505237149093978
0.07517792449629072
-0.013897399494616753
0.0560675165221117
0.03985594600113502
-0.01291732028679653
-0.020530396587614172
0.014672995317870552
-0.049041582864420334
0.001057405467563943
-0.042455892458798904
0.06702843333640121
0.1283293711200803
-0.008608222680798354
-0.10763642518259398
-0.11719075079276804
0.04336985989852569
0.0048569027092506345
-0.023897785430312832
-0.02632355398667571
0.013469103709157442
0.001886349787289005
-0.012481197301925283
-0.014078912829716085
-0.022235725965829546
-0.013770556699999909
0.014842025668457638
-0.024508105741442042
0.06396268315651936
-0.011838054229536725
0.0230351186516511
0.036067858987621396
-0.013432121338923823
0.0177168774994472
0.019278846802114637
0.024255192160019038
0.004121556621370826
0.007172613749547024
-0.027858928924459413
-0.021635828619503524
-0.06500316548041653
-0.03507884993997019
-0.013475365120833522
-0.02197920982388939
-0.04346886914375774
-0.017156969688471697
-0.03818145135693536
0.032648934214835904
0.148954844898374
0.01169106230876184
0.07801968345049828
0.044698615484458845
0.01658602776489012
-0.04383537153154589
-0.0023311218411909973
-0.013042826340487881
0.034696085155158894
-0.03229970969573823
0.03995920666604501
0.025696827016295692
-0.0397328081924185
-0.02868528566314512
-0.01957491241160479
-0.039024041884796176
0.009425192635821589
-0.035595545509011235
-0.03651467318768882
-0.0023897996674433625
0.03407771316445472
0.008910196826255613
0.034048403276270844
0.03919684151093949
-0.028701974264914436
0.005160755237710556
0.0248987492645534
0.06452548357127741
0.01466063218672176
-0.03519829899146966
-0.02821967213492999
-0.013844585000316907
-0.012541374932209956
0.02187548335856596
-0.01608748320195056
0.0016248104851678768
-0.015331476761438773
-0.0011542479106925756
0.037386893902086354
0.014081301118470725
6.193201500509496e-05
-0.044728178491799206
-0.0335729221536168
0.008181082264875107
0.10182675639738221
0.0030970495387898076
