0
-0.0434224748897546
-0.005058464676326623
-0.009734339565587374
0.015060956499436921
0.03825494640272476
-0.013041252009287824
-0.03280790549815068
-0.02098504863862682
-0.00775307782546688
0.02925279318356577
0.002491252591970345
-0.07004321402937376
0.0283518276340399
6.878166719476652e-05
-0.0315291527871232
-0.008284634713705065
-0.02213761048672176
0.05083382849635468
0.026341538802974372
-0.00027060254533790054
-0.01855727536333198
-0.028277067987936767
0.01047404797198775
0.014168128353750255
-0.00534012291042971
0.021106048724245798
0.04779870463289012
0.00976080952551756
0.046799357330745986
0.0073302481091172995
-0.012198959250340603
-0.01415073552835037
0.03126237747584298
0.011305518335287774
-0.01329728916921125
0.012313456173695383
-0.06835025598092578
0.023875832503253463
0.01011585458108729
0.029913774962572425
-0.01286317444892105
-0.002488740415755884
-0.036012365960096514
0.034169837475556304
-0.10031939364219965
-0.0735517452175849
0.11925216184662607
0.020052065847520874
0.04197621265155861
0.00015469408380371086
0.03463029258181773
-0.028080327003660376
-0.0003359847884679309
-0.006449842648806934
0.04880459222129755
-0.004649298829122021
0.0004226376675047401
-0.003519397418235003
-0.022803402362001207
-0.010103297478407783
-0.006023625927626888
-0.006626756095755774
-0.04070296807370116
-0.00010773816721739139
0.010533425938686463
-0.009859350467028308
-0.014536691565810304
0.04014447990527099
-0.03322796493273121
-0.049165277173018794
-0.019859536647685944
0.10357571487585625
0.08083632840549003
-0.008789962410293355
0.04033230514671293
-0.019453710220288883
-0.012286556777983635
0.03931839893047628
-0.023321805917054152
-0.004141762356724328
-0.170611050073532
-0.13678339115622373
0.02266952807087223
-0.02493328240477748
0.016728619160375956
-0.027556245405680965
0.015500576846708315
-0.004392853498332496
0.009175075204043908
-0.023424199627217323
0.005390793133727271
0.008012833721869587
0.00245435054671233
0.0038314194915745723
0.02905735153747595
-0.010178290247201393
0.09029743225723409
0.024991609973447744
0.009541274706498414
-0.021659942151286245
0.042623947397857125
0.025528196282528524
0.007849068115609524
-0.0064651398009974844
-0.011501163916500346
-0.04175388004784424
0.0057170784845358355
0.009385649032528533
0.01622760039426587
0.0001915792015095089
0.03075057977831249
-0.055163945281094175
-0.00626222753307952
0.037001211066093886
-0.03203475169224966
-0.011452982953537498
-0.023165908965410847
0.011061264001356935
0.026777197613019162
0.03805792774628586
0.011313309069946922
0.019172162431999446
0.054470506970284764
-0.019721271538235097
0.050329794621616256
-0.006519117804807922
-0.018218907725472275
-0.05005617720922567
-0.03133646419347564
0.00747563032650338
-0.008792334537759176
0.014399679674294962
0.026048155958538904
0.021214953150836085
-0.013534004394532041
0.0025876887975501473
-0.015224885371528697
-0.01967951514989403
-0.005121372597803762
-0.010295193456196075
-0.023235455851187768
-0.012062971769344111
0.01169361869852971
0.0073464249658014786
-0.05167732056656217
-0.024996610607020565
-0.036470417432265326
0.054429972583506826
0.07102600883624413
0.010504100750361504
-0.007255487745470592
0.053095207977408486
0.07334924931436007
-0.025608012492202455
-0.01611606142967163
0.00663110801532761
0.015194798628545888
-0.008210087015685085
0.0006415876930614429
-0.033500923966152646
-0.03641507456065687
0.004633862283789494
-0.02102282373398898
-0.02745430345884666
0.03290747600702404
-0.008827161271777928
-0.013121606767051727
-0.027934832333062855
-0.024294518733388136
-0.009457930471286796
-0.002643188125532562
-0.0005804319637454508
-0.06806358504095679
0.0013952417608058436
-0.020180502346541635
0.015858224807007017
0.08944184952538942
-0.023496219025242442
-0.004367972118792296
-0.007938247409408409
-0.03468522467610833
-0.029603930146468914
-0.019998519146470696
-0.016261622502616445
-0.002840567418179847
0.03572389247903342
0.04093791895691587
-0.03424667560992409
0.008012996936521626
0.002860942361236667
-0.018671034072140845
0.016656315784114608
0.02250825370612857
-0.028738712494297908
-0.028746486488683012
0.012826728645573462
0.019676992032514662
-0.0033587441006200963
0.008416430091501365
-0.005257388151117603
-0.018946740184006147
-0.004277470179929437
0.09440442470475997
0.04433068684707449
-0.008026289081439462
-0.008528090877315696
0.05143877019703678
0.05037814821347281
0.10576282587593529
0.039213381704574383
-0.060906016933159994
-0.03326050248570457
0.04134627266645913
0.008657083436831976
-0.020151126951480063
-0.014285068652062284
0.015359274609135713
0.001988981969295467
-0.00686004567495277
0.009375030884102879
0.027633862096320908
0.0006807600004849932
0.013525733609900633
0.08025661580637755
-0.04537156338469224
-0.02673248465474727
-0.010208615508273943
-0.05923088705044757
-0.019540638667988722
-0.1081734700451274
-0.0723193122442445
0.04882530127127553
0.02157281578766001
0.06265055907915831
-0.010104179082800802
0.02040847626771297
-0.15254906779769087
0.0028784081972944176
0.02018209201952872
-0.0241896429254824
-0.008965458166783928
0.008559165695656562
0.012663751136532243
-0.01458539619215512
-0.005029085887128963
-0.01475471740304603
-0.0042104954803265345
0.004522262022273058
-0.008095176773567773
0.025074988294087757
0.028602851196265783
-0.01694002081640429
0.014506029022873195
-0.060070489016059075
-0.02666532443246257
0.026988683819892684
0.00020291851611409491
0.01974318017828827
0.021625805790374226
-0.011210805535534121
0.024867150823286322
-0.007517280123601519
-0.015670025093288492
-0.03216254150510358
-0.021729817495314406
-0.038716931358800215
0.0543179540937382
0.033828398981944605
-0.024258532072430432
0.02535747273750192
-0.010451150440235363
-0.03691304384013896
-0.018162991758456443
0.02829927411039668
0.041976155489821095
-0.009290898255980564
0.004529509907180622
-0.009848899882536122
-0.0011035988288004338
0.006588716452865079
0.15871598457465314
0.05008548896763244
-0.04866271664164995
-0.04554722636446376
-0.011814054739747544
-0.02388340651089781
-0.006672458286426669
0.06681745231403986
0.06314740112117938
-0.036122933551068
-0.03470508003889735
0.0038704593057819607
-0.0026118278813808534
0.039745902820048196
0.012778180425803337
-0.003907328920886795
0.01649791913855689
-0.007573251748867586
-0.043878314607291684
-0.01051977665405646
0.03259043414620386
-0.03463385464197105
-0.02594367044862496
-0.04884646882911661
-0.030621768557809178
-0.005267522380620115
0.05671678208867185
0.031216144749475958
0.014250798310660057
0.02874327388825668
0.015043931598979958
-0.022337072455434617
-0.020555065941439174
-0.020712141745365644
0.009992945065551893
-0.020429907481317244
-0.046206434691961666
0.0012538883323012554
-0.007828051858001043
-0.02606371645662953
0.00205211214446474
0.036087878167164376
-0.007404966504665105
-0.016264734257319516
-0.0116046666063581
-0.026306492609029536
0.03300987022251299
0.01653393055727464
0.03490485483478402
-0.053416599384744884
0.009252368105831223
0.009867482670248362
0.0009615016371680442
0.00010015973199310316
0.0726966567288706
-0.06258004393787202
-0.058360759079779535
-0.07397548891354823
-0.012071272578034357
-0.05301813852111495
0.04941339405239866
0.12034715350969974
-0.01976193696531385
-0.017430138223331424
0.0010140342682590587
-0.039596725870509844
0.04029267543170158
0.09099635674188702
-0.03076068342113953
-0.018342546000217314
0.11997063589948666
0.055888933274491244
0.011739447215147653
0.010228700220189133
0.0011383399439029147
-0.03141367495071831
-0.019399324283869118
0.05148670876125284
0.0036277142957255927
-0.0103252045019026
-0.013989982613459968
-0.005703101952179415
-0.049839721904346254
-0.005617532607526685
-0.026714537647517207
0.002878251864079598
-0.008336386344145163
0.0016995200902159328
-0.06860831433912952
-0.017369347471082906
0.024913314047452388
0.010196855532138196
-0.00044279428166827837
0.014856034456020323
0.010655866879560601
0.0027200172034668956
0.014741657733421447
-0.027647982618040152
-0.011874939894843279
-0.016214830371793592
-0.07073952419813542
-0.024587533482671328
0.06737610337150196
0.017618374948165816
-0.0008277210473256097
0.002027852090860598
-0.020467275241388815
-0.018336643109808058
-0.02962384913103347
-0.02266985079165925
-0.01252439662799684
-0.007260678093456452
-0.008630908040742716
0.03311147662943951
0.07227064265608428
0.04832864080655813
-0.03959275215638681
-0.004707457132439988
-0.0017907004329844746
0.0008305242355219467
0.0019351356858761193
0.021707896558358013
-0.03061531275508014
-0.01455368029315333
0.013286370106560197
-0.006577751449425146
-0.025380316978233158
0.0022319797711394217
0.011013980857865589
0.016044144719680447
0.0035134513168127803
-0.019422905502628166
-0.019411899676664127
-0.031073700231186822
0.19209772386102514
0.09288014527835337
-0.05215982114478881
-0.01281237181398469
-0.019997249527702755
-0.015457092784220344
-0.041960616913356084
0.006316797628930402
0.019052581823952693
0.017797682208228367
-0.003576889198477737
-0.018864457502347262
-0.03369787927193634
-0.0031109946077261807
0.03706500627809235
0.030721356560237986
-0.005526472806715244
0.019866902290918646
0.02125422752336347
-0.022517900815906128
-0.028678688725509403
0.020235161919600175
0.0006493494032487204
0.014532156617664821
-0.010965486165174461
-0.03632699611035815
-0.04054749892378422
-0.011044022372565973
-0.050340624136969915
-0.022104251500761514
0.01194685014606336
-0.008640397771490976
-0.011804261677455677
-0.035380789556244206
-0.01711884673666195
0.007029514324467137
-0.02534280244018881
0.043747235855687565
0.08413995396155292
-0.026636906795206278
-0.02706372229565989
0.038629081035665064
0.028295413306545555
-0.02405208070229823
0.0007851267367816596
0.003299225995850952
-0.023117373621058725
0.010738983613507948
-0.02645265093779577
0.06138043780910669
0.14667822014313317
0.021488807986224694
-0.03133352041382207
-0.018786044393468256
-0.009885580070366622
-0.014033570620257212
0.0036054518477317892
0.039624235310311486
0.03476913542101833
0.004805185197020698
-0.012099111629251827
-0.027993903322136755
0.026612904913321533
-0.015087367283532185
-0.03066248917849901
0.004234655460876926
-0.02893287245764714
-0.13528358342088947
0.06402186392699272
-0.026659496309712778
-0.08951237520623405
0.04372424622549887
0.03805609956289971
-0.028662118516221424
-0.07255103568106509
-0.010013529935613177
-0.015584600487589514
0.004651499806633316
-0.014741069007510389
-0.0012333632748492524
0.055508209401463456
0.05337344158419633
0.0064246898992253824
-0.0027718646550202474
0.04876286635655501
0.0002927526683048329
-0.02909250038012723
0.009228110842038341
0.019238865446395997
0.055142336024092
-0.01480759012446448
-0.03269142759668582
0.004299985989845635
0.036096013550653325
-0.006863022337842874
-0.00927470007832571
-0.0417644945165087
-0.022727381242604865
0.009747962536990005
0.04326012066255085
-0.017968516823374477
-0.02706374930920742
0.029343488440448668
0.05839840934683061
-0.028301262814946278
-0.1405590908549971
-0.014696417718885395
0.011790469978506036
-0.007199452666951182
0.014449619015272995
0.06435768164313797
0.06428893362479822
-0.04195461531124263
0.004965885774256099
0.021603720982855637
0.014524419023168053
0.012303078185005402
0.02072366984963547
-0.01644174545438985
-0.0007816381091821202
-0.025933071048530047
-0.042166699719788904
0.06963857447198006
0.024152397825821945
-0.06434560415057931
-0.045976577787978944
-0.009055100001151459
-0.013205310025668047
0.01681416409216739
0.003608253517709354
-0.002683468140759206
-0.010634339389086839
-0.019474652209712777
-0.008911230041190207
-0.005853761418005005
0.10519106531795437
0.03418067580741437
-0.02116937888901281
-0.01776563504215772
-0.006845995174088733
-0.006187740086704907
0.0008133384713502897
-0.009123129325441078
-0.01982781733702641
0.0019238587184180794
-0.013497930982597387
-0.04344893974880867
-0.004379784550175928
0.01754985276221367
0.08042548524641746
-0.0036653399074175644
0.013153431701899119
0.009436345342838067
0.06961528744845179
-0.11371612504443242
-0.054776001110877055
0.07567992659141709
0.02396841642749121
0.03856966084192698
-0.030072598093031283
0.013341975103228295
0.019162581058989683
-0.007770974092869166
-0.031194452163177747
-0.10004514513581059
-0.0020452636671641077
0.0245457247035761
0.020980650069563803
0.02064224958308889
-0.015125984733861645
-0.06778223351431222
-0.031242577318990123
0.12076246609626376
0.058965448838127134
0.03625515765295453
-0.008477102029414305
-0.023341397692890585
0.021991646385952416
0.0008983013032956109
0.02604296364173873
0.012879642345036794
-0.00574113349773295
-0.08105071260011212
-0.05636291913389248
0.009020751198205766
0.022191650561884962
0.01043052497509107
0.001403849715536113
0.0008064693408429874
-0.03253144418405528
0.0324861863414493
0.04159380996782482
0.009583014553039374
0.028933680723138865
0.01151122495673178
0.009422264798580425
0.003898935098985536
0.008412839555524328
0.0225816152221969
0.030533157085266466
0.0011760889267500036
0.01479721413057716
-0.02794801120742589
0.02673686707996664
-0.15736027506779804
-0.0058360267318937195
0.04111058092568848
-0.007853072831931788
0.020388049741461356
-0.01434224973676963
-0.1722253799908717
-0.21054719489645293
0.026323833237258325
0.0069506980926421005
0.050973833036593474
0.011486650427578283
0.03939897910748629
0.015848362732180044
0.028331707595975978
0.025689126062900622
0.0502033675199035
0.0016428482165786974
0.0070872957877294385
0.0009565422131080858
-0.004719091701188413
-0.029365940369354894
0.008429240434699005
-0.0035234549743173257
-0.010753725410628533
-0.043141438720240254
-0.0070648581245834905
0.014287360771458295
-0.01908487115425109
0.004791599182557666
-0.01634541993328013
0.05425874439430316
-0.1794721741576528
0.045964957119091626
0.20545180157499962
-0.05897558137125562
0.014627080118543698
-0.02798321977178924
0.012039648016109994
-0.06573904430043864
0.005366598851548695
-0.017889525265210277
0.023680254388173387
0.06731654864499553
0.018491224241714784
0.0006166225599529486
0.10919605561532933
-0.020472653881512724
0.01684596534551888
0.009441689596999595
-0.11288969491676487
-0.0341403765342349
0.03683604426203965
0.03177988410339412
0.10545615262691015
0.11267574707742306
-0.06123921960249348
0.04517410534788674
-0.034597019659296145
-0.01166233015589901
0.03051116529492992
0.0014715156531278726
-0.0500822315250045
-0.011468717567304897
-0.05970077723681404
-0.10313775738301639
0.007637861976158213
0.056234368483023975
-0.015396306583480603
-0.04599575226516181
-0.02867869723862124
0.03729980701021246
0.04890972964182879
0.02960353720163156
0.02162692458286943
0.0014993421060630408
-0.012442449351257717
-0.016397698989242135
0.006659111877040713
-0.00999301155753937
-0.049196085301348655
-0.007150012408831411
-0.011537363686974752
-0.018487582858340026
0.008205706280601589
-0.0013380122552496205
0.016289449799100693
0.034579104143055955
0.011347798845519137
-0.007263245572852397
0.0488065817543642
0.02562352987677438
0.00727404990687095
-0.035190286955288336
-0.00484480817388294
-0.03366916750773159
-0.009817871951401857
0.05504497285220252
-0.009097426722908905
-0.008336744531419051
-0.03575303815414471
0.03294240525509926
0.0003702466961766346
-0.01226428522622937
0.006630550455439536
-0.008570878665922217
-0.005524497010647311
0.043950508881647685
0.029097601653533114
0.006214973720732127
0.005323202079532271
-0.015686510150303163
-0.02786341871336715
-0.0038650221859247175
0.027009084906419314
0.0035283636654005602
-0.032762159735721004
-0.04062056651939795
-0.008939384731442589
0.0012718325692058015
0.03913092753505823
-0.011021987894741144
-0.0675164870562777
0.011263382355429268
-0.007141575918406056
0.007333576591909557
0.010937646089268003
-0.01722926495307074
0.002830646747046364
0.036797047654785274
0.0036334410659261576
0.010793547244579075
-0.006718763057339902
0.007057129251827851
-0.0012702758642024465
0.049024464971187336
-0.14638733811916835
-0.10805584527269106
0.030806934755670392
-0.015011728779309385
-0.1555528645155366
-0.01832092628228752
0.020137091377246816
0.01497439789966456
0.04596516541214413
0.009192027595863276
0.033649030996449614
0.015683216514280163
0.053382361637972546
-0.01832240356936784
-0.023919471768802526
0.10698554233007711
0.042835611675780434
-0.03354377084633838
0.01236698635559723
-0.0025612505518355414
0.009715633164049024
-0.01059331019448687
0.0025911396120262523
-0.010012399315333055
-0.057774005530194766
0.04286117420564479
0.05630069284438046
0.04677802300380924
-0.020368320330025075
0.013416510369460379
0.07871776370167498
-0.05061682359936288
0.03019523934203088
0.02557011983284612
0.06492428076699569
0.0254306185065252
-0.033300305055524025
-0.0016698706273565527
0.030154930754671957
-0.01583611368170194
0.016747112360982877
0.014566703753182421
-0.04308593812117489
0.08610252863109817
-0.05800022880798855
-0.09968812073221422
0.01666460067619563
-0.0037900572376854094
0.01413731231493629
-0.03499355200390898
-0.02355717593616846
-0.0021450931196088986
0.004678839131042205
-0.00541326484981111
-0.025254741808848315
-0.03215363169771599
-0.01893145023665859
0.0024088324586364488
0.006433162759175045
-0.030304291237900988
-0.022902072981851762
-0.053094650129282515
0.04493576471009805
0.016588371320515768
-0.02524737204885204
0.001035915031683919
-0.0004470526624945233
-0.027394426051156554
0.04428094035173663
0.029327523606841984
-0.03353825391079936
0.019273384270987414
0.030905854877833913
0.06992199863255966
-0.013002111245221664
-0.016259445728716976
0.03635310008613905
0.0512224364591908
0.008624575586752375
-0.04265386129485195
-0.01647771545473453
-0.025480276522384892
0.012402742867409385
0.01703205048973148
-0.005973721208894695
-0.06599223012448542
-0.004829679618170366
-0.0012435494333168098
0.022644353885029868
-0.010606990878865422
-0.00493343146715079
-0.030064035457574433
-0.011542123530784487
-0.022609256441205212
-0.002148062470583859
-0.013971234213553067
-0.007259477929795417
-0.02763954891953434
-0.006472682872562497
0.018202020600382215
0.0131703085113039
-0.014435337386184844
-0.0194452424706085
-0.00632008834749476
-0.014900418445590365
0.05418294874015206
0.03988596880997749
-0.01712367580883192
0.004498221426994887
0.006204865909837314
0.018940018581715904
-0.016155726592730926
0.02148128681276624
-0.02528218964697674
0.007942282064728048
-0.032467921667520945
0.043101646604810334
0.03082565136339553
-0.023965422101080616
-0.027473248283794893
0.03422316533256626
-0.023888802656402454
0.0035269776644028003
-0.015691544283403747
0.052461672307496224
0.12846687772009616
0.008582199518963104
0.008649960649135428
0.03384185185549746
0.04453457993497246
-0.08607361730808277
-0.0010528738089689322
0.02101553862126207
0.024663133004738085
-0.08835449476918178
-0.07662639798497244
0.012054027209210698
0.012755166087891458
0.032178274281817715
-0.014746989539719575
-0.04964159711926358
0.043784963348356784
0.04329745892836939
-0.014540969734205786
0.005232068016356003
-0.008132011966777066
-0.02958516906738736
-0.0056146859522700834
0.021504067804518058
0.03070767012022985
0.04203912340737077
-0.013651180185721638
-0.020992763429744474
0.008347141486165326
0.01695667766611077
-0.017610818643204622
0.007075908005850718
-0.009229394394791065
-0.06372410550831988
0.013283407270310188
-0.0027345814194209748
0.00793499050641002
-0.04078033995614696
0.02025874303237299
0.012521045773662195
-0.021916870415270517
0.0023275368019732884
0.0415842338449814
-0.07929816323971232
-0.11778120563749613
0.030389552868284278
0.0006426062860620031
0.018552222366778875
0.011804565038988354
0.03827623750468639
-0.004916488936203364
-0.036930876036729836
-0.03746015799570081
0.01588857540408195
0.008102458000490384
-0.04043029859495459
0.023288529348757223
0.012764792745150022
0.012781050971967913
0.027248754147111646
0.06929672952794351
-0.0025463596351336664
-0.01497624782928288
0.00921851161773189
-0.0125865447866126
-0.017050865462314754
0.0030732706608299436
0.02152864417389062
0.01139484993778594
0.04381196254744787
0.024791778453665654
-0.0019496979205114473
0.042584771259797455
0.022504290459590928
-0.020767618167509428
-0.042778648092029886
-0.11059082553085794
0.001249365299112651
0.016124674545211593
0.00749227275166027
-0.028342453318220728
0.047570000371351215
0.002392946614994555
0.009630304087347046
0.021470121069579566
-0.009108706342975994
0.003910041166888002
-0.002140496179506743
-0.027559231384345618
-0.016055893188642287
-0.02201746746075839
-0.0052700473964949
0.007909682218646366
-0.02379963386216729
-0.002186675761913424
-0.009605876372097786
-0.007322176191923131
0.025253324830497033
0.02057939756608083
-0.03445555364096072
-0.051974072448596524
0.0117911809190522
-0.020185650130856662
0.002626283269630849
0.13168011606550795
0.016673657815688723
-0.019989565536003395
-0.0316523941200344
0.004020248833224312
-0.01877171640113529
0.030579687528863322
0.026593572163329898
0.13396670889343962
0.018695713975079468
-0.14079875986054918
0.008939535802683897
0.06331774195433547
-0.0572900665984816
-0.14946937418987846
-0.005311849599193292
-0.02146418194563953
0.024619794183008952
-0.00560623614909838
-0.02871433334639613
-0.03595825043300119
0.04549369043612554
0.000902943741824106
0.00819103269718024
0.0008044674657170202
0.027413353936769847
-0.07938059248234561
0.04113121529264651
0.14275359335563173
0.002308968464297183
0.017396608520880402
0.022782915612949865
-0.014266810240928766
-0.012122134122088166
0.029519305352080184
-0.02202687318655595
-0.011296978083083532
0.020636425238275635
0.049002811220508244
-0.004941539113492264
0.011946877157965264
0.015639131519060653
-0.06525068865957745
-0.025667289200249927
0.03720700975431308
0.004560065640222486
0.0011705826750439275
-0.012147848374814474
0.005676736916579592
-0.011413775636438937
0.0037921131233205085
-0.05339585960205201
-0.02454951782470569
0.016263044948081812
0.02161844383712224
0.004154331350424185
-0.012672593282434029
0.021432151722315166
-0.01832558177167691
-0.010597354971106605
-0.010395715266986794
0.08462920074889993
0.07068947383749848
-0.0365688834931175
-0.00012982760340446748
-0.008478749067224766
-0.040964019022442726
-0.029757222624583628
0.018384324550057795
0.019102152472426918
-0.00486634700669723
-0.07262421500249083
-0.01941756499929962
0.0025322253450891286
-0.009620074913072294
0.02607152775139169
0.017035772161909903
0.02444058172631664
-0.04223352109587808
-0.024832908167653066
0.012645091176727566
0.0336036420573122
0.004094712606497153
-0.04705515748671251
-0.009777445024685354
0.08671280040255362
0.029995949286469235
0.00711596294310831
-0.06173916720244753
-0.08168171097593425
4.0176914023273894e-05
0.010616667383316064
-0.009305733960157662
0.003082870067344065
0.03435085098531132
0.020742743446172437
-0.027199068970780307
0.05476040969564493
0.15907624249495056
0.020390932134870404
-0.06370284583174973
-0.22983143164088582
-0.03534754012275004
0.002829543371848269
0.00663538626511931
-0.02430332208624686
-0.000521678887224419
0.018988292026703758
-0.0034105880874436274
0.00556241574027632
-0.019001138972531608
-0.02278198763196071
0.036706335251051506
-0.01496180064974527
-0.018058762588329603
-0.0035173907057016473
0.03554482774150881
0.014608988257639814
-0.032034317020947015
0.004249524705476708
-0.04654914953858929
-0.06970489414939458
0.0327369292357678
0.11628659400364076
0.07838508237944072
0.09674280453795558
0.08163183853926106
-0.03401504293925142
-0.014460893460196342
0.008075045021695856
0.007277296774394934
0.019925526034480494
-0.013806064614061125
0.011270126540409745
0.003608048376945668
-0.000995379376190835
-0.0330826163811416
-0.021890201146538574
-0.005075194191064485
-0.005114329424328021
-0.020940915712623864
-0.03435804815072759
-0.03542714469433785
0.002563919358379615
-0.06655304794461017
-0.01956208541256027
0.01184046287927649
0.02285818014000152
0.027239151225097964
-0.010249399779818098
0.010122081426488688
0.0033458837148874856
-0.03823425254646109
0.04166608837663027
0.0438727642065437
0.1305426021336289
0.009381846641400578
0.009309460616421964
-0.02842856521052307
0.05728140400061086
0.015694629900277337
-0.025423243106690165
-0.009533983157390596
-0.0049611474188939915
-0.016306172468934853
0.05280965121115495
0.025996832509127075
-0.03234850812171754
-0.15352644148444455
-0.10302436457834056
0.022632607471386804
-0.017241808135432548
-0.005425136601878298
-0.02967156477671106
0.047558283312817626
-0.008833679865472482
0.007990309701768415
-0.015379482939189443
0.012273600513520338
-0.039997912671810625
0.05221175549313857
-0.09342095601032138
-0.1870492713100621
0.06334430404981038
0.00637865742813094
0.01631191223729652
-0.0015579205367541222
0.06611111118893025
0.14715155006766345
0.03162470912219487
0.1375587839890094
-0.005348983713569144
-0.011753415968297964
-0.020482579622115936
-0.02599761813303267
-0.031113747618028372
-0.019708408900490908
0.022550886179165085
-0.0010352691300490506
-0.019602485594728793
-0.007169504442120511
-0.03426592516685808
0.004259265687278517
0.07499770041981779
0.02009360416623574
-0.04365091571633533
-0.028890626630933423
0.018263411822857387
-0.11162119584636099
-0.012300936079002501
-0.023462923313504705
-0.020940231900697198
0.006838491233059186
0.010062532690831748
-0.053682281863076664
0.014066269805520393
-0.017289372804288244
0.04389544964514726
0.04284669827649916
0.05981274213107693
0.012295358059540521
-0.0630642338217306
0.0003101432049221309
0.010009577705538099
0.04853062161900899
0.0037577760741361117
-0.00118191111361683
-0.0034838830599562753
0.0005293048805109949
-0.010213428792748459
-0.011144955752286483
0.0064869807678287275
0.001192006133054598
0.010201917712893246
0.011874645335216288
-0.026486524036416156
-0.027499739396339075
0.023216664523562275
0.017470926235696363
-0.03369308339055341
-0.028253251609269982
0.046384771279719024
0.07143866097625208
0.11956814320492366
-0.04096349678537071
0.0011207514732496332
0.01417583767333974
-0.0037618791829410886
-0.032721262393725435
-0.058728319427268784
-0.004855522222093303
-0.04152336853652385
-0.018603162841312967
0.009572053384226214
0.011546955777949265
-0.0018703653105478805
0.01817323132578684
0.022685749972728965
-0.003955842017991207
-0.025234169503806487
0.037877352807629515
0.018575873973514727
-0.011722796968800409
-0.04497981115436357
0.08656175032257986
0.07628890772881176
0.054431659489200195
-0.032153125193439686
-0.02077955043533645
-0.06326873384848859
-0.05746957485925487
0.051232823143177356
0.00766331280343058
-0.0029541016844402104
-0.03121018993639574
-0.022834060635875307
0.035590110291272466
0.04854798020068948
0.03413729967494407
-0.07189368391437728
-0.03686022831968508
-0.03769742953168505
0.00948430233094328
-0.07632348601331754
-0.13491606343053902
-0.024003059710079266
-0.02553224012663111
0.07977521029056586
-0.022457234024320805
0.022347583330205572
-0.07031671615054412
0.014766380381487863
-0.00428123059107033
0.005477832201492053
-0.06286868197388966
0.08580332948649176
0.03590854750212582
0.04678660966443354
0.15885026989886925
-0.019850896783261643
0.026055125394543507
-0.04258771485039899
-0.002336870485576137
-0.023328093790691968
-0.014227240314562569
0.010949784272175493
0.023791696315307087
0.009824969786815274
-0.011860412357347142
-0.03721300887726923
0.0329596198373414
0.0981792680612436
-0.005567368024612805
-0.05517747251578219
-0.02491175716273655
-0.024364404474606777
-0.035811214245100566
-0.017326343067933694
0.025279663242499844
-0.0313809094151187
-0.006406891366763624
0.02330913918182797
0.020601095979847734
-0.008378937674980023
0.0021544499202814336
0.02708529066677266
-0.004337910096149487
0.06143298855196964
0.014109435524856212
-0.027854643748636183
-0.019021064749419746
-0.02571919467252036
-0.023573307683933273
0.009507895840448444
-0.012534186574141437
-0.030661482682672415
-0.034178448035596345
0.0030873103871823637
0.0339440431218253
0.010450672733341547
-0.009176823565279036
0.003132581550299179
0.02566458765764542
0.04580895037155771
-0.0549440832992815
-0.0131619658161177
0.004995083431371721
0.004447398097493912
-0.040637424389378285
0.003412697547102177
0.04962818632718768
0.058004903058976216
0.04762990009147896
0.04620767372606265
0.06275760100806946
-0.009994374989080932
0.003253865501622766
0.009375143844037906
-0.16341160426788623
-0.04098973225486888
0.019605201883642846
-0.012682464608374964
0.0409715056361046
0.0025941498538412018
-0.03582120060070878
-0.02790399927747285
-0.010750314294048522
0.06585457667845795
0.026373337602494325
-0.05430877150333154
-0.013830195030182197
-0.030155501248174933
0.016727431234177904
-0.006817022261176992
0.0708051221687169
0.0063901174510135085
0.07617478935604075
-0.006710970028856452
-0.039156109848920505
-0.01339726175081785
0.005400287867242981
-0.0011812260499219631
0.03103023860891292
0.028595594646277363
-0.006409006667682605
-0.029549658884711713
-0.019250011642391474
-0.015203264739706606
-0.032521884805147235
-0.021690265388873562
0.005366984815470785
0.0327071724395753
-0.03358750046429753
0.006955476387487643
-0.008378682533870838
-0.021244247349768475
-0.031176077725103668
-0.007985763665900945
-0.0001785846332797325
-0.043803996866778175
-0.010069426969303814
0.013107868965226756
-0.006840093984120644
-0.026547441573475754
-0.033272616507467136
0.06243291216176934
0.055832787665249115
-0.00531477835410822
-0.023908867839156165
-0.03231209920526078
-0.0037526520979421023
-0.02703440710174108
0.013580707503936536
0.05766116972534309
0.03598749204085616
-0.02441811427244436
-0.004493933318978159
-0.03716450964976375
0.0010023538044990992
0.00395600921031579
-0.033131469750286545
0.05751987825572979
0.08245876471214743
-0.001940141180152125
0.0072164392109777325
-0.01631467789966543
0.024951284390026994
0.00046918879276052595
-0.01912797137857688
0.013503698556702881
-0.009076365708962121
-0.047725694639570916
-0.03124663990671202
-0.0143515593301402
0.044835173069293965
0.020209156133121523
0.010799145372130028
-0.025357235332829756
-0.02096021040030423
-0.0511956017744608
-0.005624353068127781
0.10268447829801876
0.09442916716436722
-0.03170476622596323
0.0007063658226542771
0.08276875551028152
0.0538542603874207
0.009936252526983533
-0.034887593427760384
-0.03189892650303685
0.013716710415843455
-0.006307012426219063
-0.0036589855320041335
0.001264061480797923
0.006656285820964066
-0.011836839257972584
0.027046800216225585
-0.051232482226647814
-0.02054919952897268
0.0025796279340892427
-0.037550187564438176
-0.026039195633530455
-0.017372366041573394
-0.024954064540788228
0.01484178031993262
-0.0061936619685819755
0.028823673657500302
-0.018089872318682036
-0.11988987487557293
0.05405289178265673
-0.09667320989189665
-0.02192961192995551
0.004362348785590148
0.019894843831982666
-0.02037824241334338
-0.008557627309908498
0.07374802649446215
-0.003986591175817584
0.018563179448767373
0.022292552321217404
0.052496104992451116
0.033675287439951726
-0.020370097829529688
0.04135096476403452
-0.0012239440702744252
-0.012369639165910018
-0.00535429150586725
-4.3738596958009866e-05
0.0005097619658932993
0.005330476219955773
0.02020750551869934
0.027442015105836184
0.013765196506759792
0.004403172847456045
0.016058882107822837
-0.045908721552572376
-0.052887687612841836
0.06880746850565796
0.008684112412597568
-0.0006653028989180971
-0.02493289780350994
0.0021175901832054885
-0.02391521708494609
0.02048060612535869
0.01212731497760711
0.008859987106584328
0.01628851612723625
-0.037679214964959185
-0.011137718857742365
0.03686947355174584
-0.08253131578022656
-0.02072253883199465
-0.009484585961130979
-0.002692145066869436
0.017063740393397153
-0.1079104105761509
0.003071273871160692
