0
0.00658177532595954
-0.02721031939504257
0.04931084822537687
0.009325472334788795
-0.0029707678722157116
-0.013171158954911071
0.03381660757874406
-0.07973630624966824
-0.19745696866141377
0.008044895390131061
0.012888672839370731
0.009807160967703229
0.011966977192742267
0.045952799133689805
0.00016802026164741669
0.02991536453895763
-0.018884350661191505
0.0722040687321328
0.04864381314936356
0.0010375808122942021
0.01660566902494493
0.014906786983780033
0.007574644658832386
0.018472113577103867
0.04027928688894037
0.0051403007649487254
0.03149305688920438
-0.002685528373037461
-0.010497207925528888
0.0030960148179869917
-0.009471948695271907
0.005582634998546605
-0.021001433383458314
-0.022874789767044493
-0.023377225684293273
0.021746673939577812
-0.004859177926433345
-0.0090473701117757
-0.04302997156841546
-0.010933808527170264
-0.010452660072507622
-0.021937850142165302
-0.03423279552188553
-0.004937356490345144
0.014000945170656514
-0.0036988647616682875
-0.020067778064174344
-0.007502871937335647
0.00027249651581586984
-0.002762782092396322
0.03323323866576646
0.010657705795111189
-0.01977177402581557
0.0013310996928498702
0.06463681446061986
-0.0020137171077685245
0.004083912487053379
0.03288101476571887
-0.01793858178233436
-0.01907615763778544
-0.024836428494855407
0.009399591803451712
-0.0019026552272752239
0.018742552708357584
0.033542166440481885
-0.022230526285071574
-0.00789495735257604
0.014290720255836041
-0.032514893546650867
0.005354186024521901
0.04247254224381767
-0.039985955572003434
0.006587022870492535
-0.010802961652578547
-0.027742393518558686
-0.008428677903065783
-0.03495176366409301
-0.02731586880088235
0.045306114772193165
0.055335361931254705
0.010465780639165976
-0.00877244578498893
-0.013739725434180642
-0.020484736280386814
0.007198959141114804
-0.014347517234710925
-0.0002039438054244563
0.008903273107987388
-0.025745245719506125
-0.0015340545081555304
0.001149243970425708
-0.021446283589942744
-0.001065632867196583
0.010185208659124003
0.04698701927464738
-0.03865034449296665
0.015807530303029584
0.04053578459284808
-0.04022409025805707
-0.014612265607477906
0.010545856585731534
-0.026256757177232328
0.03108355137144368
-0.01012759340668218
0.014858649279974727
0.0020834105657865564
0.06876179049136456
0.04082525528221156
-0.036351773744631784
-0.042056537697010156
0.0018213325508635364
0.022640354073882256
-0.030416430758392933
-0.01823189785569749
0.04180859017054534
0.0997701140690551
-0.001177026165265868
0.007477981992906492
-0.04728660738423666
0.0026165773443797146
0.05752717872685508
-0.02904141684660146
-0.016673677811165872
-0.04016191090768388
-0.014238486769041233
0.017060037074363536
0.010285020317694606
0.006632325014988999
-0.04856150500652584
0.008524899528799194
0.024257786931847384
0.049777316095934415
-0.0014957644398845486
-0.025299596761704582
-0.004984580246658669
-0.02057407586170677
-0.010761078451188006
0.00013903849834573205
0.012271656522322878
0.016522670511419906
0.0006315033099372584
-0.05986743136471985
0.007326965748955572
-0.015810984794257212
0.010048282844090341
0.004757016801163458
0.019793859670989906
-0.04815084810113402
-0.028743600493380646
-0.011279702880278656
-0.0031080833263519123
0.03149582799051967
0.05750719600699279
0.04516541156308532
-0.011799011338819198
0.011229461458231465
0.05410433215098521
-0.014718990308514611
0.019929164941017322
-0.01886006851224932
-0.025685731677750113
0.024718698057058647
-0.007129450399633341
-0.015031895972194351
0.02794035356397656
0.004207292444911542
0.03262387937456413
0.029798331757115482
-0.018447192375059703
0.010959448755965889
0.01548342927399089
-0.02780985746377494
-0.022142590485896518
0.014826123345398639
0.019695547410595877
-0.026513247394535144
-0.018804416756024213
0.012780027324244889
0.020794193769945544
-0.2561137023053106
-0.24981084691214606
0.07323056475841544
-0.003766431506816228
0.03287252106231294
0.005394534374636795
0.023392461864865727
-0.001377881924990389
0.01524242218878181
0.020942239687368268
0.017528437505202752
-0.024725064519122916
0.011902585774342531
-0.014386264991540098
0.02428386400462328
-0.01843409363552666
0.03826182844253282
-0.03581028919406705
-0.0017352234016174653
0.043586110784732714
-0.01164050277629203
-0.11155866114609204
0.05032743435231291
0.1878696725710923
-0.01411442123380007
-0.014281953972698123
0.023365103858900765
-0.002757402092969958
0.05075303914410675
0.003814229490911375
-0.015769698683060614
-0.014600055748400256
-0.008253656095076736
0.0003942304873234523
-0.008532583680662762
0.027309538728183518
0.06481073815673301
8.094803948144787e-05
-0.016693258690530583
0.03465331771724808
-0.0369587151624675
0.03146188734127069
0.030151754866183312
0.0029371909204746406
-0.0070147419632332845
-0.07188652712086749
-0.042733878709379516
-0.01704244769366086
-0.05009144035930646
-0.015681074617177198
-0.030296389778132125
-0.05494146130386551
0.025783228270969454
0.01338251717637027
0.01209120842300616
-0.01315018602408604
0.0007706247975863878
0.19911006765462075
0.010635976689143489
-0.0006434190943931107
0.18215100106532953
0.08011622719284467
-0.0313313533373578
-0.027162040009493998
-0.018614958867770634
-0.07604112191882756
-0.09730810850365454
0.01734034402412284
0.017773124359884367
-0.15172789605268014
-0.09856639490235952
0.006749833739320523
-0.036737052450769164
-0.029702036672224034
-0.03749908868497823
0.13499545568158997
0.0014852762510230678
0.005791948234209543
0.02828153516831261
0.01350764910261832
-0.02559806115079934
0.011924131285373478
0.038525445700481664
0.00443671548519406
-0.015034946594583638
-0.02423427327023954
0.004380176953448378
0.062483569273228526
-0.01592912733970968
-0.01232058835619358
0.030718422149752664
0.05553042741600925
-0.10072205876404013
0.07108547251619117
0.08049468315860718
0.03212805687791905
-0.04729016511888075
-0.01714253341734691
-0.045793768639472446
0.07330805162891388
0.09512340306770417
-0.030330449502222127
-0.0059497933154465015
-0.029018574107188465
-0.019126024546866086
-0.0062092914452854765
-0.11825590228564752
0.02080276284473794
0.009773673649676712
-0.026959658195470672
-0.010949693600564666
-0.03282635919371402
0.0052388004641459466
0.014040473082138127
0.02947457158530914
0.02568287840380149
0.0025678639113096017
0.002166119600948772
-0.0165500112070198
0.005873908462114461
-0.001479390084274215
0.05423555972641257
-0.1354454762701888
-0.02248478309336525
0.026315031141409803
-0.01979648273601145
-0.0029957734116837632
0.059627225551956944
0.01603240701313726
-0.03467849327282965
-0.03157724390621344
-0.017345497769292055
0.0399572909757503
-0.038858559062206845
-0.00210033491367488
0.04602288414927189
0.015264339378682303
-0.024124277404530596
-0.03640159961951303
-0.017982611897050478
-0.007692679150738376
-0.028978825949404055
0.0240348126396663
0.023031857819596345
0.05570198861688423
0.05302097005518
-0.007222324277768061
-0.01907778658963713
-0.0018914541404268183
-0.01709634703450915
-0.024702963872850543
0.000632861680273997
-0.0049051592324296294
0.025282139635609067
0.052814721353159885
-0.02748631947414412
-0.020298410379075763
0.009832146000280605
-0.0115028765119387
0.013350532008140107
0.08394691169704442
-0.019271487632696354
-0.007068968057733131
0.08359335867925914
-0.038631252904340246
0.0219877118670626
0.040706913204275656
-0.01107155491484136
0.0002718770175767464
-0.024232150499858735
-0.030741683998875315
-0.06452498841088791
-0.0036683690759902244
-0.021530367348181263
0.027782277889380765
0.033657972789727784
0.01582374519338916
0.0010824614729827834
-0.0006696300373575437
0.0012167924861676462
-0.01665267145487301
-0.028024681190938542
-0.024796108767575892
0.004312621456858897
0.0043687933604538735
0.0009550967296307481
-0.026530014794573537
-0.05429156229330055
-0.030461784513471635
0.025705318375319954
0.058430368483740766
0.06449851029304224
-0.053489852968461524
-0.042644659115106134
-0.0013783518458103995
-0.0102771467632886
-0.05781064866165244
-0.04387532456499993
0.05072599213490008
-0.0005907086920882185
0.1109364583450295
-0.11483380491907663
-0.041083628196561084
0.0036319283891477375
-0.012681214344427693
0.0831437696677694
0.03983667401143091
-0.059163948175709385
-0.029836472079122284
-0.021001410412174164
0.03314458257557581
-0.0569128026994883
0.0037396833207576845
0.01683666044658261
-0.08215181677296739
0.043991704128789215
0.17634755829699145
-0.031199863735004833
0.0051675958719019
-0.025765591316158208
-0.00049620628697174
0.03206095986194901
-0.03717248055154356
-0.06714112308541817
-0.008471264132925635
0.16585333442752123
-0.002709806225616651
-0.03191553480846196
0.03588561494260298
-0.002940038041858064
0.038278669327646
0.015250758282294644
0.009650991393945742
0.020828298438232945
0.006181611257512094
-0.053991893788044
0.015520175960335931
-0.045490705627214925
0.003310062969914343
0.08145195798518892
-0.006418730703633501
0.04304993359451379
0.008707548534946373
-0.045027326041198336
0.02791476231520525
-0.002959288409882906
-0.018201935394931014
-0.011330294830414407
0.006827372980811502
-0.01678059951936144
-0.0280992999695108
-0.02429128808243407
-0.034378642241227976
-0.012640502541415606
0.02363562909252728
-0.015333567605799276
0.0775106435737441
0.06169529562948534
-0.016219446551849204
-0.017607349416734266
-0.05252711653700005
-0.014745062408755897
-0.03490975327566863
-0.02141354398585679
-0.03695534227773345
-0.0049533041272874735
-0.008457893825621829
-0.011698788840436148
0.005008744169890115
-0.030532217006333743
-0.037439465420044234
0.02437003115582229
-0.018473041452896907
-0.02805237698294309
0.17483947211586937
0.01818481342018065
0.009734924999264396
0.04992344305124532
-0.0012839954205548123
-0.024033166180617595
5.433064484594707e-05
0.029657360742517676
-0.045947505852033346
-0.006317055404865159
-0.017795426473900502
0.006643207817899902
-0.009816335088294654
-0.011659758478152885
0.053170325137564554
0.012737548307887469
-0.22953869985823602
0.02046039913606981
0.017626183358630705
0.013686410665988967
0.010103298659705986
0.04744403557316787
0.025391904392473182
0.012978149708527113
-0.02310765311713095
0.08962282778852868
-0.13446901095562241
-0.09846558623689891
0.02417484894575172
-0.023455102373295338
-0.005851750344516372
-0.004675818916841964
0.021068182380365053
0.025958426911883423
0.006820606376599634
0.0606854584261753
0.07879394806306671
-0.005979162700539142
0.02220844776767471
0.021321132083032268
0.009394519846909775
0.007908645248480409
0.007314929938545054
0.00619207230062765
0.023472341269946163
0.03950926612011631
-0.0020104840543058032
-0.01400009349782285
-0.061278472175497034
-0.023456163235664153
0.0331969304161669
-0.021635675660419827
-0.010759458766460762
-0.022284976495235503
0.023737342434318628
-0.03368077155545522
-0.017015692410499123
-0.03771995549119257
0.00446953982157003
0.1109354242592764
0.07172933514459164
-0.0365232808569938
-0.034095113221316635
0.05384982115955093
-0.0053671802954439445
-0.1223659477033088
-0.05069262394740539
0.008518088657135164
-0.027129275386520987
0.067665570821886
0.053905109256123275
-0.026991289708056004
-0.005510470060762921
0.036358204424180356
0.030615425618653585
-0.0018718038379462476
-0.030759251915210097
-0.0018752493477490139
-0.0716654735495176
-0.046399981123840105
0.0008148456065932093
-0.02655318806521408
-0.016084237303905107
-0.002180244878771995
0.004253514632598666
0.021762447776465455
-0.002415611319855623
-0.016798675141949285
0.02129662375188089
0.021450460071858884
-0.026949577275281345
-0.05462443910412237
0.009551656084593692
-0.021877429537916483
0.045212686259083805
0.013055632172480767
0.023816196947390806
0.00432198100591208
0.03258157756562427
-0.0304977727570166
-0.053014924704068656
0.0024729970432920655
0.039835388723361974
0.010580541601272534
-0.010122784083987878
-0.001185116619658074
0.008622234757941489
0.0564718402277429
0.02555773756607132
-0.018938684772961602
0.008246289035079589
-0.006504494747130956
0.02022472358967964
-0.02911976674564814
0.031972983717782094
0.0341556670781225
0.016900898232945098
0.04356314368941494
0.0472939033639161
0.021913946024418117
-0.04049043824405255
0.025383370526841156
-0.011479586168900047
0.014709246597935237
-5.692067938278869e-05
0.03540074745124292
0.02294147341069225
0.061445946441294544
-0.0028720374517693355
0.036580345781881206
-0.13687903533855628
-0.13054138918510097
0.07480532908833863
0.07722317788929108
-0.07168008378848327
-0.19670936974098904
-0.039728588555518106
-0.03755339027711622
0.047331278752139605
0.033246185126393685
-0.020271255650802
-0.03669481141640479
-0.005266719500282737
0.008736155724503033
0.025970933494830723
-0.015388097214103764
-0.008980828044225819
0.023309007700486595
0.0685456279063046
0.004410212380593549
0.01317358432863122
-0.03899403397461347
0.018889699543809695
0.03313532102041927
-0.023758585277806894
0.034817402252190356
-0.00011138649965410823
-0.025792494269613685
0.04428760566199172
-0.07191406900788315
-0.1429367051754598
0.005459746369634824
0.026008770708489396
0.013719654163935785
-0.007533912876637157
-0.009848106455507061
-0.007755145469803915
0.026968955905202468
0.04322584087408928
-0.001467242111522281
-0.01382956421755481
0.005989912332925234
-0.037673186590699036
-0.026839677841331663
-0.023141453497856453
0.024833102601150982
0.005473975755941576
0.03930847420343072
0.0006938241590368901
-0.02420940900132262
0.07047059461327633
0.11165716399235284
-0.03923624784758291
-0.04358630046255027
-0.0028390896997479314
-0.023485235646429955
0.0079613920180238
0.031649181298804126
0.044324197006974105
-0.027653966815872073
0.031322728690360194
0.015361425254826002
-0.018407386303788503
0.003714049905751082
-0.011410545252859039
0.02239962797637601
-0.024962319011794437
-0.027651176056937708
0.008279092617610902
0.029521285039160322
-0.020830194586195026
0.022584592024710713
-0.04022713994967608
-0.017111336680391158
-0.004396886751652642
-0.08533940924276136
0.12495512142220337
0.04773050613301311
-0.01757660385609077
0.02793835985742295
-0.004843393778808681
0.046884245480934256
0.04182148692299957
0.02292101738487587
0.019780406647322616
-0.02516670902774139
-0.021269857120108385
-0.0231992699875274
-0.015209089693465886
-0.0059300871187618134
-0.01565960360724596
-0.005557257717978916
-0.024676544728092404
0.06524274949600221
-0.006731671328995197
-0.0018824546929100358
-0.027210467692779055
0.0005591058583814313
-0.04407018024440753
0.005055616190703098
-0.06686451499087724
-0.0714514774738862
0.03055403387071442
-0.011917284898350691
0.01834624217784221
-0.05760395486075164
-0.005993608690573967
-0.0349998286788344
0.07999065254738989
0.014122231137803483
-0.00012722921313878779
0.008757562042137498
-0.06723325461644081
0.021630910078681384
0.018244353344102553
0.00517712974573317
-0.02712121523303694
0.00374893108510289
0.046748280975052105
0.029205702015973747
-0.04480962585545931
-0.1343552017176645
0.02670210911231816
0.04275990946724256
-0.0057389666936639985
0.0690871030339655
0.07063733754125183
0.029932963627282108
-0.012236366370270847
0.035658821371383764
-0.04545729616111937
-0.06835190047351418
0.023230468831983497
-0.01907042080967528
-0.02183199684293124
0.04029503610499525
0.026055449163173157
0.02345915436746141
0.10800039549892652
-0.035535759210764926
0.03426074670179949
0.0074569826987983
0.004715967435574512
-0.015382551760481318
0.01321639221293713
-0.012051187252386594
-0.00453318319956286
0.019972517838770822
0.04806013193299406
-0.0034459812523447405
-0.012142808901113631
-0.0022146345118447077
0.0023259659616984064
-0.021267294156208615
-0.04396028921783816
0.014913439690989665
-0.027018370834229692
-0.10288675824115692
0.008093158043401065
0.021945681323067193
-0.014242203225415197
0.04440113372685787
0.04475257660173358
-0.04775267959246285
0.012113681847297433
-0.035040933360479955
0.0535501641660131
-0.08704673082640312
-0.2181106605877346
0.022021837063115487
0.020195763821879983
0.01780671707099998
-0.0019646261627945267
0.016886335539965314
0.01774935278877435
0.022951139769150558
0.004397897419202376
0.07775393946110054
0.011497587444822663
-0.0643349395456447
-0.016379961793428464
0.0266544991821082
0.017395680707662873
0.0458771747520015
0.01538159593232869
0.017692671755248673
0.011151319152228209
0.004512673110974178
0.0004035376376536157
-0.025036644203458705
0.036057019413431375
0.006574001362521644
-0.11992185523657718
0.010168888844827998
-0.016078725266982383
0.025476852684565218
0.0021042958118412543
-0.004246218081882822
0.02446421339581529
0.014895664595988328
0.05039847205633379
0.00641229847966665
-0.0012803226025164842
-0.013860076885884306
-0.019365004879712995
-0.003626650543747062
-0.019707481620916942
0.0025960646539890443
0.004037375008012259
0.020263692009900157
0.045328045668496256
0.03593516664784094
-0.00034443669940253
0.018495717920059024
0.0418901862640678
-0.006702384577975867
-0.05294750330298517
-0.030425280041604493
-0.08514990139375923
-0.048816830055309554
-0.006737662302369641
-0.0455673429155615
-0.0023366529273721546
0.07513040535408404
0.06943006091754135
-0.019042980249182516
-0.01741403707794313
-0.012370027291924563
-0.017149147749605107
-0.019430624091318297
-0.040108701107685295
-0.02423031676147212
0.004087969654189849
-0.0039686730351241985
-0.022632487866683725
0.027573364440383094
0.029059529355000235
-0.0401746797695697
-0.017698115315219642
0.0193682246155504
-0.00792675171470762
-0.002748200434511177
-0.05388416492323952
-0.04598300754506375
0.14155808704682896
0.09487858628581837
0.1347594170745788
0.028774384195597684
-0.013312713399683106
-0.01703687063300065
-1.3163487498340233e-05
-0.011971652354490046
0.004200001742501354
0.011717259260469653
-0.025042751705869306
0.00666842424061166
-0.02984801336425242
0.030859261710298434
6.76024975593514e-05
-0.12768265938107573
0.017551795103151087
0.0031116288749297068
-0.011294197978647294
0.027981275759083164
0.042954594579015425
-0.07589338520417653
0.0011863300287257932
-0.021274129428349667
-0.09523608097373494
-0.008540510801006903
0.005838778080653257
0.0012450559208509048
-0.01558147240573969
-0.030343272069611786
0.022547711367603262
0.03981302368611683
-0.0242699900808039
-0.0033478153815933672
0.038691216824415404
0.06981974987613325
0.12172085470185305
-0.05877402444166512
0.015889904120776923
-0.03845514471602754
0.020681888486831446
-0.030996091036307516
0.07391038284433471
0.13162708276889856
0.005097613725989658
-0.03129246302741833
-0.017375935345487377
-0.07048478567667969
-0.11354212765983521
0.0122530693119663
0.02688207065792988
-0.013688097129703923
-0.008773436490549423
-0.01639362937206106
-0.04103204700256034
0.06996086210155714
-0.005389701950556406
-0.03363410466083401
0.01008089204420568
0.010019838540681145
0.012947495642379035
0.03037158459905819
-0.010160120420748132
0.04981897516253192
0.0006478438996722661
0.005354089346266923
-0.017390886410302057
0.004656474149401841
0.012427934818318278
-0.011160726831729098
-0.0211336046511111
-0.10250839883506865
-0.05344921812544243
-0.01115047248463588
0.007589682090193006
0.0192073363176678
-0.014325392788131464
0.014490188428425217
0.06989278058750004
0.03151619579633701
0.0013331821489507686
-0.009158746381202315
-0.017573541713362468
0.03164015361474166
0.02256919241652665
-0.026121047885288434
-0.01192931819448659
0.04353278174054066
0.016571550813953107
-0.019543611475461468
0.001043270577574175
-0.03197193210223016
0.010362492880668912
-0.06504736520551957
0.054826319950660764
0.07597779043454617
-0.1379570252773465
-0.022773113497122903
-0.008410646232009638
0.008866044227047688
0.03510579570014373
0.045437554430873106
-0.023681261933503273
0.04801982842889083
-0.08836406465723413
-0.01980926980246099
-0.053795082347319806
0.0695427780374793
0.16165083347760745
-0.032532697913631614
-0.034747254172759326
0.0011151655274927819
-0.004012871809173077
-0.053350524824814394
-0.02030747049696685
-0.01828682577996322
0.008109905923969247
0.02608956362307216
0.012662616545992081
-0.008640015736177764
-0.010169580065079712
-0.017459137526592162
0.004505117096039833
-0.01869318571715797
-0.0007506109701964866
0.010182208507534495
-0.007125846506307371
0.037899846844216815
0.08557683456613599
0.003174739569580773
-0.023843650325679717
-0.03033703828003507
0.031328098770448065
0.027136920814347966
-0.031357832916875814
-0.06802014708306389
0.005494225377934326
-0.028183004203424372
-0.035211507447750284
0.007794438157276634
-0.05284822195125799
-0.031136039688043547
0.08978285459761486
0.10398567261655683
-0.011551610395248123
-0.02442692706389253
0.041430492025301816
-0.01294683559917163
0.0007130985904008612
-0.008777767262491559
0.012375889140325903
0.0031757213610532626
0.028564444122132434
0.03305491572197227
-0.00023986671303754186
0.0036154054647227363
-0.003432986296600539
0.01866429657891082
0.02912114378351921
0.012736449203564726
-0.00823023656867451
0.036114248611612394
0.025611007026243256
-0.11529717123804792
-0.05327491365109421
-0.001406107566971202
-0.01994019573364074
0.0135491809342227
0.009614975165695544
-0.008767798721962008
-0.055861635013370485
0.0022044091693482425
-0.005462412695780446
-0.02790186258777347
-0.0006042357862030632
0.004654063086239201
-0.02824749344750384
-0.05203586105836413
-0.03424933623696778
-0.004055083781743885
0.002440734137591381
0.042058326420230836
0.030842919335277587
0.04421529632292045
-0.02674823659318173
-0.061504462048983605
-0.016963894619244815
-0.011335921994528809
0.1132422196188886
0.10847214801263362
-0.00686041058058929
0.016661734283593167
-0.020398931896893194
0.0036391898822362837
-0.03727735348650824
0.04331003780456984
0.0793558474537282
0.02396438175988096
-0.034535532502805215
-0.05711329633037697
0.01223491053686929
0.016301176735827875
0.03967678457784116
-0.03135050452366679
0.005640407331706749
0.033189308886296946
-0.01247659191730135
-0.005196579547442832
-0.10587204735745834
-0.004913484051964608
-0.046232586062086585
-0.04905813672355186
-0.02551079254222103
0.06413710006624171
0.03331369784605854
-0.024740520101650513
0.02784245352718316
-0.012228201996168744
-0.017427136152865983
0.016952508655712805
0.0010376796181803779
-0.029297599715281845
-0.01576125626565239
-0.006945963749459762
-0.02112985026203553
-0.007283679186535374
-0.0001716153950833604
0.01848042520361925
0.015521128613841592
-0.03562523066367963
-0.03457790200741367
0.03990692204450447
-0.002150734352821332
-0.04486641019363399
-0.05512857269487949
0.06821472817756297
0.11256271806945904
-0.013475194281683579
-0.007120991727111655
0.028818793571831168
0.042365202987327266
0.0007084016742334711
0.0567883757217679
-0.05240583013896603
0.0207040044811859
0.004007231945538013
-0.08646122371175534
-0.02835246357445449
-0.002680328394922729
0.059650871648334866
0.02827116731430891
0.047524839632108455
0.04935389883437604
0.009144627245234807
0.04042739533405735
-0.007262053158323058
-0.020871275415058243
-0.058652136908191654
-0.004237802625658608
0.021406600209021347
-0.02905464958281738
-0.0043184474805438135
-0.032438964933891784
-0.06892902070677516
0.00919438027767347
-0.015136254379464557
0.010824703512145867
-0.03001896675373647
-0.022620907071825857
-0.03093473477350744
0.0177014696788031
0.029960610526595308
0.007522551376082984
-0.0011599752728981168
-0.02455596275628955
0.11667438019514645
0.06706141970843278
0.005798565692565029
-0.03829586684404394
-0.03339029886992083
-0.07033028764867277
-0.007825808737371256
-0.023375116460614173
-0.019768650998823214
-0.016851466910653746
0.01437492911302235
-0.03322987954078415
-0.00021295812244392966
0.02466344464301734
0.03684014655033194
0.11284768414124847
0.011534948431382794
0.01002542567485046
0.018731700657415792
-0.00873015264115598
0.01843838270221013
0.08608828032631488
-0.042530371825741445
-0.05999959638880481
0.054123511011263725
-0.10193577695947892
-0.09323071968416059
0.013248498947026897
-0.05537288269150276
-0.033705022227248194
-0.01827983617942406
-0.006243261234033816
0.04983476337465701
-0.033458044226269905
0.026705380156844396
-0.032257826107978546
-0.00036123406027406703
-0.0239838561703969
0.001979104666525689
0.03052628422314178
0.12787781330807235
0.10771923082996744
-0.016316669724886004
0.013205345357664005
-0.016853382426213547
0.010474996448692707
-0.03650889304160898
-0.027477533086155245
-0.03331031664770436
-0.003110127360568354
-0.045296377387691135
-0.032618831094637146
0.02322018177572414
0.06206076282151088
0.002245040762182088
-0.026146649967018508
0.0071084400250140374
-0.024833663133054046
-0.020901507045018194
0.02226027505526823
0.04150329656024226
0.09625047814101283
-0.004708528027749751
-0.022666980078087647
-0.03290694119941583
-0.018265423921598967
-0.017682202079954457
0.03066288830587225
0.02944560439888398
0.0059194633426398495
-0.03207766289259381
-0.0038388290457011705
-0.03804138221744567
-0.04604778554313306
-0.0014937518835563823
0.01398777321562953
-0.01641318914542049
0.023556622841496348
-0.015065849021201937
-0.02026968073168372
-0.01939533531059174
-0.002085776438928391
0.007086187742486758
-0.040622100506451174
-0.0013597773376558813
0.007294430184432909
-0.0028394165401908486
0.09710036580843188
1.1327885568229824e-05
0.02373719900252405
0.020440777313620113
-0.0058401528307136215
-0.019361295972509497
0.03006276414819472
0.04095782116630083
0.049558503471114644
0.031966518507620674
0.019587139102899713
-0.028618747694728323
0.032595432091726044
0.05045498745648411
-0.04535398718426755
-0.029836926005991016
-0.008845280779923217
-0.05541906965474999
-0.11101542995138378
0.003971583641983535
-0.0039040186626115737
-0.02825333104941227
-0.0034110386396643
0.08514857309424395
-0.01894283669502789
0.00039495774640128635
-0.05499281508728084
-0.1476839349919763
0.05583612454046243
0.16459830157091807
0.06705896924252414
-0.016874770461332393
0.054801034076025074
-0.015586407827170532
0.008284193910950522
-0.028398963822543737
-0.025900616775510785
-0.03394065690160096
-0.06091691515389318
0.0009337689078142979
-0.0003101438256406828
-0.03771890266325272
-0.0023256046932063337
0.019888402090805873
0.0012450380865677883
-0.021507087504792095
-0.02393741259531487
0.011368713451871048
0.02252632813701882
0.0006396347534280268
-0.02260697983685697
0.03882543589407361
0.015647226104506227
-0.031028827573236696
-0.0009779108579216055
0.04946216844424562
-0.01863812951069661
-0.027836052471806032
-0.12495415439680521
-0.022639353107062492
0.026617803287665102
0.025571265739555024
0.032226069590650636
0.023071348030088524
0.032745362454211946
0.04073202158415041
-0.0009832550920833608
0.011636443828833477
-0.009871497119976385
0.007399101503131963
-0.009437239415939882
0.06263267525325102
-0.008155535471745095
0.018445747893641284
0.008564307767994285
0.08085488057019057
0.030865753350592173
0.013301982907833684
0.012810882988256781
-0.12161125785318158
-0.018381696653899163
-0.002825957982345451
-0.01750750135663633
0.04341126707388053
0.02765316212084198
-0.012026303578808153
0.01036801903410711
-0.07713260090372392
-0.10489893505576621
-0.02612397403687623
0.004078577607829827
0.011265441464935676
0.017121129619023148
-0.004477357309731924
0.021818077640452217
0.03358838534228166
0.03207821149178738
0.029241469484561824
0.03809498862508107
0.045255019981089065
-0.012762463184008175
-0.03732080647302905
-0.015016637942878337
-0.04096007066208798
-0.17906244864429072
0.016143282007208826
0.017810216757277498
0.006688830501297123
0.017443987569060702
0.029401533387556033
-0.02192473657828832
0.10321494376544697
0.042386617937203386
-0.040928027337237424
0.003918309647866061
0.05541389279864106
0.06897367902526762
0.045619531344840335
-0.08346898991855325
-0.042946934534284054
0.015001992789699393
0.002373202509811396
-0.017816717767193523
-0.08316294210763861
-0.026128725341756406
-0.041946684347647555
-0.027655579002633296
-0.010108545270706933
0.0028713709267360714
0.035185122499279325
0.07315699407760683
-0.019768784800231098
-0.0293196345634253
0.006655152737991964
0.025147317756008543
-0.031089736490022092
0.008346997421543193
0.00681661085740053
-0.028888971157422515
0.005964037561877787
0.02040092722994942
0.014913632366466848
-0.022976279714615563
-0.018255787381089003
0.06223061661240995
0.06016789259095297
-0.015439022510945474
-0.03274174813568159
-0.006130774500085711
-0.007414246066915729
-0.03056910473583377
-0.017502807326868458
-0.04971659091797189
-0.03460066821303465
0.032220961377301356
0.00022488635755293834
0.004306152496221071
-0.057305136874814366
0.05322776703927804
0.09958211423677754
-0.00011702176367318627
-0.012776191108976001
-0.03354305655809367
-0.0013866719903168924
0.029834159403138178
0.037334752611142386
0.024280500593481438
-0.0046877806522213255
-0.012617474562429263
-0.014511807542222737
0.05573761485087489
0.1950635820557696
0.034388940613522746
0.015656782561056744
-0.03906831741989664
-0.016391094247999196
0.010503233962051016
-0.0424914475675983
-0.14669141340678601
0.0064145760638514866
0.018224824413675716
-0.011877860181569513
-0.010496402017011675
-0.021806012727212273
-0.045229471689870085
-0.00436478166238664
-0.00933357795538197
-0.002916179700112922
0.01833384449367879
0.01940095753723961
-0.009326822336661001
0.01489722899905659
-0.018060375302167978
0.023861437112238846
-0.03269589746057896
-0.08227388457915864
-0.00012362358313420152
0.010796383781885554
-0.04038422351069597
-0.05830877176569201
-0.0036290055327719006
0.007083199055380601
-0.01276051983529045
-0.0375061093208802
-0.02603347933335526
0.006502190800118438
0.039432794893482045
0.02780090716247284
-0.017301332096937617
0.0304685979069461
0.17284794489519656
0.010777646281433281
-0.037885980879051644
0.20418879155823735
0.10693590025680416
-0.0373237043374359
-0.003376066669657675
-0.0410927931114599
-0.0011295476773895848
0.019573982478594897
-0.04330855367635743
-0.2186276991132175
0.006049674561249073
0.01510154014277131
0.039743002685477036
0.030940837118165056
0.005977843321154288
-0.012247904536553075
-0.034692210801086955
-0.049911510716727614
-0.005488457158944816
-0.0074434817562762925
0.05128425420365911
0.055656207774741465
-0.02482171816439604
-0.030464707445485312
-0.01334237578735748
0.0019330957484852808
0.044124004376986624
0.0515000620225529
0.013654797234209594
-0.015438245452946522
0.000905814896671125
-0.04026318496385281
-0.02586679008190002
-0.004545503989463828
0.0057637877158924124
-0.01884870049134554
-0.021588986719078364
-0.03150172597028453
-0.007238275964994709
-0.00026570998642190687
-0.006511427500001925
0.02086485482583545
-0.010440164380289217
-0.028700918078946532
0.013627425441622019
0.008695236950987364
-0.01991669225356867
0.02005117169062998
-0.0426033385695915
-0.036421878768371094
-0.06006539626909183
0.006506855135261665
-0.040497161260943264
0.04483780057351153
-0.014901150857804288
-0.005515366233443816
-0.06118660120862481
0.10201909307589938
0.09530379362190852
-0.009686881681129238
0.08236256148293117
0.021233378913893385
-0.015418449648763244
-0.023947244265300614
0.011393412804795808
-0.012162044401281123
-0.001357108983472522
0.0001718630881480333
0.009992544583509191
0.05929537637196969
-0.022797250046862623
-0.030820899309208644
-0.0039423066662499975
-0.03023114904692791
0.06648025668087731
0.08587233827899828
-0.010608139247209925
-0.03394212102453448
-0.004765767733782271
0.02774694585644049
-0.027361933563122064
-0.005547237941299657
0.05177890934755316
-0.024266319427905938
-0.010986430657786617
-0.018020191180171525
0.002312211445258372
-0.03554397193881978
0.0013469865033970646
-0.010717097990065864
0.017416486785212834
0.02736840079052065
0.02658723986470897
-0.10554753217445355
-0.12185425752838153
-0.013661343196812562
0.09268918537972459
0.052442026976450555
-0.02064386883236017
