0
-0.019948562543649045
-0.014770137527151343
-0.021874774136504058
-0.016361237127718312
-0.008244705307316606
0.009968482422274496
0.009856538205743335
-0.003001218283545265
-0.016649262674417305
-0.012109148231906182
0.0014645680085688326
0.03793529945945453
-0.0250028382727848
-0.02955834802177196
-0.014759624302680536
0.03669706673803719
0.04007731088756352
-0.013714735014882426
0.07948960279741481
0.0043220383935579955
-0.01570906206918719
-0.023761452477159332
-0.04941099015486858
-0.008332251217168522
-0.020808652498082645
0.07806540568723971
-0.045082184921310976
-0.05315454497981248
0.04490902943535652
-0.015489063312268877
-0.015355744829958093
0.03012089272223314
0.003996701792091341
0.037078866567737206
-0.04783002583865842
0.12249745768229542
0.27139085878494446
-0.03704650731198616
0.001541258167804799
-0.023402240923174493
-0.015994590522235577
-0.03138605951578074
-0.0640841560721665
-0.04849140195704401
-0.03248577757067478
-0.021093022671873716
0.03558267753132357
-0.01749644180783278
-0.035212834581898694
-0.050564862658871355
-0.04623381341709575
0.015937644613978025
0.10806892325745333
0.009820942289280722
-0.014925263468056204
-0.0034810015630510264
0.017507314607175535
-0.012060464520072176
-0.024139535895303092
0.03235489205489487
0.02696942853996976
-0.02070531010620031
0.02358972130123441
0.03258103358469122
0.02367101449239687
0.023339026535439483
0.005798576631608505
-0.028203988188586653
-0.052758018843784206
0.008235894671219206
0.003621554528922221
-0.02056395700414012
-0.02759333162256853
-0.020390401356014765
0.011200223705506369
-0.0029314252353274126
-0.014503696579804838
0.05139977357680244
0.021094897475015556
-0.010366757624831874
0.03811390489119953
-0.03218299431202548
-0.0013791694686557277
-0.01870403819184146
-0.024744454100675106
-0.005920573553813399
0.05620352009677333
0.033355406022989316
-0.008003196494099748
0.1197062066221735
0.03723871214088576
0.0052963521781896694
-0.09220946434186117
-0.13703237742245394
-0.07870339545572604
0.02935654589295153
0.11641774944282691
-0.018515464864942526
-0.061563395724235206
0.02860878717472072
0.03154634444219134
-0.013646294176549355
-0.0016687244639925572
0.03681141584993454
0.031809324276027846
-0.02524412551898926
0.0007205143138619407
0.007975390892234363
-0.009656419565789252
-0.005624652625045152
0.005535228557044667
-0.17410412020161117
-0.015333623771004404
0.005000963928362747
-0.05699345355409398
0.026626056815966657
-0.00795737839953749
0.010212155313394101
0.0017876021973937761
-0.027632162923003894
0.0037480148905685807
-0.014378643290085799
-0.016289385495441358
0.018718349329749775
0.009470911931123684
0.00830943954445776
-0.056451004837210716
-0.048478523482917174
0.03414408721901533
0.01984027009683705
0.1303341863132816
-0.027622561881109748
-0.036478801314491625
-0.004195545943087417
-0.004754720006628711
-0.02937646845167575
0.045615791568783884
0.12254320872241219
-0.01145566584250682
-0.0035115658281781566
0.009695636379818824
0.025612054228834103
0.010952045300847191
0.006772222977519073
-0.014280517398796943
0.06010967718898482
0.002948875463691924
-0.019957182883497723
-0.014876898113290161
-0.019893705714529118
-0.02505826357425341
-0.017835699624730608
-0.01980081172271662
0.034072815027618865
0.029171492086657206
-0.02221202533160634
0.015393216229040376
-0.0008667909727292577
0.013765592026637482
-0.054674816591883384
-0.025141240042527567
0.03126809055667294
-0.007516787178616334
-0.0002795301095844809
-0.007472050146786581
0.028355211605751957
0.09577410489175359
0.012447430256853895
-0.05248723819567811
-0.035378261696859765
0.007867165255627409
0.0030917975238642084
0.01771364227298822
0.0026920267037438233
-0.012250623445054886
-0.013880194667973801
0.017088079966460258
-0.04022797643593968
-0.06626994128581357
0.001527924726931026
0.0011271175682694493
0.005754255695410223
0.02147179115962578
0.024581678638894836
-0.0036903212456680175
-0.0036651289793130743
0.0026269102233650475
0.0070919645897515714
-0.007584327157799684
-0.019025994740846756
0.012051547207014299
0.044890103641910956
0.013685534145017273
-0.004844029618060214
0.013654895192990946
-0.02968118263936867
-0.018509587225791414
0.0027278902375375
-0.025879826718256435
0.06796387108976316
0.08769750291599933
0.015674467731443494
0.006383193090919795
-0.04780632968922078
-0.182895713385886
-0.014995496374273679
-0.0017626122240136397
-0.04212847552588271
0.01363548882334828
0.00600872685709145
-0.0031409841503613482
-0.009333980154660498
-0.007788135295896828
0.019522712102310824
-0.00019779320484250077
0.046507369853588075
-0.015175461294868037
0.07986114944448593
0.09319023303408838
-0.039920316839180056
0.0012219247495012836
0.0191332929089446
-0.021776839946358643
-0.08165230945205271
-0.03996177929372053
0.002658834917583708
0.045028217801129165
0.005229386908026009
-0.012919057504424746
0.009751445495795178
0.020753011199593562
-0.04892001313161745
-0.04004188794883766
0.013013324835593613
-0.012026260089569933
-0.016515788696150606
-0.012231696531632606
-0.005233917475354596
0.001080894536269584
0.07494250996541332
0.048025276375093205
0.013852891049684492
-0.03717772582025446
-0.0001722326855664369
0.052525093930689645
0.19067779376285185
-0.014485318309241912
0.0004570795965520254
0.007878852653649121
0.04716072673967335
-0.018738900502125823
-0.021724592833605626
-0.1708375445847278
-0.06152005185067541
0.0022321757212988087
-0.008440602098017688
0.03673380879418245
0.003939832481393112
-0.011664251081132705
-0.056251690816954844
-0.013486242233898396
-0.008999246161859934
-0.012409015122612641
-0.018093130998360532
0.020368422715469858
-0.0051348233404835235
-0.003448908104623812
-0.006158767650463018
0.016120361880808634
0.008594425795912169
0.004055991238709559
0.009478642561220383
0.022229824023405554
0.03700932197366195
0.01524305800576954
-0.08254421672337182
-0.052479544668491286
-1.2382885396852888e-05
0.020975710249716225
0.0356548855263496
0.002444827888319423
0.010810809718942235
0.010102474914763931
0.012452998846961855
0.006445479600533104
-0.02066087497269503
0.008113169590853618
-0.005709567444622647
-0.03129395435191212
0.01789067346303228
-0.01294445537359102
0.008197184543654333
0.07379472076678603
0.031192134075184574
-0.011383424020991885
0.010814576564745422
-0.025852419036480962
-0.005623922211711659
0.020802670346631635
-0.017259095977280495
0.04811122028532161
0.014369085126314535
-0.03729856648937044
0.01230931816788602
0.009667500853371902
0.02638887221851656
0.015776088454365674
-0.027251007726210343
-0.025925571508439726
0.0010252248173144465
-0.009092422052744993
0.011513348723596746
-0.005822837288158468
0.045370218569054564
-0.01625498608349656
-0.0013834172910167407
-0.022157389163755658
0.007844007250102739
-0.01731298004562612
-0.1766301732525852
0.020230320705928038
0.015368538217402684
0.03005782610609276
-0.09848425782515277
-0.04156751724649312
0.023409164551757254
-0.020320983052618594
0.008363185462651884
-0.013812282820134442
-0.0028795107919591576
-0.02178477768550316
0.03361325526105372
0.1616652719675334
0.0029346854616856444
0.06708058344730954
0.03989197705555239
0.041824070688408925
0.009272442315396876
-0.08042739240386372
0.006860001148552342
-0.00665819391698782
0.003725385596417565
0.0014553915699258779
-0.009311867274486737
-0.014572801513459823
0.010392894530646787
-0.019338785405386066
0.01389665260926776
0.014258820704982973
-0.009075274767976479
0.007922050107507319
0.015050271637104928
-0.008840665002472874
-0.009443427113717956
-0.015133698315480141
-0.024922238912984444
-0.06107966961803472
-0.012706183943473733
0.015395006410198704
-0.019000221806885705
0.0017133011937878742
-0.007505504884768744
-0.009615831993557032
0.04032666579562343
-0.044482089678655745
-0.022717164741682196
-0.013194194896803695
-0.045456023610673406
-0.0031544677487915247
0.0022002451393018287
0.0011114710422334632
0.052009536487325404
0.04231137950461793
0.009520835462521374
0.03482575785571166
0.0023260417776962343
0.011916403751982715
-0.017716746714007813
0.01993862036760014
-0.020891275654180485
0.0473892366570255
0.07283254642461114
-0.007781164597809026
-0.010155760434300306
-0.0073460940890900835
0.015407318304812359
0.0009087876041033359
-0.013231085183411925
-0.00989299062310982
-0.03041011663499182
-0.020114627238354863
0.01047268984102719
0.009761762095567662
0.03537614879602078
0.019162172804398338
0.011351960141359163
-0.043098979667988487
0.0061708308018574775
-0.024131872101561293
0.010383156528078554
-0.016979319890072862
0.062069247877052425
0.04659795881073597
-0.012459684336151595
0.020470359728709323
-0.05401095716304365
-0.04680288539368388
0.016315931596311617
-0.025219424745553085
0.040107163578648554
0.025276353965098128
0.03645263794180294
-0.009181180245959616
0.04006038533628677
-0.003979481474754796
0.003785453022012971
0.02070634452070562
0.024074781945604244
-0.2391005493784821
-0.11726618620782954
0.022155142596936128
-0.03149158837087562
0.0022461055039635952
-0.02652340507576309
0.005363994482845009
0.052738587219559846
0.0009004390240665888
-0.025258107359529092
0.0060338955572263216
0.007376201372202631
-0.008083799336246195
0.017935267017078423
-0.004782485669827347
-0.011535310223350194
-0.03363707245496654
0.0004414882894107918
0.07734856971516922
-0.03275307243941658
-0.002486613662912522
-0.005077137307752399
-0.018296539905618463
0.11115387206875228
0.07067207246767619
-0.019730568239448836
-0.012812080720312457
-0.014374736536347339
-0.016453857725844928
-0.010152803649927312
0.04294495651789217
0.011525757787511788
-0.01769245217614828
0.0006443401889974436
0.04961786006594954
-0.017820446619366236
-0.008778067725873884
0.008705850914165333
-0.006551658181668146
-0.026095599304732615
-0.02729360557863142
0.09325632681583232
-0.02517228798350161
-0.05993334586256646
-0.00590408444550536
-0.0051170978420076235
-0.007365961579539604
-0.015577150618369654
0.008914030160531036
-0.030774895846931744
-0.014328374972544272
-0.01705061476406582
0.0020528140641869826
-0.006766543432729285
0.0388430349762385
0.012975356489000696
0.010064302179738291
-0.017412454275581215
-0.024860103834959266
-0.0008541386965518526
-0.001138039071971512
0.06521829591511989
0.10405111187094364
0.1980015857268145
-0.045652369564899396
-0.016967698407508718
-0.009354592740955322
0.027974718018193838
0.008474066905829681
0.012094818726964435
-0.013750157418130909
0.010427962799262166
-0.03243836330294936
0.005566775651013445
-0.010022881330529164
-0.04027961708157967
-0.020743287978920572
0.039081964154956954
-0.14538894669668853
-0.12214007743067945
0.016245776406418583
-0.01457570833601959
0.02245778456293259
-0.008673199349476704
0.012808472124915067
0.032572358499701096
0.012007710603409726
-0.013942005285730441
-0.0013940658875522848
0.003737800593622622
0.01055835498792126
-0.016994539933988296
0.014445642412191978
0.029701432868747272
-0.02366967910585208
-0.01014877350665664
0.03661331862227694
0.005380402954578948
-0.03339130588596511
-0.03660989548570612
0.03495715556046698
-0.010237551291563585
-0.03767885511781732
-0.012366055019753472
0.029410541297849372
-0.003740754451227875
-0.026153973110195867
0.019674979085146142
-0.01696382782260603
0.011152496874851975
0.07094041548992966
-0.0048410417537084645
-0.00431689549099431
-0.005434119700460804
-0.005708805359466344
-0.011718637766471153
-0.007765873842338395
-0.01584613034405998
0.02948807569508306
-0.04039916642793624
0.03850535849221515
0.004098102034623956
-0.02043762000631765
0.03075904655185006
-0.00889917634987388
-0.0185442071826312
-0.0014605960839230762
-0.000504396935479348
-0.01989399178681895
0.007365403415307159
0.0523646289916874
-0.0033558068930704603
0.010049888006090737
0.01060805000413681
0.017993261095230553
0.022220271403859553
0.01972713182438822
0.011870895217918386
-0.020594120242987176
0.01974659806442425
0.004493146160807837
-0.03197663293562356
0.01119000680510126
0.018107341766114667
0.004193694455623724
-0.019481297366758143
-0.03045788097554311
0.0005304755098286898
0.022467331980110205
0.0023980213720380815
-0.002135475201348136
-0.00683578659595026
-0.0021161165620228743
-0.017179042961184963
-0.012171322618530815
-0.020496234688307035
-0.009286820196243823
0.012364812957420125
0.035917329504078645
-0.05985262323305817
-0.03274252780171555
0.0011343078603759677
-0.012586511750312444
0.004514855885436393
-0.012389247741788924
-0.019909764295396183
-0.03315562493045622
-0.04746853213715289
-0.028548682778989063
0.04062199860676932
0.04207601212272003
0.017802524642799508
-0.1254419579390039
-0.06643143712413671
0.009564294607536364
-0.0031360574098872633
-0.031146581056588386
-0.02604861680568694
-0.039347564025945886
0.12299969361469319
0.21513054575403567
0.01910965917857525
-0.023427849958161457
-0.009860031030606526
0.017074724312606752
-0.014377152906962915
0.054555878960207305
0.0364070302142509
-0.030206548275016724
-0.0064648195631906965
0.03104751282356249
0.03049783975062552
0.0009624504876207163
0.010552268390874916
-0.006145808299890549
-0.009426667262055188
0.055897718819255975
-0.02349519089109001
-0.04248498313214591
0.00222737301523539
0.025140721871673186
0.046649095396834483
-0.0027170536417463996
-0.010624568004262303
0.023915298640606646
-0.008920141255074537
-0.02460525895885651
0.03389344449701783
-0.01691978780834393
-0.023011996306081584
0.0076484780143709855
-0.00342007498404073
-5.891015914370918e-05
0.028351826328825453
-0.012468361745071235
-0.0008883227172162827
-0.004426498703100446
0.0014070775220287283
0.0009628059424512136
0.004342975264063835
-0.05483760215919423
-0.04100611742467545
0.011607687448727724
-0.03393260272503587
-0.008469001715534975
0.00657130706200771
-0.04486966771849564
0.002441972933416285
0.03423780804723435
0.008285050704804722
-0.01233109613831735
0.007786302199279102
0.04310866891684534
-0.05415558683778348
-0.03436886610357669
-0.009883821471085005
-0.011977827954567399
-0.014364655348872173
-0.008654301105675674
-0.07519284970354057
-0.009611985229638012
0.010653336873977527
-0.0017181291019563267
-0.011977956099108867
-0.008438204281893293
-0.001253290918558285
0.022375486644597115
0.008710908465638807
0.06877954163804377
-0.007944370092173665
0.021873014156231715
0.09838250590027299
0.025775929317830754
0.03657378222409154
0.02446726548186131
-0.0478006394516196
-0.03985604976889511
0.002181827212428543
0.018379437629424955
-0.004318352067452694
-0.017893531259465672
-0.0015231908289149371
-0.013220628580226181
-0.011492326582043657
-0.01844298704019146
-0.020066410546086474
-0.009135930137626553
-0.0227950199658917
0.03259368326128455
0.021041522709301513
-0.0503562777880933
-0.005719221200575366
0.057880548945598735
0.007560598599851537
0.02006328286346604
0.02237987412125039
0.03255498877736071
0.015581508812960478
-0.016763656220619733
0.003856477689261984
0.019241041919952524
-0.012445805017302684
-0.030993586669529793
-0.005993436279963017
0.004747053783946579
-0.0008543924827539375
0.003764638311222802
-0.017019995403424377
0.02170922863129076
0.024218359032693103
0.013872023009153522
-0.016716948155387257
0.041902821166850346
0.024851948927690198
-0.014767282700706414
-0.06337694335091189
-0.07971278553103393
0.030467585223359142
-0.002840512126598293
-0.0027066084642855125
-0.022025307072424127
0.0075501495767894425
0.03827332551171008
-0.04463748513469513
-0.019857470120137426
0.013265770254803307
-0.043097208510602884
-0.014846094000907736
-0.03175076925242026
0.013567193321285267
0.05995034081974478
0.0020192147838592445
-0.06586393902494797
-0.0033921361224486515
-0.003638162361628843
0.02912179666130541
-0.0036610327560878428
-0.0697210705651307
-0.0010770023636765631
0.03258284300290245
-0.059983381439624756
-0.016316219399475997
0.1866772683784415
0.06536689505813678
0.00487107213416526
-0.013050840551879642
-0.00792390735916494
0.026113119352876614
0.0030009140076080972
-0.004401061689112353
-0.005481272117356293
-0.053460581701479014
-0.0749922939145689
0.023129318892722406
0.028655387666667077
0.022275597110458963
-0.008090652578704928
-0.00844881984246957
-0.031119322204460283
-0.005599217420214867
-0.0018849994911811004
0.0360313718234913
-0.0033749728009684603
-0.009972465335155967
0.00980190850302694
-0.0007216252594554231
0.001733098926130436
-0.013200983657982604
-0.029697024860787676
-0.024026747908292716
0.011592436625335677
0.008751429655382397
-0.01185546398770848
-0.011736345214742169
0.02668000696470673
-0.006099664522702847
-0.006712723704124863
0.12214152398252012
0.08810851694662404
-0.03809744170278118
0.01442180143904791
-0.0018559639234142916
-0.019275254030939815
0.004942183477862985
0.0006805744807840401
0.0007779489114802454
0.019460258535337668
0.0025123246705728557
-0.0017704180270470115
-0.035150442995275664
0.012813490924942963
0.015228615423458287
-0.01338485984128751
0.00919894250660467
-0.038016290922190596
-0.040472904905763045
-0.022717108963522855
-0.024573875524725144
-0.008203503794673755
-0.025719118029179137
-0.0346725798647652
0.00884426996490489
0.05800351546854498
0.028084100270333694
-0.002829784270094859
0.013568428655349676
-0.005897672723446048
-0.007554510995930478
-0.020360343090989934
0.053285706785123496
-0.01782123806510336
-0.024280226212949247
0.0029395037694900294
-0.009686077930363758
-0.03618602579091326
-0.01172193477416932
-0.025779492402964437
-0.005979170519645057
0.01956138966285362
0.0485261349891288
-0.017140710098853783
-0.0030854563407875855
0.015889940812348114
0.057518049974239566
0.005611909400238217
0.006169515100269905
-0.0038312663747393128
-0.07868371342996443
-0.007735949853119273
0.14220186271643487
0.034867874137565265
0.015232716943340297
-0.006795666788212435
0.03193356744161659
0.0027602917629086315
0.0157112474360202
-0.013823514175930099
0.02811741552692817
-0.22342637019294287
-0.15264798693322432
0.023205091733554995
0.0024930729601298145
0.09500607290160043
-0.022428731715802647
0.0011918353748847246
0.0021508005002815315
0.00024369497563987838
-0.011577579523819142
0.03644326795587277
-0.010744942773921193
-0.1347997982205664
-0.01839264643588644
0.0897830764119047
-0.027799343504930265
0.04429990049018047
0.09922291362225254
0.006829312228903814
-0.020992248777842986
-0.021173217273862746
-0.014863482675157927
0.060697173781829455
0.014440450828007998
-0.0460403677112768
0.010494303886436449
0.009561917361978195
0.010050865372344694
0.005789702617963242
-0.006722827416797145
-0.03860939946880627
0.015389245177124323
0.011378189250127183
0.011613558230136373
-0.024532312356480672
0.002526879341869202
0.02631387170296327
-0.018935630273381167
-0.0065556112339405555
0.003636826806781731
0.003868549948573562
0.009665874505853123
-0.027422258385093153
0.03982094338809866
0.030207095228287417
-0.007065354250706702
-0.014454023240179647
0.044343280297622995
-0.008505044815594985
0.05759453960240207
-0.08983459756158015
-0.08463123914368023
0.06970648569628089
-0.028446826570181764
0.048370310550873576
0.006658481377282404
0.017554090623181973
-0.03363639511091102
0.0030028055723335663
-0.015958821143876718
0.0006537819908075098
-0.01131579009373469
0.027472633542162887
0.06292849511415088
0.05301427667506299
-0.03278033351730614
-0.004356816330523554
0.03434663032693145
-0.007336985875463624
-0.017488166078208692
-0.002831639092422724
0.030793043692074053
-0.010267926276899361
0.024729610314153425
0.005441788261915894
-0.005595100327262529
0.05498705039050967
0.003195495625702242
0.018046104260343615
-0.1066306193905039
-0.1317268087152536
0.04834233974936912
-0.024207398941273675
-0.1192795769518739
0.01669635573131521
0.0584052457991858
0.008541056236891463
-0.008616660832990791
0.04953660291053468
0.006325341663691439
-0.11840627531055138
-0.09619096603571657
0.00797386482858395
0.004994286052892833
0.025811019888901086
0.022665132645130308
0.03258530462894807
0.025039165576320677
0.01263881063700411
0.018660191005930218
0.025153774120186167
0.025761611593049405
-0.005229478782534151
0.009227032271695728
-0.06168711432347382
-0.18325329476228547
-0.07148122270242567
0.09645260179359204
0.18550190039814785
0.022898217292254382
-0.0008327591601554133
0.021709714572266763
-0.07158752244890813
-0.1353622809424012
0.0790500641891481
-0.003579982602813579
0.03141405571365263
-0.029216955874406307
0.004235610225286248
0.020016836511055545
0.011230333319003522
0.06028920059275982
0.0011424165847283077
0.008312362397886299
0.0009624358466012213
-0.11484639214000293
-0.016747565735560375
0.0029393285323451907
0.04155188295928699
-0.0005611517270094112
-0.022546014381406174
0.0162929210119097
-0.04466881314284649
0.04927728817034291
0.17630702660905642
0.00019530250632696807
0.009835568675766163
0.015144118613275939
0.0052260658925279155
-0.048614307841379545
0.013543779209705897
-0.01068237465397175
-0.021123665176578658
-0.018510542304580532
0.013148764128219914
0.005971998583605119
-0.035092414931043814
-0.012154306910066706
0.03299535176976493
-0.017801346311142014
0.03182740171346231
0.0017153616458599238
0.010264125235754611
0.03769693605061906
0.05655519374871649
0.009530986342714279
0.01135181945458798
0.037779865203140174
0.031933123630439555
0.024431757177777715
-0.03841123516159264
-0.19549953061706238
0.0342548772144804
0.05331144157711562
0.02418513194063658
0.03491312313862656
0.08362833136513134
-0.08862575718703852
-0.16578056017511797
-0.021181863502853334
-0.006866152523593501
0.024208053928545206
0.02637487960928155
-0.004691756280723539
-0.0007107497665823556
-0.012076968461472198
-0.01640248373201801
-0.029567437320023555
-0.1345089417226556
-0.0022228750543270043
-0.03388664223678275
-0.05204760139410227
0.02559039809347701
-0.009477142408795852
-0.023428110727083444
0.0527264692172713
0.01989922499253634
0.0402992856090787
0.0033955998463407987
0.004484553124227376
-0.0343332663008044
-0.006215979450116421
0.043477444512831906
0.007374064568537487
0.025587360134495564
0.06308952375005158
0.05546630919895859
-0.019737713282462137
0.045263859158338624
0.016966487810460295
-0.04827819605838421
-0.006681534622338387
0.05708664928484661
0.02749663566063267
-0.013417443237476274
0.030504283196485637
0.017247887217013258
-0.01067444297373051
-0.02117118929094319
-0.009369634443639923
-0.005172775569248339
-0.01392298932716321
-0.05271117080531842
-0.011079999970664193
-0.024079932886493467
0.011787674037219323
0.029118772498884508
0.03233109904463281
-0.029166387183095034
0.0051632082030917
-0.0027615499194545436
-0.013172823045520537
-0.006771844033520625
0.011573544822792745
-0.0032392104274686752
-0.012105730642058771
-0.018687010041758483
-0.029401309884376118
-0.002691222692274715
0.05813935856915624
-0.02925365812982956
-0.029566192139119728
-0.040085028090236875
-0.04583994966413859
-0.0404201549361378
-0.03235686041442244
-0.014948211221223095
0.10757394866309333
0.1025668363330316
-0.013889906899437508
0.00034399876247780435
-0.012497977708357599
0.02868265951506716
0.008133625506203642
0.03938179971655787
-0.02803027717181746
0.03256101501379675
-0.001384009071691273
0.023139621065902147
-0.012744691941984392
-0.05043329156497875
-0.021891056795527653
0.008694223677743045
-0.00038701325927953503
0.04713152668819422
0.05024735255071459
0.007336417321392852
-0.04499198689487739
0.008073811248516454
-0.006538221339686876
-0.09764563230340867
-0.07789595201525194
0.006114834404386339
-0.01644076275867175
-0.030947990139855646
0.049380006348026716
-0.019015310407091063
0.005583287688387759
-0.08760024616170746
0.06765056739086867
0.10299747244584431
0.0024344553436393295
-0.016573237424298084
0.01526171604149688
-0.014112246685577947
-0.02415891134319264
0.031939156158721206
0.013529782938773145
0.041339706309598635
-0.009160344407636549
0.013077692060996852
0.04351558795068645
0.023649599194631176
-0.008004790975832093
-0.018114169184299884
0.011723596653380847
-0.06605633370003451
0.14984223936273947
0.09867368149555181
0.0448857494528248
0.04031254235357873
-0.051202988492853964
-0.026550055908725872
-0.04969210531886818
0.0023110534243417796
-0.02786660437003497
-0.14571443326899797
0.007351716919154293
0.015078142994217496
0.01063905538989102
0.025520334490191865
0.0033433791301076296
-0.01183177164244082
-0.017497960205846805
0.03432125691556613
0.02463198267025952
-0.07093294782430105
-0.09346374957034527
0.047978410950913
0.011294677658831454
0.048520697494047485
-0.009003367167246812
-0.012835843252063186
-0.019213341421812594
-0.0017263972007062007
-0.013091741949686405
-0.003671430691395022
-0.02178186584649428
0.020776305980000125
-0.03660740933384648
-0.05666233671650359
0.04043576599329685
-0.02109869035245136
0.027778558175393823
0.03447743807701155
0.04068690038076325
-0.050270336335172826
-0.1887963763498641
0.008476647272093343
-0.015301720890964123
-0.02641959794388498
0.11750236229714882
0.05697602175039716
-0.03440551491355801
-0.003844595435128513
0.031185855386008494
0.044060772889742354
0.0877741409670146
0.037115229244720604
0.025288125211240135
0.013533924160091266
-0.02655174899941543
0.02818717152610829
-0.08837335946583487
-0.09908725102893873
0.07927584522840614
0.0003586110368636878
-0.004316355205794676
-0.004395352671211583
0.007473126646689263
-0.0013359213929417112
-0.0068923303643015485
-0.003075987700009875
0.016048551483272288
0.02713293294060165
-0.009237095173079536
0.055938285097636035
-0.11444790180452916
-0.08416908585102173
0.03974483412978833
0.03725392147589953
-0.03936328992274458
-0.002678989169046272
0.004849503827944018
-0.008757463206064194
0.039620459661014205
-0.021000714215520567
-0.022623317199535906
-0.021772598996756723
-0.010329761873461752
-0.023067490838871378
0.030218267579013816
0.0772687216900728
-0.011650883558565231
-0.03750459648673787
-0.010553500592218788
0.007194215912627805
0.01604059407068639
0.010713128896543179
0.012779016326196307
-0.03935625898315792
-0.0513886141266336
-0.05461680958077562
-0.041584105227454975
0.16729329145633165
0.021212823173414747
-0.023077048133648338
0.009509999210372641
-0.0027140925896367205
-0.01030314775715053
0.019585007281092272
-0.004173443033917179
-0.014521637437596841
-0.02009824905974603
-0.004506836565069478
-0.011511177414794304
0.033138220771818924
0.11753998614781952
0.01047005577502082
0.09961995632229882
0.0376888994923016
0.004984342260993003
0.01691756506007207
-0.03266157065239794
-0.0029411680998599494
-0.059570833035686506
-0.03817643307211846
-0.04778180476788523
0.013863447385164302
-0.01776276626553516
-0.030113110567992988
-0.015293128083527303
0.05397984955920846
0.07399047490045556
-0.01854452364255648
-0.03240642527055162
0.0011780482626133667
0.01056553154530556
-0.05412193667882747
0.006526212844797707
0.014836848857918463
0.03532946958099454
-0.008798528994182896
-0.004561005428966103
-0.0039598230230983526
0.001704595237529547
-0.013955597151662103
0.015077975719753675
-0.007622648700510467
0.012003779045390338
0.029135101525181603
-0.012198352149438596
-0.013935279448635266
0.060702235637815266
0.031214459104395083
-0.007609780905183377
-0.0006363750156443386
0.006505130725902908
-0.1736983141328222
-0.02321988143085238
0.052034991951875324
0.04221191086695938
-0.12141842111458936
-0.18085821363252869
0.03594008641187612
-0.02037946957433669
0.006366327393599361
-0.0025845396093415393
0.11585935378056557
0.046716811552823284
-0.0206064313938982
-0.02030146041465585
0.032847368675759644
-0.06992613597796904
-0.03321353095722371
-0.0013238831091436328
-0.002492034764436798
-0.00873743409704395
-0.04988310300531281
0.03083858482955349
-0.015734289446291728
-0.01779967542636879
-0.024849613335501442
0.01568246061013279
0.0274104703556802
0.07699742147624693
0.01573701640621085
0.002754294463218992
0.02485490219610499
-0.051836231305786254
0.020423300494023747
0.06101792342672976
-0.013891443216725613
0.01692984036670512
-0.0011836051468644762
-0.02141460237682014
0.0581935873777409
0.16790892742846328
-0.025674326577256965
-0.008942123806035512
0.010307330192045367
-0.0026606726669454878
0.007357544395471902
0.007585238669745806
0.014798699100661429
0.023927554589347443
0.016635480953814077
-0.03872030497040676
-0.08227425691187196
0.00863543125929624
-0.01372438955773838
-0.02659846412301259
-0.04986061172798552
-0.025826624225878225
-0.01744043893113002
0.030531043818150336
0.007890390165862859
0.04776635185741232
0.0305867092104395
-0.040513530171288115
0.05161521758293778
-0.023722739931511885
-0.06431140278354902
0.033596156306792246
-0.020694468603536617
-0.026208245229973347
-0.0017715300770697838
0.025442654562979
-0.014272952034553397
0.011595311584872396
0.00710943937348655
-0.02568751265120449
0.01668151710957554
0.036014909165071295
-0.052780842540826364
-0.00495279768368694
-0.00030979359015655887
-0.01678193889285271
0.021516068162703805
0.014228947310752861
0.012507936587889934
0.027224526217325455
-0.021170592864178085
0.0016830352068061929
-0.01902379911414639
0.01155662663600692
0.0069170826988708255
0.0839124813874295
-0.03223662497151359
0.023318480959074198
0.03360351667224019
-0.0129228969773906
0.032566953958630455
0.009815393103008179
-0.04840638264059139
-0.035378753916678815
-0.006131715115101982
-0.011600154468750491
-0.02250032453710419
-0.00031288737697919295
0.027086710230846755
-0.023847798842033363
-0.087550606404302
0.0017254115479103365
-0.029525303181568128
-0.007508281841198369
-0.017511294333710882
-0.003412699089964919
0.013879281351971792
0.0017804982947642867
0.009357516912035783
0.09587636536580692
0.06882377156370192
0.032618937039884624
0.025960089903943936
0.06399636592046692
-0.08391103569453273
-0.025631726451527326
-0.016701875845435546
-0.010391854995231379
-0.03902925772362513
-0.005022093008934309
0.08284975685173114
-0.009027336817296311
0.009372701948056705
0.11511355931084229
-0.07867564776948899
-0.20259500715322207
0.0003856026743594938
-0.024430294631948377
0.015611139046347354
0.0220881059891322
-0.00944384748110545
0.005499771105635558
0.0018614637178297159
0.007438689716111298
-0.00932076777276877
-0.0513569463073533
0.010776424267420705
0.0012907042772201803
0.024982150003115294
-0.018563464045570723
0.02027767373104165
-0.0270306327868462
-0.0290970531358336
0.003834070041040573
0.0070132380620650725
0.03651657299883096
0.04014238548204696
-0.01767599226864533
-0.00487971337169586
0.02590869509287697
-0.0008021852969977908
0.006828773578966614
-0.004058791556949499
-0.018927683746622688
0.04979274300158906
0.012517399018121874
0.01935353242682315
-0.002196920412834012
-0.0007473454394857093
0.015407751430727895
-0.031859800005956986
-0.02412441010871768
0.028831622701607176
0.017528511138397564
0.06869160924521266
0.00037329126242559925
0.01893212049912158
-0.013435356221948865
0.03934334175178045
-0.09856467256931448
-0.1390764413396714
0.00036419388345966606
-0.023394909046976296
0.004367774583421813
0.020295291232049987
0.0375740058769633
-0.051452486842775084
0.01999127921696087
-0.01057927274882394
0.03177653779000412
0.016166179827783428
0.044265686710210694
0.0541929659681869
0.010974173059903577
0.03962316823962881
-0.005988903190187333
0.00834495935149056
0.014691893704639825
-0.04259864767344119
-0.019874146511648882
-0.016303811196905646
0.0038726323336140908
0.014205698778215356
0.029354837903972458
0.030672984720263162
0.016730960429380392
-0.010427248761082298
-0.006056041230416824
-0.022823801089982085
0.01854745760201117
-0.13137856713305138
-0.17697357196516814
0.06056653239625221
0.02102051804113251
0.04117713953895598
0.008102383930469454
-0.05482261157135502
-0.08000712584746397
0.08140862502545058
0.04033191819462446
-0.02621357772773138
0.005206762863964488
0.0870145041080657
0.037562029231541644
-0.028949878559545904
-0.012658635683418702
0.12017951752656247
0.0482338409510264
-0.046226690518005306
-0.013400855815700826
-0.023094908978482313
-0.005517894448460484
