0
0.027706093791185382
0.0264743230611153
0.07523495147609038
0.07647484965862933
0.0030766002068587867
-0.009848836002686266
-0.013999508874202387
-0.026841101725644516
-0.017417335844302714
0.024460296199162623
-0.02051144513060824
0.018597995441652193
0.0020089067800902697
0.012594509919996468
-0.09505084103065155
-0.0436952929383399
0.017545046820758955
-0.02700361657345172
0.048076597327517394
-0.006210049606426171
-0.018639815095459724
0.017034893717665266
-0.012500508400487676
0.01640692494893453
-0.06667462109076708
-0.014437758473184356
-0.060851303466276596
-0.020691269065617142
-0.0006688505601278804
-0.007345837490642316
-0.009684925853853865
0.019470456173545737
0.026468574758237953
0.0008909028943219037
0.0025865612162377927
0.02992251813275398
-0.022201635616880967
-0.03788824017408793
-0.014876504044401667
-0.0018725760451675769
0.026078496534112792
0.04205342402596532
-0.005555527545601801
0.01033985178548052
-0.005307617884597374
-0.0075431080723731584
-0.03939381069859739
-0.01061305164703115
0.009409712292102197
-0.007361354871433215
-0.01857616240030985
0.0010457049781543433
-0.01870764969688267
-0.019602503392940875
-0.0190984985056711
0.03987650591782236
0.011865725214201714
0.04112241576732902
0.04600310272129671
0.0596387155709972
-0.042846978105939626
-0.022544562456586804
0.07922537303362408
-0.02409918786091911
-0.028830349025110013
-0.012167434851243794
-0.025051599310892972
0.018100499292540456
0.06505905934275234
-0.003940794316705245
0.07151716603229741
0.04108994035930756
-0.01671431163973251
0.044274407698907406
-0.0029857536398259386
0.023365529109274173
0.014250831020946295
0.017430766002494318
-0.2005837014704846
-0.06592869299658652
0.04751920463328794
-0.020714777272874317
-0.006232414053173416
-0.007877415917346323
0.018376730412023506
0.012878158465975755
-0.01149753996601554
0.003694529752539014
0.04175445635368735
0.012104643073819537
0.07987492526559838
0.013402186195223586
0.03344885633735373
-0.0019212915639570149
-0.009458672603734232
-0.00434614076557481
0.01391022683223396
0.00812546651681735
0.0365415444003225
-0.08625247375087859
-0.06355611471265939
0.02165518348418634
-0.062485571765467235
0.026523086359362614
-0.06182684831309077
-0.11080465906756883
0.040379495913753595
-0.024098664415586928
0.020052552352063838
0.02049504877654714
0.017988931120784722
0.03250158108455826
0.015899040910988083
-0.03467075440206471
-0.004019484639902116
-0.03494428330615802
-0.002610085789424103
-0.0053576884122668485
-0.007092002625731126
-0.0012322433863794506
0.022302730543215566
0.045052957968575544
0.01368758236186866
0.028056128465452853
0.03090953267654372
-0.014667570162690336
-0.008151656470888754
-0.04760348925982229
-0.021278630991911324
0.013705147943211102
0.003552260169412888
0.016280652007312074
-0.15341136514560616
-0.00761983100225079
0.12205489353686644
0.08591031574692409
0.02332949481848808
0.031388184692158726
-0.013696616639217866
-0.04304434542495178
0.013411200196876567
-0.009970289775011612
0.009449630951319708
0.008869792449045465
0.061598127297015935
-0.016372734749529043
0.025474795865760697
-0.05820727998578443
-0.18925844443701725
0.1268608204210601
0.025258995352081065
-0.012018289304739386
0.02972784670587023
0.011597800885217979
0.009142726777137304
0.004113669605089169
0.038513842018637584
0.009415344227074185
-0.005596302876994936
-0.004589368653198573
-0.01920738811325004
0.019618378568813082
-0.21078230474762688
-0.09954945392381091
0.051791828760256134
0.019458778136876183
-0.005176709453854327
-0.0026154312201351142
0.02635872946627767
0.04219930633900144
0.011737338644462688
0.06276736637141839
-0.0008778097935454518
-0.011962554238433721
-0.041793180927078455
-0.002834850709601974
0.011870682659712093
-0.0019933747148845548
-0.016944864785550382
-0.013676036427598407
-0.028122337391923796
0.01982616448396355
0.004633827505073505
0.004129124855217576
-0.01885134088053031
-0.004617859889564752
-0.013349838101649445
0.05964556174252071
-0.004648854653895687
-0.01907717700168534
-0.01339617168122476
-0.002863486504870021
-0.00522684411886354
-0.0037774770311084106
-0.04380131200768112
0.06631652868003894
0.13372471947829506
-0.023748630258801477
-0.008486877461003933
-0.014225920249022712
0.008107452780458825
0.0188166363478282
-0.03998759949273724
-0.05621134563262786
-0.026553237418291537
0.08265505181226822
0.014015126888701218
-0.014352603063530157
0.0025549740971462323
-0.008117178452718787
-0.00687185593942384
-0.037257159957651796
-0.05314738794447591
0.09185285924406882
-0.007714872209650512
0.04703356432039023
0.07421142493741525
-0.03882737852899854
0.010126569875561774
0.015054642754657717
0.007215787966984312
0.00017195202170531277
-0.002356038290915861
-0.026371997536961494
-0.01469042722882878
-0.009450454540321595
0.01006702223979952
-0.013747987232154162
0.008563962173675967
-0.028046645531381472
-0.007810619577241355
0.02877963311361958
-0.03379068845225978
0.020028485182350373
0.018918890371342065
0.0076591323167178
0.011066905974628423
0.009950795228961043
-0.010924134036669274
-0.021947900138794975
-0.022761209519274347
-0.015540202392897327
-0.012443641982542736
-0.003170201884006488
0.008710841337464813
0.04352330466914318
-0.033148431528023596
0.018107520420434054
-0.011772324751337769
-0.029010565501657752
0.0069326360823392654
-0.00759022825568126
0.024501959230094524
0.07326942142806128
0.0031417282115675646
0.006893665366834684
0.006317512207078077
0.004181922720931873
-0.017737740140718536
0.025725584039689803
-0.031072991287530428
-0.0004816482839903254
-0.016961772438756222
-0.013152551700362287
0.01822057599764638
0.02806782042381076
-0.09551519308592837
-0.0203631124589627
-0.0517337477526037
-0.17055383689773548
0.011882540714040957
0.0189518458875232
-0.08210502937543707
-0.0018855484225135909
0.0024089694449235567
-0.01339500756335559
-0.0180932929037069
0.07590115195552855
0.050751595630543586
-0.0055028288683885975
-0.0182115545573942
0.23737283771469256
0.0968797812089732
-0.0024225189911637373
0.055620473543775605
0.00975744255482488
0.01714271559362248
-0.11633051040424518
-0.03474594309205998
-0.005409020845725994
-0.0021135167836489684
0.024740201606633636
0.009946454119077021
0.006661073046098121
0.011592148569065137
-0.014497954601733557
-0.02511594395444258
-0.031759126696852116
0.008442377127465272
-0.008844261698938156
-0.0017772868096848026
0.06359800959316843
0.0018422006049943077
-0.0022759724533742746
-0.006135131609710494
0.05922139091847137
0.06786943980335124
-0.0424189998336856
-0.05481514855794533
-0.07987414459630916
0.09454427121673685
-0.010598275593615359
-0.05523737105838311
-0.05891053155177705
0.02401367816645969
-0.020976922078817756
-0.02743567061732043
-0.00344537998525614
0.006235911473523251
-0.015168917042344923
0.03644552479474252
0.021736268038858635
-0.04451195282610531
-0.04027307009188981
0.02565295719702815
0.01654038348446138
-0.009467766078389126
0.0034812565615700668
0.0011968197810428981
-0.05538061513221622
-0.09585070334880945
-0.046038890709889736
0.01081499865682387
0.01882618231542751
0.02376705719125452
0.03456782649808515
-0.012587952806117709
0.037640627621061254
0.0006641561754275729
0.01152136339210514
0.03857039032421475
-0.022198674185352388
0.05104449382890322
0.024593156781995588
0.09619901220585111
0.020304734319989852
0.0026202088746962917
-0.015142604162991976
-0.008402232930806402
-0.010893440196421848
0.016421363445207858
-0.007950273742405993
0.0014153757817973107
0.0650273109435934
0.06376806119894395
0.037150696155236536
-0.044877413195574
-0.03072082649062908
-0.031206014511441917
-0.0095197542718262
-0.018460509319325552
-0.0401375662074717
-0.01161937202874893
-0.02876106235156067
-0.02110533353547701
0.003231996746892228
-0.036889142975801405
-0.08237087284013894
0.004783452465028537
-0.008931927082313064
-0.009744812609619256
-0.05343974276720707
0.0460879832802448
0.027437920376883695
0.03532621332898484
0.07730140043831053
0.04588039816248606
0.013054894445613745
-0.004040536597026267
0.004314885056570229
0.07395863574368797
-0.002456632098630102
0.006766324899584739
-0.010845909218305092
-0.00098625689785919
-0.04405075916743558
-0.019585406122117295
-0.03167975762322618
-0.01619654821352226
0.0005919058167249553
-0.015106575888877209
-0.010323654803278364
0.006058184547651262
0.0264810545537837
0.009519753505660025
-0.045177952386121316
0.004644878044060601
0.012624652431177797
-0.03846595868996569
-0.005769762131168818
0.01118438896231587
-0.05367304389642277
-0.05341109504746445
0.023788759447940042
-0.0014023998868360644
0.02292063274294748
0.004350620548767451
0.0022581788340787835
-0.024784052395741402
-0.020825483924255844
-0.024049674158200435
0.0053658230636669385
0.0445601621847741
0.005624725563701114
-0.04059791969132162
0.0096334812058358
0.0032773657735610784
0.00041654065082470643
0.0039938016968187025
-0.045654828331077923
-0.017038334802774457
-0.00991292369236413
0.10757817566273367
0.047430885108651746
0.018168900296389064
0.020194388183957687
-0.06310157681529739
0.09428654397991994
0.004679965255056895
-0.10807172717829051
0.016689795338227665
-0.018196062711310402
0.08290196385318283
0.040321462980586496
-0.018999462049891364
0.013275764898059136
0.01145057293660357
0.012161945569796467
0.002426494052793618
-0.04539629828670669
0.008202010440983103
-0.016975857434703593
-0.026000681554797973
-0.03193959639914859
0.057996129243413554
0.02493761574100397
-0.015296396250853458
-0.014464722677970023
-0.00855325279385516
0.010254461995915025
-0.01547856141468311
0.009214402478283866
0.007454121045395867
0.051692572539988976
0.0030808313453800267
0.06947806805336644
-0.011863495466425348
0.0015312356701803274
0.03744753283887608
-0.005890277099929276
0.017437403627501052
-0.03777387322357991
0.044476648347842984
-0.015401269972343043
0.010118682700648064
-0.06129593494679944
-0.1432762961034974
0.017123378848370285
-0.06377712484387253
-0.008804233457385057
0.060821925739922886
0.012381908573531747
-0.00402867053921386
-0.004155960665343226
-0.001753269637500437
0.005297799627563238
-0.009304287835399721
0.013950115634057764
0.0048584280837015385
-0.00313094058313445
-0.0031264557911734013
0.024183695633554114
-0.043509905092474634
-0.027616974693398737
-0.00482999292673187
0.007760922024424999
-0.011879912806861223
-0.008263880532190616
0.01573026654822928
-0.004239602232589331
0.014387550384006947
-0.009787761826607858
-0.011245286741472519
-0.004044765331904888
0.022883833268131166
-0.00547047475905051
0.06262465720985376
0.08273612856453288
0.19158220479826676
0.014874979589642958
-0.058916722904013376
-0.01487512662196579
-0.1311582246226205
-0.2149376421991106
-0.04400935817995185
0.0035014608615730075
-0.030162829400653766
-0.0017393220345581699
0.009397687463708363
-0.011871298524949735
-0.008704157512813266
0.015098721121822619
-0.008644541448708966
-0.005027365026564762
0.005941222761997467
0.029065929192464937
0.019674594245504693
0.026797396426685372
-0.006768066806896217
0.032935076281628874
0.00936236127651484
0.001062536802558144
-0.00010058842401653573
-0.027517186535868314
0.01555124703714003
0.095184466886735
0.04987732761984328
0.009475302813258814
-0.007535792306396005
0.010479965928738602
0.05034958645434247
-0.027015517957769124
0.005728788168315004
-0.014568234746640112
-0.034448081898709196
0.004095979964639362
0.09600643398886265
0.05672224397088905
0.007070593585578864
-0.02075454484418465
0.011475228114625256
-0.13733680280039895
-0.12332861279634748
0.008955699940835126
-0.020317541646993814
0.04257336907005756
-0.01813739842329748
0.14133283114292214
0.00426528784444266
-0.03262031207354969
0.028417059907374975
0.0031765133095932314
-0.00516230153191727
-0.046988146824936995
-0.01078586541430608
-0.007223495285968737
-0.0015108878456913369
-0.03297422411739526
-0.007556164635759368
0.04738145144909967
-0.0307181092840582
-0.030236503556212456
0.0439129334699892
0.003113878410610092
-0.017714148798654177
-0.00678000370125148
0.005955774589024985
-0.016094846963193164
-0.016814794584765307
0.020240575195680035
-0.015911038953425632
-0.028575953484664605
-0.00022171696554388785
-0.003934533983221175
0.0035851960226020775
-0.00444716101193178
-0.024116469664405397
-0.00639686659529013
0.002790608678867565
-0.01076685837252417
-0.015223635788167997
-0.0020926383458878405
0.004826052766259897
-0.009865228298477378
0.0017973315009626575
0.16493169538337274
0.004583028557213198
0.005566912920769881
-0.00466695896439676
-0.023137279081027324
0.015829234455719078
0.027153924585058158
0.004131161236974907
0.005518691865066594
-0.02463448072605178
0.020507576939001643
0.02745798598087288
-0.01568269413527253
-0.002253503162801153
0.029306263530747893
0.010236788031090944
-0.02467889806047558
-0.004194891789701469
-0.0005281728079821042
0.015048848481704631
-0.01906652193578269
0.0023605953773323998
-0.012373254122726732
0.08505117749969819
0.05117235690613796
-0.07523248473893715
0.02197712633792191
-0.04537408117327928
-0.11043836244389085
-0.06571738745191019
-0.09343376957080404
0.01106401954243847
0.018265712582546292
0.012015564586881272
-0.009148978388776164
0.028839232101581163
-0.01910970773425008
-0.021874044880057106
-0.0321095651953199
0.01737994600460081
-0.0006691833642930233
-0.023652592947803683
0.01228874181337937
0.025103024571085406
-0.017840914990862076
0.019631052144151544
0.013180274481603691
-0.00404436078690267
-0.01415806269681794
0.01195285836601056
-0.02100435558704819
-0.020538066892630193
-0.022779010277100786
-0.040728108020585234
-0.012468757391236419
0.09471920857036015
0.0658399100007894
-0.02365281560045449
0.022576168071433228
0.00016952585320921448
-0.015795879336126323
0.019987305253132498
-0.005111568355902498
0.024049931286684388
0.08137304255979352
-0.008848659601330366
0.02215785186328036
0.13307092139776164
0.016394115144430135
-0.02894364661151103
0.024495055108179162
-0.021451351367462408
0.0009478278694005754
-0.00865876871198013
0.004924418759181058
-0.02429342925933324
0.006171317360382241
0.020685679154211607
0.0028766231820723264
0.0026453673911410237
-0.011206469592268039
0.0060979112105518755
-0.028595085586242353
-0.06240971375105704
0.033145253109355455
-0.05017672712236819
0.0794035956943621
-0.03579199207290418
0.02090143815444194
-0.016845036226569944
-0.036126854744096604
-0.02976045839225146
-0.010335018660458824
-0.020111147446977947
0.03405177351488001
0.06485702893300346
-0.00829362611686744
-0.03513103946311348
-0.0040858873567166535
-0.0001277505586953637
-0.03725883017752266
0.04639100077260298
0.0029987032702907574
0.0001259951452545461
0.04823936050722323
-0.10227859552944667
-0.06152244768432695
0.04141313390021938
-0.01971726173938776
0.011817739284766619
-0.006569655165185066
-0.016807305675841808
-0.030607754084151086
-0.02160164685416455
-0.0038750272687874754
-0.02169943877335175
-0.010218917560114355
-0.012579568316983765
-0.008642930183617512
-0.024638468946794397
0.05762543502196757
0.006346101915732085
-0.01761813044574285
0.015175366837709462
-0.027101810662158
0.030476256764716294
0.02606644087371454
0.009700327345423098
-0.01174983648690423
0.008625268078312867
0.0005588119052339428
0.018011929688808253
0.041694456004540394
-0.0030394160878106946
0.005213325334201531
0.0532024902831458
0.05202800581880869
-0.0679657225144807
-0.022690340938334563
0.05256730331680772
-0.007831381960898946
0.057114387882606366
0.004946618367924219
-0.028091623835022603
-0.024433225859932357
-0.03027200121358172
-0.02907626025679779
-0.03311311014552303
-0.0034580939174352994
0.0020863320181552605
-0.0688506308171645
0.04251510747649515
-0.032893060682449675
0.045052888829611906
0.12421824586179572
-0.020516233163299542
0.010944520736853655
0.021279086319155788
-0.016330042371821136
-0.0034511716684255066
-0.01400609234475882
-0.003873025196271228
-0.010504401139010976
-0.019999937106046712
0.014834976735452853
-0.025075737313897107
-0.03262092423767686
-0.017768913469054362
-0.006331115155971623
-0.004053891798825564
-0.027439696476846263
0.007456025857311965
-0.021993006852444028
0.09735236365850747
0.07881189359232117
-0.03567299742736355
0.04313569660519014
-0.004540163459100674
0.009698497156468576
0.00366073714650194
-0.005525751269434841
0.006611071526054424
0.0033852750902922135
-0.008138058462873575
-0.005481514201056796
-0.02335097331827242
-0.004739221431444348
-0.021570347983802692
-0.0034078925396419653
0.003829558592581471
-0.004629009626409214
-0.0022755943192879677
-0.008143675826223416
-0.033503057254508105
-0.005346935157254998
-0.01008532241082345
0.05824969664557637
-0.018262216159563898
-0.007689199213153639
-0.11687823067486078
-0.05945903484238654
0.014218728486542162
-0.006030494534480323
0.014925860000081595
0.007401618973633451
-0.010347077052389918
0.011897475594209625
0.0024270263734900007
0.028607334860203167
0.013422002997948526
-0.03350706024136252
-0.021989588043772015
0.014329489342190527
0.015839865635227126
-0.005897537396631615
-0.0400788690518456
-0.030441984973590002
-0.017694821243536014
-0.0032191473223876802
-0.005785855183720083
0.011071498737915748
-0.05545450670806721
0.12108979762949296
0.12371167025904622
-0.045155659998016226
-0.00606225723478298
0.11652245268998503
0.02634028283400557
0.01511141037160499
0.013646693444689394
-0.06588301967758896
0.1883729829177841
0.04811362098918253
0.0030298205706749924
-0.021413716829248544
-0.016658540973082964
-0.012737292062767094
-0.03549646189208963
-0.002222913265502811
0.006800493774356372
0.027768875737950192
-0.02451324116391487
-0.01495231281851934
-0.0369570911462502
-0.011693381061692345
-0.014655290727067507
-0.026596545165360558
-0.004828075952591773
0.002544882308218816
-0.02060149897882798
-0.021924014588829765
-0.02169494910027693
-0.035373449508527936
-0.031287230313495076
-0.007116603329378107
-0.043557267629861264
-0.045090765483156665
-0.004475537335566033
0.005236850293654319
0.06861033337826905
0.08673531503498315
-0.0021609133114732864
-0.009223282766404384
0.018873813181205807
0.031770689346143556
0.0068474203762138525
-0.05544558069338747
-0.005384886951568049
0.008815921538650066
-0.0034892057436903064
0.006428932568955021
0.096383772919616
-0.17189221282909253
-0.15022143827311987
0.1159527441471636
0.0655075513256184
0.018029779210378134
-0.014269426342331934
0.059854019582110445
0.009267976229720983
0.014882865090481815
-0.0055409212556070545
0.1630530960965612
0.018008878708069363
0.05673513074971775
0.03448808875791116
-0.06011375491493008
-0.10325751414582036
-0.030578187227708022
0.0037361452336102923
0.015499820439050257
0.03251433350821044
-0.11035667979909992
-0.24946161766773525
-0.0456674230030997
0.04449269026012195
-0.014340538449713757
0.021445008787982552
0.0071606482974094126
0.027229641465058664
0.016057650769764252
0.024374257649865852
0.0036810163421266747
-0.020020692405188334
0.000502003443860747
0.02756304894634642
0.025065492219588564
0.040767308583437085
-0.00996342610691246
0.0016400859815908658
0.0035115203568631083
-0.0040836338941174985
-0.05564286672780244
0.020227585912892997
0.047563747046054726
-0.005777203259865473
0.003431100103205529
0.0007147768682839342
0.007527302812731794
-0.00232159121150088
0.02586858039868761
0.008414682405060873
-0.029136599791080887
0.029953112693830358
-0.02260856294050226
-0.04469061464005782
7.826496782119025e-05
-0.0024684033059075095
-0.0035789637941598296
-0.024672541919790576
-0.028162286583538487
0.03200993698882739
0.02002908357391596
-0.015117409273697592
0.02603159838272307
0.031148943777401523
0.047243697498728796
0.1001710423256809
-0.029007642013689196
-0.00495926648261324
0.03664265598199056
0.014197242150644164
-0.0501571557132624
-0.02064123805740002
-0.052392719820077684
-0.07522462772711662
-0.009345759405538055
-0.017547379647133463
0.0020559550163856436
0.007640857882817346
-0.030935936105328635
-0.02056016213616124
-0.006686124177187748
0.009008849166376646
-0.003339679506310152
-0.011397672800901103
0.0997171234074024
0.05765366492567525
-0.022778658775127306
-0.018797163305960308
0.0366238145370339
0.02849873481070676
-0.010990484378689063
-0.011213354907508032
-0.023830696596259453
1.6731527010796222e-05
-0.017071925964548353
0.0034604369011152986
0.05252436094402111
0.04989378104296887
0.004868913303406817
-0.017898997408368013
-0.038772075952585826
-0.032159075691337496
-0.04554315124497076
-0.01770825057416439
0.0007231965715888885
0.005232692030923082
0.03171675968385953
0.07714878523466719
-0.017253241481507985
-0.0038287468122155874
-0.010707377273379242
-0.03580665066393498
-0.023243227215121443
-0.017489809477085793
-0.0038721253144733186
0.027721928667261902
-0.007867040577876206
-0.002933614060535998
0.018664188465019865
-0.002388610486767926
-0.07988067175885395
0.05074522235736004
0.03162656615606584
-0.010131761114886962
0.019601616128230658
0.004595518184557181
-0.0076664717356355085
-0.02126168878652992
-0.009377874363818905
0.019866722081536496
0.0026629252652919243
-0.010293302863494407
0.03325507819024227
-0.007630943379520827
-0.01639841393767433
0.004429423141978821
-0.007324542769684588
0.030378817775396718
0.021124889159106246
-0.012036883763822868
0.021458796292975757
0.03151224703071423
0.016123008282591403
0.010241465324378862
-0.036343544743885695
-0.03474625409525099
-0.008097819482562768
-0.023883088123005734
-0.005510364406985346
0.01949866977659226
0.010878889111113503
-0.011745300053324552
0.004149819141177664
0.05832371263214438
0.0538624012681607
-0.005013106891482217
0.0061466397721418355
0.026012603856470442
-0.026640024053295387
0.020649490467643476
-0.0455837945694002
0.004191738284225569
-0.05824827899325232
-0.04379964223881556
0.05199920393921688
-0.0029093365099666963
-0.04693866381264634
-0.041155286023370256
0.02761531224003451
-0.03741819129347457
-0.02371557661127548
-0.03984083829736499
0.039120546832320205
-0.00829386838226555
-0.03042542268868829
-0.014927130359708524
-0.02035177505086856
0.04940586162754199
0.0259325172914967
0.010481199185198102
0.010896933583756898
-0.0007299322308441205
0.034135561715498274
-0.02127141410013673
-0.0027400639465968287
-0.009985937536721006
0.0129280694639263
0.04027465795619239
0.03917732744440481
0.007861108997698532
-0.0071796200443481764
-0.008345033966591106
0.016893982855422488
-0.028739518529641118
0.0033216446860081456
0.0035003187629387197
-0.008383131406681241
-0.009248811200734623
0.04647616470468342
0.05174207300637701
-0.07664733639414754
0.041926561013372984
-0.015940279454020222
-0.11430847440702598
-0.04766719798198877
-0.04375272672706576
-0.023277771647599248
0.013289826838391104
-0.012784137418886421
-0.013255909773798695
0.038032954608767905
0.028916305197133507
-0.0163684328911086
0.052426719050390105
0.06876189564538346
-0.008552985375300536
0.009662981298360636
0.00963599281106249
0.018527033418910446
-0.004574286958269971
0.023800706289258462
-0.006443289539832989
0.0137124397304091
-0.026821800702932906
-0.132761185169204
0.014654663362475773
-0.0033818558080958203
0.02678957415567336
0.011928604680552351
-0.005972440614661989
0.06552488382856744
0.03424184516339135
0.06143733248843817
-0.006636960833172929
-0.023316473347454895
-0.042842019259927804
-0.00381177449233331
-0.011886133342611077
0.04005436597870509
0.01928064835308202
-0.023971826930966025
-0.005171727908833592
0.017358100645643703
0.007666251987038003
-0.1157795685941315
-0.10669224065163747
0.08129281226957474
0.014583411489250074
-0.060030174804348996
-0.03346887167483268
-0.0013719041009033375
-0.034594434734987516
0.028298771421930567
-0.027439410502846606
0.016356702548722457
0.0038326567265441775
0.05517943280105079
0.08010033853500355
0.010910979582327418
-0.022232896361111035
0.015467634546747095
-0.005598511491496935
0.038393498942227336
0.02630302508738228
0.014796461693053027
0.02721838057347861
0.09223474155892666
0.03375326616715419
0.027697840486683493
0.030671920134165667
0.019566743768243616
0.04331195655233252
0.0007495180216076732
0.02828743541321484
0.03898381858612906
0.011417131606069938
0.023334870925949797
-0.09498656008189221
0.05150992280532701
-0.07130306045040369
-0.0616889529603408
0.00985979816806124
-0.017884215667049046
0.0029932913696397957
0.013306797410590208
0.002110567982913435
0.023046348736951928
-0.006230577663461991
0.037279756541669595
-0.038302081396746346
-0.04690624253020442
-0.2850258546971832
-0.2272091148444644
0.03982110060917476
-0.08282027324073823
0.042785556157514594
-0.009358082603081611
0.02491241650051348
0.020119025320869784
0.03928503342925112
0.022418893394612983
0.021667556245428304
0.0020640048671818545
-0.028527028625521998
-0.02826274111237466
-0.035734565340252086
0.017283512485084408
0.004309670739837349
0.025802132368120564
0.023456646030859334
0.02418113340445301
-0.030958935364658918
-0.009111002303011621
-0.006014966294227578
0.006709115317217011
-0.0029244821217046823
-0.026208333302800847
0.0048027964560041665
0.062148362741727074
0.003546099857330144
0.0037913132272574695
0.0678883935958159
0.015983645218687104
-0.038605791173680425
-0.05409179909686431
-0.026126340444116374
0.012153132702937964
0.0011333335010092877
0.05244350129507696
0.029495396044740146
0.02580990768338965
-0.06837087338273143
0.12179874546654891
0.12096676049657253
-0.007826050955480668
0.03682120477485103
0.008308589365294853
-0.01240314281185654
0.011921948485618826
-0.015176262811450401
-0.01756160589818273
-0.004473409990937119
-0.012961923795268542
-0.035126030932397495
0.0026391612042505844
-0.03479140054538772
-0.03360147142077142
0.010271566004073654
0.19896585566678412
-0.00012264852886490144
-0.016603030907755584
0.009922171215141946
0.04815172230114723
0.027429487926866856
-0.005084249442466325
-0.07186820887574036
-0.13574496557488233
0.007056884463200575
0.005848630148109998
0.01015501880446618
-0.027029150881810682
0.004535143080012034
0.007252439667434557
0.005049456348020089
-0.009997702968976844
-0.02235680580594295
0.00346874985456112
-0.01582774828636813
-0.13514503927832672
0.0025786357858041987
0.032909906827701244
0.0006783826955849799
0.0259083620157177
0.03123424675268401
0.02848806573529044
-0.04053817823896237
-0.0031613371837746814
0.03248562712675383
0.06560977147749626
0.007244802735476676
-0.012176060756256478
-0.005552972976412746
0.002393406342805914
0.03292173834308072
0.0008514522812084526
-0.022376050109927114
0.010100615409369969
-0.015962721082862275
0.010937899395392246
-0.025850163485166673
-0.0523856372077689
-0.04688253795654153
0.008957749559984692
0.013586589162787136
-0.006698188155015705
0.015619451669592143
0.032009543392226975
-0.0128262151359903
0.029946550453314222
-0.0037187677697320554
0.02949345225957514
-0.0345232104742566
0.09065199686217387
0.04864791183026043
-0.23718446795438405
0.031944508478796665
0.01339457638680921
0.02157807022738311
0.0010841906189761235
-0.030765493804985732
-0.04154519512818343
0.00784951462821351
0.011622637063819786
0.026232720207612897
0.04274183346187771
0.022668853692254073
0.015039856881476316
-0.020511397691733217
-0.0068217047823529615
-0.01510930872541346
0.0015174363275395147
-0.001592148758164497
-0.07827716094306449
-0.012676012005285994
-0.008178323130641879
0.016840903751285413
-0.03688667158979746
0.036494381217460674
0.022520579195513223
-0.02313683199563916
0.0194898900500023
0.01745566392256212
-0.01192729048969448
-0.0319549623097587
0.04844965873844372
0.18621159013731883
0.019311072506057823
-0.004706918209168468
0.008408430538314068
-0.027262997665642913
-0.007842137859549125
-0.008137196389872441
-0.015668330971243007
-0.0343905971992203
0.018949354951910195
-0.006763821515807987
0.04720904120534238
-0.16721851835426907
-0.16100186176210968
0.07506727198340842
0.06486701547236913
-0.02231319342434625
0.03607387483977197
-0.011207961211891894
0.01728605506037245
0.025076027913724465
-0.025947562941157704
-0.0017374577925369896
-0.017831173514497003
0.019085565237174317
0.07607816716023817
0.03644454057445213
-0.04617488432958098
-0.01771579626101149
-0.034735105016749576
-0.027925786265245688
-0.04761429689464536
-0.005417324424973737
0.01004698584231622
-0.021742807231048867
-0.05207179523525526
0.02250646134006547
0.09341717483172293
0.006174608840617883
-0.02991763519437601
0.004303595203841825
0.020422938054538795
0.009782453428688085
0.02041445739192626
-0.03516516831888095
0.0035053580989979024
0.046184274286502014
-0.043083305106763545
-0.006264531055532982
-0.0057960331938499395
-0.017135594078299666
0.033489541405495094
0.0482223027360067
0.008116086120879192
0.0017408384493493338
-0.016265030289521643
0.02154635136062135
0.007940716792338926
0.008504911578664252
0.010821122560632404
0.006908682942662859
0.07177762355082964
-0.01779477439193502
-0.013862928724831962
0.009962088699381408
0.0008992797118333064
0.019783619188388325
-0.010230859906133843
-0.01924003701819925
-0.021269202638533536
0.013372658142849651
0.03332757606969512
0.0021201479665020535
-0.03307803735671214
-0.0007508556829835049
0.0024087839070631393
-0.0621272859816978
0.08684309402746349
-0.009010402299025869
-0.04470525002291158
0.022909998334764797
-0.005375062008819398
-0.0014306033993962616
0.010103424971056412
0.029309791075783985
0.015911233315351245
0.021215931603536988
0.034293176169952456
0.025015918865314807
-0.010023009918652253
-0.020178331123620892
-0.09941774280235566
-0.11044804069633964
0.03391094085169214
-0.026346994098281153
0.01812490654915133
-0.05460765725460756
-0.10176816138141481
0.026159429137197213
-0.013216026382694283
0.05454519558340636
0.1308165455206985
0.00029679192654918804
-0.0041645236108391
0.03134656187533266
0.015316229801614421
-0.017597779198250292
-0.02488455129738746
-0.05146091130153997
0.037035987408479014
-0.026890963000883936
-0.24291217679184957
0.00662203072424587
0.0348004826946593
0.003763341813316723
0.001204405988595614
0.02818071707023284
0.026425307533724466
-0.01465501887116731
-0.005380692248434558
-0.011578724529702324
0.020817884753817604
-0.011640629179463237
-0.014881298087746724
0.07104001808188251
-0.013507333721499615
-0.013239252585175129
0.027611456812873213
0.040887775486835407
0.031508750047769984
0.008679482339021324
0.00018082059017499426
0.04828874333083391
0.014567243958135388
0.01907039581924554
0.0007445923631582098
0.055580153914671644
0.016284394629538658
-0.017890237424173325
0.03108139941622882
0.04296129283082465
-0.007154134343644909
-0.03688693665686794
-0.014341288031466698
-0.005613413564917868
-0.10601596952404259
-0.040725288133182616
0.015964575540112387
-0.0024979300958976563
0.00546909445650015
-0.029506422721011994
0.06678114041954047
-0.0049045303358009875
-0.0015732142841418106
-0.07846549216220818
-0.076022968225347
0.005587812632730623
0.08356300794043484
0.09310610449596356
0.016379696374100087
0.0338173508132037
-0.011316283428150874
0.01020061944844744
-0.002897316717851681
0.012380254360539108
-0.00392756638585933
-0.024923066563640378
-0.017285319161666472
0.005659643198419015
0.030099748626539642
-0.007671266439676693
0.05114947135922567
0.0820843838675568
-0.01736121100517665
-0.15914234632088212
-0.28084964500695864
-0.012680957315000458
-0.005802537167798711
0.059638284369548135
0.0782382446348936
-0.00027202223961532104
-0.0031130388378801093
-0.02490508732018737
0.060018211745997516
0.0192487244687975
0.007369068526278408
-0.005062901901517696
-0.0013286681164410765
0.01077293648562229
-0.0013585220487058907
0.017147301975598977
0.03411432432955869
0.0027878025701428824
0.006169800240154959
-0.011542526524032327
-0.002315743295714661
0.020025765344777652
-0.010995529896345665
-0.021542661136028023
0.013777363688401692
0.01875500656384884
0.00786082360911728
0.00900172560739745
0.014626939747432793
-0.006901321671815156
-0.015782492405923977
0.02873667297499415
0.014176497645590437
