0
0.09876928917150113
0.05687645080915301
0.08417058543807816
0.030181176806570068
0.01664197610814414
0.01767074298519522
-0.001537146165783813
0.03901458605796183
-0.009809430735109082
0.00507373350945798
0.024263793601904463
-0.004235336447962346
-0.015815669328740196
-0.018167470783878602
-0.029789021463509625
0.007167515486259463
-0.019533007098566223
-0.005748809138161676
-0.019022442744543424
0.03332979882610317
-0.010657017795467861
-0.005618589093052463
0.012169501186859015
0.0302154565838003
-0.010318419408402023
-0.01974333682421333
0.016924936253802578
0.017967519493847867
-0.003067113540926822
0.0027007477346740953
-0.07986425809303188
-0.03970596192946592
0.011480867525258209
0.004790079616032281
0.006059012852794313
-0.03350917572249381
-0.15339702708933112
-0.006843944791431519
0.01721207465220156
-0.018740514753518872
0.0010042486326312975
-0.03199712608146448
0.06537581043940718
0.05473973287976052
-0.010552745829413282
-0.0033220466774320206
0.07825315867359475
0.030380010714426555
-0.0028327899106540045
-0.056950864805949235
-0.03259605941605834
0.006050921340659403
0.0034030134187838556
0.006701871070632193
-0.010968659003564233
0.03846380760157458
0.04644713021026908
0.00820970105703828
0.008901293240288844
0.05043143872900151
0.003386544716199334
0.00328199992035671
-0.007128663701979447
0.04029965144697901
-0.010578442744184555
-0.04989331568272272
-0.0019616162825941206
-0.009431354694056142
-0.0385889117914751
-0.018388811835061043
-0.02565628104369448
-0.026416613664990336
-0.020970577798491524
-0.012277726084896499
-0.03352013254485051
-0.04918634111228049
-0.024440826632771147
0.005783692945097099
0.01712127410128336
-0.031635340758599806
0.024105973966499147
0.013238569400011576
0.04679503058210626
0.035226512701430394
-0.0477885718886728
0.08695573284550363
0.1540720364426927
0.02065240819645979
-0.010199700483752934
0.0046880278225530075
0.02980679999520315
-0.03172335546461572
0.033310581727811865
0.04136557747836588
0.011515945813751633
0.04142010954469357
-0.06814867956511375
-0.16916918518437682
0.007948958754219807
-0.027797081069269963
0.02099438679115307
-0.0093512233193725
0.0023154845463334234
-0.009392820228593739
-0.012629940304343343
-0.01883187207407677
0.014070583654690908
-0.023215712404035433
0.02670210222748632
-0.040225108578266985
-0.004430320360631018
0.04499245244220609
0.0011397148240397843
-0.005364445297220511
0.017374770725479584
-0.030708728711190268
-0.00929087722982122
0.02264235429348155
0.03447605989380164
0.03359989480366582
0.02698708693092191
-0.00423638219129697
-0.03798549745310229
0.01345013121763641
-0.17436161499504368
0.01804258258903518
0.034737946464395875
0.026321597229492046
-0.016387712379858924
0.0038888391744792182
0.022382891664020778
-0.0020878089961830367
-0.011738568112452942
0.010217290758815672
0.024862028614590505
0.1180714231650464
0.1380756760479717
-0.03436090895575415
0.015878462092321417
-0.011226526972108896
0.020607139353661503
-0.009422929782694102
-0.025957165226341946
0.02810600323510997
0.0499044152088069
-0.009349565501729221
0.038278073081140084
0.006014788632852347
-0.012922076345415876
-0.16120642956102213
-0.2944591165623528
-0.003545647279506042
0.01367789245104673
0.011136522569455727
0.03238720407523658
0.0001871085917365634
-0.01673937720640907
-0.0023902718658024335
0.002187819566876346
0.009347864349213229
-0.0002982767053454815
0.01764316346601677
0.03010908147895731
-0.0034116688559552785
0.027120780291705796
-0.027957853032976095
-0.026203647652370737
0.008788680883184954
0.019482895224015594
0.018604040255479095
0.01205816260796486
-0.053453038944866096
0.02437376894882556
0.02500479696968098
-0.029638614268545086
-0.010576994050204513
0.026962492100243266
0.05660944065484303
0.03373194444188773
-0.13946758916543875
-0.07877138863929153
0.0012529213746486601
-0.03072271607713994
-0.05997857705446062
0.025137686732409802
-0.011008801143414688
0.07597276979293545
0.11930822283163343
-0.009182059291672017
0.016796368046682105
-0.007551076717844595
-0.01088452452015479
0.008244457201815263
0.06919165274924811
0.037084312084720863
0.024124207826506056
0.00880817717040904
0.0377665660048221
0.012797189986122944
-0.0015393048168631262
-0.012704091575140245
0.009497186159366481
-0.021449181194534497
0.04690399260863649
0.011902945268369467
0.007712664698339202
0.01922753575694925
-0.01408597804620553
-0.011020067059169676
-0.002211395197307612
-0.00440092043716457
0.00038348676795936114
-0.006349772243348802
-0.06453692695462383
-0.040306580793442105
-0.003425148182973538
-0.08870561731473904
-0.010812046210037658
0.014733587550710995
0.01734318754671606
-0.0045876722338826035
0.010094381103050483
0.03363528713816254
-0.014214030197802839
-0.029356681768993243
-0.00785658554717562
-0.01071335696853908
0.010790985814988475
0.015036367201607321
0.020779718382917266
0.019474812520437264
-0.0007006457646421478
-0.01057604332494823
0.009952825265851103
0.00041797123865530114
0.005813773955045196
-0.01600061133042321
-0.008207281659168538
-0.01429428649547782
0.003504703854407255
0.046764209479244354
-0.003952514545246307
-0.052233785313885735
0.006964307997157898
-0.0016766872562368634
0.019954910309335248
-0.01325769959463051
-0.03009878420424277
0.04717053193103098
-0.004826434466211383
0.016691681524753376
0.02262088973492159
-0.046078295032564956
-0.05250251498665859
0.01139803137613887
-0.038857823784866095
0.004213968706566272
0.04206933823099427
0.04097057778861938
-0.005053785675300843
0.06273245428789188
0.15624014388834345
-0.06459179212275704
-0.07581882891168217
-0.004451346250852584
-0.02186899587299799
-0.02290655755315118
-0.014238603152983394
-0.014284894529495617
0.042511458941683185
0.00881896903457145
0.029718538814745944
-0.008509719209029397
-0.04282193918087502
-0.017660806719298153
0.02373295421914662
0.0036660806107118465
-0.00186131525618704
0.015574932891623882
-0.07473253610834538
-0.03087353868173293
0.01847357323704198
0.005279782531595593
0.0011766500207842777
0.02017887148435889
0.0203323883891834
0.005372203834285068
0.10511666206339958
0.0010138013167807463
-0.0056311922068211775
0.018152814555559796
-0.005774554479736449
-0.0307972401989026
-0.038944822189135773
0.01513920654205028
-0.029698620591796544
0.06286897830721287
-0.03443272416243437
-0.18149172534395527
0.02359080066471525
-0.04931358165204231
-0.005688828203845082
-0.011778475739694073
0.017023462384696757
-0.020798866546225585
0.0008510129358707483
-0.009298845754571404
-0.005512107925654892
0.008268557261499844
0.012466912971727851
-0.02559832574880788
-0.02627191636158892
0.049782751228836956
-0.04587935003038103
-0.017419703181475926
0.029768046482353972
0.04584205115718052
0.062271035470255386
0.04097311887791575
0.04942061593821327
-0.007054549468111042
-0.019747248580536232
-0.0008367768787704364
0.030455293853279095
0.03572674286433553
-0.02882696778762966
0.04663616567753363
0.06846711050923943
0.04006163335431222
-0.025043114759221795
-0.015496791044037332
-0.028500620787081803
-0.04761833504679255
-0.022482693113765623
0.01801159310638563
-0.017175535256613708
0.005366347572322702
-0.01644340671965837
0.040217449650285356
0.10003980319023346
0.005861395890855956
-0.00017670016759556792
0.0030571311157083325
0.011436964428050526
-0.009938974233060421
0.01734518068606169
-0.07336246846803147
-0.022101755807170838
-0.03738899702774474
-0.007522912230281855
-0.05270227371957615
0.023968419491612727
0.04549897315709542
-0.09459336968617449
-0.05850265612720165
0.05782213993940293
0.0788328791845848
-0.021478457838128077
0.05357115929580477
-0.08682299668152009
-0.09387165754855746
-0.020926730247874337
-0.033720580964427246
0.018885546566684334
0.04430289540452767
-0.024130199462559256
0.03359985755413482
0.0767879726312541
0.04864413256043473
-3.073286732563792e-05
0.06135911330412827
-0.05403859209428794
-0.029161123124440122
-0.011597515841778393
-0.030135112410368696
-0.008384828456074045
0.0435876614542168
0.04661490674747375
-0.012049454177477504
-0.0006028263600168075
-0.019426061739527444
-0.011701546870931022
0.01310568062839667
-0.05979848776036532
-0.017382795644920273
-0.01894834141390077
-0.012089000184850632
0.012993784951351868
0.008267047770110914
0.017279237108014184
-0.0036945800501646782
0.0033970812956101585
-0.03531685340379355
-0.034021442422448055
-9.303328163102711e-05
0.00954165364637717
0.0014547140180812886
-0.011553726577221046
0.032100518525844154
0.04522744068204507
0.005232892752965693
0.025375240053172758
-0.011035891902540357
0.00798900769206054
-0.010835341534520362
-0.01651647773391728
-0.023976361137964367
0.0028055436251944476
-0.05598950033392957
0.014919912637654553
0.0005464854125800247
-0.04165340565290138
-0.0061346976015777335
0.04681981630273163
0.027267648919470807
0.004200922429876385
0.016433921838133605
-0.023810093448503895
0.015474728110436127
0.03464957586841333
-0.010055147592539386
-0.017773303501842908
0.022245222615359814
0.0754897530351743
0.16337517106305888
0.01683204637882286
-0.04931143340509335
0.023214251045275008
0.015059913399812901
-0.036260674632830586
-0.0008242546400085231
-0.02443860740805258
0.023202869909375128
-0.04643501467824817
-0.018531635598829282
-0.00223878425895732
-0.014059465180837755
0.055601026139980414
0.004926632566817035
-0.03540839107486849
-0.06086683672570973
0.0033909020689824394
0.10223003593865898
0.04412098470957032
-0.03422617104284194
0.03338959472469361
-0.06447043910814383
-0.17063489432037524
-0.021946546947849085
-0.16101073765369933
-0.028600215528129434
0.032904092929844586
0.03320120764086821
0.02563935312512928
-0.010971831646220242
-0.026949007850284753
-0.03175997196227541
0.023857268460786618
-0.023019973670244956
0.1151139936921188
0.059579692549052495
-0.018908646621158345
0.002958923959757888
-0.01932192215854806
-0.029916239433754627
-0.02290810414592646
0.044796525844439036
0.08095733112336974
-0.008640683443059806
-0.009528228349913966
-0.015383184230034957
-0.006435010633190237
0.01676360013443474
0.010393808147588066
-0.006228527980157446
-0.012737341058853928
-0.0274685468258294
0.00012048336413923755
-0.03661851544418185
0.0008604156322582175
0.00719643211718109
-0.024918616735773814
0.0053735300704654924
-0.06872667037245946
-0.03918071750942522
0.0920008314920667
0.10004554896792794
0.0359297648818648
-0.02674932496035252
-0.036536776188650574
-0.01433282765544085
0.0036224953461247216
0.026070095430896383
0.044877743291793365
0.05350014470940439
0.03416618801182352
0.009370886031925206
-0.013963593678608053
-0.03853533445742716
0.20405689284384543
0.02964830255961251
-0.03733310159422568
-0.013264502865997336
-0.03673654110824271
-0.03123543283874169
-0.015739225103689785
0.0506903435758299
-0.07394051727188133
-0.026528273730772205
-0.012561767631088403
-0.04157426133962753
-0.02741052650547865
-0.0016324679275848523
-0.02938819408653648
-0.022133458664232036
0.038793805408268406
-0.0027764822791210824
-0.00786950118707984
-0.008911010207028959
-0.031061746065396367
-0.013188441900039576
0.031206393023629514
-0.019241011631000456
-0.020394869209830847
-0.021525299866977547
-0.003756886048233904
0.061599441953561214
0.02494833559145369
0.002823967004325138
-0.0006650496236966966
-0.0065958771272258306
0.03793498229216208
0.018025439533773165
-0.052790102748439593
-0.027565841617898865
-0.011109922113843491
-0.02521856760113367
-0.007418371406349712
-0.013684196240657996
0.06268247557696358
0.03869967053618219
-0.004492671873124228
-0.029914638512758773
0.005389938449382573
-0.002501048161910675
0.018318170308015972
0.022233637337915692
-0.0017722462439690018
-0.027989951528059505
0.07908704403597024
0.16367384414419778
-0.04829963331570093
0.01910039560725757
-0.18554185840518406
-0.10112935914424276
0.03998049942891066
-0.009833171589264826
-0.0005431860006823311
-0.04673359427075524
0.02817905010534152
0.0077786720063855825
-0.0335076613027877
-0.03303919819010248
0.037540844263098574
0.03133537437990426
-0.0059733879553527875
-0.015074290658017781
0.0290101507043477
0.026438759276947117
-0.010769953068666004
0.013514266515263442
0.012102190748365505
0.004202198594949958
-0.02014503441652369
-0.02822835730392396
-0.005779139154970407
0.016174264591454567
0.03837560554348303
-0.019767932816505403
-0.02150824784931017
-0.022377033353789978
-0.0057322932877192
0.004043056980105442
0.015799359167087905
0.003049196691860586
0.0025324434551802825
0.042025040988181
0.022838826872610678
-0.01375275294924759
-0.005756875854023947
0.004561042735724075
0.09665505773397186
-0.02386036485693844
0.0015314039971499184
-0.05850539547271902
-0.0077127620073456854
0.0011349715542464597
0.01596207657964877
-0.013211738459954521
-0.08641753149464612
0.008613615446710611
-0.00904531862516098
-0.004166675143192816
0.04412991697762529
0.04592760615955765
0.0031209616209899884
-0.02399157286927506
0.02799137641611204
0.015844392062441762
-0.002050492168494388
-0.000600076800412381
-0.008175438524968465
0.0028994444953032686
-0.01680295433419044
0.003358557771135766
0.013613633602733132
-0.015538210305122365
0.007818407529256626
0.0015069800347044095
0.016842098799023333
0.01928507374458929
0.0006709653244364713
-0.025653507993593082
0.010044638054518417
-0.009569022290072345
0.09380653895260802
0.04789808532882312
0.01945509346654825
0.030192559929972378
0.005599963045738094
-0.005624293101281466
0.0066576982694956585
-0.06038244116811573
-0.09369169102984592
0.012017421393033079
-0.028325743281909482
0.0358456566329111
-0.04687665164305594
-0.10514834718443859
-0.01913493855793004
-0.10047528705119217
-0.08330875990863623
0.018048230974145672
0.037479298784497704
0.022222822243186256
0.010306635420725591
0.022232782099466233
-0.028712430398919516
-0.014753211548879243
0.07701388562161599
0.03614910126792692
-0.024328873999332035
0.00033471534313554073
0.017922729980994808
-0.005048335457305371
-0.023414626775980534
0.002088991919587905
0.020955634108676843
0.03304546488032278
-0.02678524930169977
0.013363229105619469
0.0018576965794249807
0.037692459047861254
0.014962213671591448
0.0419433834667045
0.05285021638047316
0.02611652462872396
-0.018137737620558977
0.011163916618487011
-0.006898141730809762
-0.013891008950391396
-0.019493743349262068
0.012823231027943692
-0.008604153751639821
0.02656950023525559
-0.01738067498938927
0.027849263323762297
-0.012299868896564484
0.039734985202472775
0.12358073938666762
0.018396851371350827
-0.024755213091257108
-0.16104815036449419
-0.001444077489747478
0.049315781595554234
-0.05024081345123063
0.026532066153932752
-0.21406024880511004
-0.07932661711516936
0.020295497519161754
0.007829458660072938
-0.014503349851478085
0.02715762806048155
0.020512044140172433
-0.0843362815404721
0.03955081016394296
-0.026883107762308595
0.002271501569527738
0.040703579625771764
0.0019819706057494623
-0.0022074472690940153
0.05101790729913884
0.009549342006745818
0.04923119299993234
0.07339763260392022
0.023552688328693575
-0.0022678896693178684
0.030787865815506722
0.008040423593968844
0.07982146242032764
-0.02710561879447235
0.014789370948020993
-0.026328732099783102
0.012273886500507095
-0.21881663603268417
-0.07176284318201787
0.07733447346705156
0.00207121363568877
0.055438663019662444
0.005558092850150633
-0.02290371619957337
0.005312219053583173
0.01098109842722044
0.034354030988133756
-0.026457513804096687
-0.004987139253358124
0.02813523085384254
-0.03250113130332817
0.01012499510489776
0.1325526780687329
0.004254249249169771
-0.056634787683795464
0.02901573123710219
0.06571570699535952
-0.00147020815681444
0.05950509997740923
-0.010763709755427146
0.012538320072178047
-0.07166873961570126
-0.1597676273687601
0.02813654673447974
-0.0063222492765640115
-0.05334579170779521
-0.026832563598915296
-0.008319090612988913
0.024989284704333647
0.006424726051751417
0.012739385012405806
-5.451169712324118e-05
-0.0005080158337104164
-0.020184774328115936
-0.010397830105570575
0.02041828862722699
-0.020684044184880717
-0.02689652593821589
-0.01588130958284383
0.02843376121822574
0.020046305068413577
-0.0020080650108374475
0.019004979083257517
0.012441616945317369
0.08493641911178341
0.0354423809755526
-0.028453741012161644
-0.03652957871791143
-0.13457741169698695
0.018151683124682693
0.025003175826866765
-0.040095707111101
0.014464555298053792
-0.00390463270189657
0.00455886340561458
-0.024857598278715934
0.0009050147853760104
0.020068405800327413
-0.05534546793098171
0.12082688681833366
0.16279107872427695
-0.07310126503931524
0.01286323734183636
-0.06385485844099052
-0.07492837191942125
0.012545785429846574
-0.016046450152053318
-0.02880872953823762
-0.011532002973784613
0.04307493114001232
-0.043599771452083644
0.01918777359887355
0.02687720388860742
-0.01249496792382146
-0.001326574157417503
0.011840654543267232
0.0292883077407554
-0.01847128426072875
0.02192750237568048
-0.00840787588578325
0.0019430874355492412
0.042383320303250704
0.01700344751937551
0.03414854270512623
0.027258386585574855
0.03708414855969277
0.008173454461738984
-0.000530969639252322
0.005648564244688762
0.014946604658482743
0.0072142978772210395
-0.005245353583276982
0.006599173408565204
0.01784669922300516
-4.1337177121844576e-05
0.007967004816364698
-0.04764695779043882
-0.006382961730733043
0.02723641840332297
-0.025340236552485355
-0.09347220494591137
-0.1669999945276276
0.054108958744970806
0.018683585241050835
-0.02344602787854729
-0.04469136338752939
0.001153518371744861
0.0018410054063590965
0.0005063499953484458
0.02957657911828591
0.013787798511832376
0.015548243761420846
0.01468603202961327
-0.0005841640717334715
-0.012034076077148069
0.05125858967985767
0.056939849007058986
-0.17340484487361604
-0.023286189488782843
0.05184195214414712
0.013173114163093138
0.024190830680348666
-0.030968875829372064
0.012583759618621477
-0.014543349070959744
-0.02356719840608533
-0.03038196378089241
0.0579460616902231
0.01731375667246158
-0.008126481965329092
0.024759102450077352
0.019684180218361196
0.012424882460024277
-0.001732430813014983
-0.03056859404773484
-0.020030564457483586
-0.016376276380765758
0.0194473120006886
0.02686004894435697
0.056637171390710964
0.08907071474367062
-0.0020146231022172946
-0.037569464878154754
0.043573696112120336
-0.005323555441342897
0.003153508273784548
-0.009256349961071945
0.019682260574166183
0.0022341434637796137
-0.08412658919900379
-0.009775881278706055
-0.025956926979777695
-0.013908447913358834
0.027322578594842915
-0.030266099052247877
0.0025543705675002905
-0.002989259423433266
0.011428296272620589
0.0046845200417133265
0.030424067670827337
-0.008419043431815498
0.05003541960300421
0.037902743883404574
0.05647099159527231
0.030768634443568463
-0.055188484535778716
-0.011033138262491674
-0.09776005347433704
-0.15891028841990323
0.014439044318243482
-0.12605108683516592
0.0488803963019656
0.2762729631493467
-0.0019462475306190428
0.030795092480652684
0.010876019986355944
0.00904319710777651
-0.022889238417170953
-0.0028076477169457874
-0.0029311084446298204
-0.0029863451568502937
-0.03452048373285742
0.010856142748217086
-0.06956807906363435
-0.019685628674658992
0.04107133809510203
0.023772978987602285
0.018804967549101135
-0.22022867401054563
-0.030347846458275176
0.025292524781137637
0.007409882706241449
-0.0017465488142294195
-0.018160455835608158
0.05157950895498049
0.06040108843127855
0.004433956040564897
-0.012715007097430184
0.009042854397885328
-0.009638408244101528
0.010674816143983393
0.02965407358525602
0.005395998106015432
-0.0009221168219797733
0.02503668476071483
0.039254695835529624
-0.01617472821142887
-0.005635888441687833
-0.02179854599554718
0.004633714389301422
-0.012411144069078889
0.01422283773867296
-0.019268454287154232
-0.011869818527500117
0.016851107638520525
-0.0031533391696526407
0.01033323598415725
0.0011386778984688248
-0.038465434501371604
-0.05719945029557193
0.035006049451551086
0.01894842232091651
-0.02442705909673268
0.030333065809586283
-0.00700618821855028
0.017975015501936
-0.03602060258691416
-0.028844391165630458
0.027991142063154655
0.004299023225352209
-0.020957236910882367
0.008693809952048673
-0.049745089044387195
0.046422362433321665
0.014219083885921358
-0.031550192719812714
-0.008465124806992493
-0.027535696585774875
0.01229482746236822
0.01601620492033445
0.010047793782879337
0.03322596952586218
0.029956383448932387
0.016109335059398787
-0.03307197004822737
-0.026925606988431494
-0.030861291114376757
0.018305809640947492
0.04175607699645471
0.012683859465910038
-0.051417750805588004
0.040689676602625076
0.08271297505636073
-0.02584074649452807
0.03532968556869993
0.0037791292606595634
0.006273769009604325
0.03784132530460407
-0.01686152418370961
0.010768913210831864
-0.01826370237607572
0.019071273527373228
-0.00550660771364073
-0.07527548486826609
-0.0195568119459179
-0.02686028352011234
0.009214372258235516
0.019953311295151283
0.04796352719546293
-0.007061017285221216
-0.006473384009698772
-0.03667208141241865
-0.018111735119772893
-0.025220433470341273
-0.004023822974585356
0.106023162288044
0.0019201847621984568
-0.004998067762958687
0.030724020394583728
0.001114986086128673
-0.028916318233303043
-0.05498296267489798
0.007332358554297654
0.0878290642363809
-0.013837247847616625
0.008489984998284262
0.007374904964543171
0.008698244625400177
-0.017319493403076733
0.07546554409129216
-0.05594957939247804
-0.1172381467229925
-0.008488529749585895
0.007743955585816233
0.00741806188159288
-0.012870307165627511
-0.0009014857666134716
-0.035026895600539586
-0.0024507260857000355
0.009870661230024162
-0.02158947072428021
0.03066805912783225
0.01082243365998335
-0.003891489788559771
-0.03515265562944233
-0.04679961472249801
-0.015582305345226246
0.05154861353919881
0.028956088998708628
0.020386977707779648
-0.006374839383170809
-0.028194817071525505
0.036081467178381454
0.04209881220475971
-0.013769889463159421
-0.012641533929295472
-0.010650004093043546
0.010825433042610808
0.03289161199764897
0.02892060180726667
-0.024099733167792965
-0.0433060950145524
-0.013299553317950687
-0.0008868677851066874
0.06335084493237589
0.13200387892655374
-0.040101735334402366
0.00358881746847854
-0.09748438853427147
-0.04631359053734774
0.008907273759854202
0.022681185552781417
0.014498502556082999
-0.017103102594302914
-0.035734368162804404
-0.04506018806188424
0.0479845129662465
-0.0022205242817696196
-0.019012520815165742
0.01690568488243102
-0.015522679623373071
-0.00852362791551163
0.017121937448853448
0.003348316130094944
-0.02083234416981866
-0.011330338191166495
0.012886985576941904
0.0654144549044039
0.03802682781269216
-0.03028888421864039
0.00333874373587925
0.012777037263531354
-0.017587876868149787
-0.008243954851792938
0.028844295587996314
0.013673533965535927
-0.04194645938581969
-0.09629861177310349
0.022067324702031734
-0.010043566928114351
-0.0577955428924472
-0.1068409281905785
0.11479606814735818
0.07822594409578651
-0.003808417426847172
0.02209911762287537
-0.005570153067248323
-0.014233826424787483
-0.004720043397776777
0.002364871722388117
0.019080224884774004
-0.02371856468876365
-0.06874809356900306
-0.014737344652199079
-0.014862714854994703
0.0015571078716089283
0.015736261437552652
0.05979966639778204
-0.0018038853223925635
-0.0099320036534967
0.03670971015600007
0.046158462385997086
-0.0007056850011164435
-0.029289894483220346
-0.017003911933483867
-0.004647350105294117
-0.005327128777719011
0.013744303717784453
-0.01209211398199782
0.019463187050532373
0.0434891730747734
0.01277444321470928
-0.015710545373392677
-0.026539149104112585
-0.00749059701301351
0.01918964793766668
0.01409016024111622
-0.00611070307582029
0.029601716523083185
0.00011905368487540164
0.0065573332028778415
0.004482849565117017
-0.008782828063493398
0.007147667071160463
0.014139710698750167
-0.01381704085900619
-0.03700678228747778
-0.0117533453897323
-0.022255844644392318
0.013796815565646912
0.004907872681348686
-0.0183985566503818
0.004463536543603311
0.017229831833749074
0.0039083773221222865
-0.0006259542152991028
0.011955042435690844
-0.0017581066825616285
0.01737561126454411
-0.036223804947211474
0.00541485902108128
0.04558746338125288
-0.012574619822965382
0.003202570325114894
-0.009709206342769616
0.009036440864146103
0.0009544717734567572
0.0019265989347965898
-0.040379539261744715
-0.030187393904009624
-0.024629483919092025
0.06423526489389927
0.007831643822495364
-0.0057730301316282736
-0.012376262229420364
-0.020714444753949682
0.011882277999647079
0.010605497328420197
-0.03934692825684189
-0.025843178492088753
-0.03894596496620074
-0.01353485100758926
-0.025443299071002897
-0.01798910293492732
0.015936166435484928
0.01810046391211367
0.1103181408993074
0.061591903967496496
-0.052305953616577944
0.0007635123475912814
-0.06592110884423968
0.009990380404303043
0.16619322419794744
0.009590407777849209
-0.048299439653204566
-0.02207617860646317
-0.012983889611431258
0.02173050367797673
-0.00924925456738118
0.004989710600139423
-0.009441211585504733
-0.06039521227866951
-0.032044812559628384
0.022014711623818635
-0.0033244401145710945
-0.022900669377421457
0.00216422617175114
0.029578342752169605
0.07893014646381226
0.007784990260541024
-0.028268636601049838
0.013120036049126961
-0.0025462457095978817
0.01564773169701021
0.02578432337130003
0.024024978278433803
-0.022807538857779065
-0.03191512307154304
0.012569672453582086
0.026872495880180498
0.0038408202141629695
0.032312592446691636
-0.030831050833676293
0.02196066791972884
-0.021750514721005042
0.02262893936766853
-0.12213497936217202
-0.06936680727381887
-0.027941399374322162
-0.007173599610235372
0.03789389336842538
0.04030213109300451
0.022102286220981177
0.05688577014940343
-0.0019263537763930696
0.002040974846559389
-0.07424459858408466
-0.0031788610808059247
0.009203642323002862
-0.025620785000315574
-0.014208104589226223
0.02957510599813776
-0.006477469322011601
-0.029440690171517007
0.002194151390273436
0.04603010995571954
0.04691898669928141
0.03172511132406175
0.010886787971423213
-0.006277647098014784
-0.054041458439562526
0.03132923154383084
0.05169968072698307
-0.015064913054435181
0.01114085089477808
-0.006122460695413658
-0.0833574028123205
-0.008691927100240792
-0.0022582089102196863
-0.013520860298252531
0.01588011953078039
0.05791039673475089
-0.02913501311843554
-0.038197287090564254
-0.023184842505484155
-0.030603072558374255
-0.023397942438583345
-0.0066154566746753915
-0.06887896469991629
-0.07187704127386352
0.0014080557386767255
0.020712400420235373
-0.01708432750401878
-0.024321286064085217
0.04073218452597445
0.022908603430364088
-0.0282236467110457
0.02882712172063727
0.003128330447481054
0.028217258462557352
0.028211674955764043
0.020593225731756235
-0.034288353168142674
0.13840518793641532
0.23846202534250388
-0.03627983392233739
-0.013353104441479713
-0.00020998423458788213
0.0034715475398478675
-0.013446690054479356
0.0252588436261595
-0.0007523211762536002
-0.01927138120452203
-0.005961528959641026
-0.031718517040826275
-0.04939454513004687
0.019971177142017116
-0.003911117177144338
0.03473225538177024
-0.03775774888420197
-0.02948602479402737
0.016958773379341034
-0.023441218738854512
-0.010643216784989728
-0.004781122798238982
-0.03139654873100964
0.007056923820215433
-0.025210603595133406
-0.020340834068591655
0.018345275932549993
-0.025833073451737194
0.047884599451458607
0.02717922601939636
0.005160891672086996
-0.049179475645024465
-0.017349820452529773
-0.09917094985457463
0.002237953142345434
0.05263506349386793
-0.028054158197290003
-0.01114554205777625
-0.006704037983423203
0.02109364849630506
0.0016642992680282324
-0.09429489418950404
-0.011692563671929114
0.015598411699423624
-0.017600154203257022
0.0065737484620083915
0.037450611885044095
0.00446535742772972
0.06864196157673738
0.032638126623873505
-0.04926822675739689
-0.009346426817799708
0.017272383613459237
0.05346644029693295
0.003771905723605616
0.031062341883351628
-0.015711934555132694
-0.037740327137785676
0.0534463207001283
0.010195351595509548
-0.00020807404370924257
-0.032883440415788
0.12322631650573153
0.14620769374223788
-0.03811400764930731
-0.025632630541363968
-0.03849398612649249
-0.009418635257621804
-0.024725185529757034
-0.01078471624852551
-0.046440976473176444
-0.027494883362775818
-0.038502758308551883
-0.004186108646107562
-0.02261129839825674
0.07403542026492241
0.03099443534052891
-0.006994107716580029
-0.03282509714580147
-0.06518540300994267
-0.0854799086685644
0.004573802258224218
-0.023661725605097727
0.030579130898097766
-0.054060461890496216
0.1031500598937925
0.10461602478136878
-0.037597326246837495
0.004335047267342576
-0.040038587448607416
-0.0004441408202982461
-0.025070684470482878
0.056127106366395
0.09665679516193972
-0.03933711496029592
0.008282048466871375
-0.053519682819475216
0.003761843472149067
0.034260636459037
-0.024682573132941227
-0.04564057455444951
-0.0009229168165987106
0.0066125412047248165
-0.02198319958903218
-0.03229778813564696
-0.023572002891628845
-0.0008708679174156569
-0.009283292782856509
-0.021670637554673598
0.10933919490857277
0.034700786253130764
0.00965078903797543
-0.008057151780854942
-0.017051138067202664
0.01060878230479975
-0.00886423806759954
-0.02828180373645037
0.06281612315260765
-0.004821135454319823
-0.06825612037405562
0.014251556550212716
0.03616987056335243
0.02767964404499798
-0.01733567601549527
0.0032910917413885863
0.001733912957350942
-0.02241176926748583
-0.06123306971106228
0.035433376321069084
0.06421259345387086
0.03660198922507703
0.001012677315770532
-0.022135082262361945
-0.02572780768674571
-0.019926162234605267
-0.014564212279524298
-0.07883855011354728
-0.03478290142993673
-0.0013249459868414552
0.002815422125780939
-0.002639589635746642
-0.008173386265014564
0.04160121585932153
0.022825957307174096
0.05952343231351717
-0.00727490395242839
-0.0009003921882814177
-0.019732506086433777
0.0008214519993476852
0.005773071546058139
0.025720072709162538
-0.013288035939624396
0.023691084876769603
0.06651373822565451
-0.04799638747645524
0.0021200896016393914
-0.011592422048993259
-0.02214523192527501
0.0017157981154466702
-0.009898589616976912
-0.09507671690091152
-0.049470076024357934
0.05977243406457993
0.04894056857073558
0.0029143380541646695
0.046715627812826295
0.04411706901487358
-0.02701835324929219
-0.037607752963018506
-0.001593682321861117
0.0016724080679599222
0.001691970780801163
-0.04343260005485912
-0.008021450532829957
0.05722410062475404
0.10953881725340646
0.018031082407013885
0.019167065326065075
-0.021943864217717872
0.008299973900427034
0.00044474609289993133
-0.057638514666411095
-0.0028050463831979884
0.018258513858851275
0.010928963612342905
-0.015577555713414471
0.023227767778015187
0.016069366227458234
0.0054442087149219835
-0.01278983651269735
-0.010005600074467623
0.024674541953797376
-0.04270469341969462
-0.07358843532026257
-0.010446918344116629
0.03677409830314167
0.08322122938935926
-0.076732456560466
-0.09359146214149609
-0.01981919177634874
-0.05205954790379345
-0.027014433299409748
0.018475798965905572
-0.0060794427652681405
0.006419221181144511
-0.007771873318389591
0.022029364307841096
0.01671151761892521
-0.007305934578548742
0.003751437374558846
0.04169295237493198
0.04558987684740607
-0.006283514508096216
-0.007220239586215209
0.014978380495210636
-0.0075498696266622775
0.002112160866900145
-0.030598244701977407
-0.005132731402567207
-0.03876947757641243
-0.017761777395224672
-0.02200384284828425
0.003963530355074086
-0.011852820597272147
0.013304734572773876
0.003642825859997289
0.08381872300223152
-0.06821692724990853
-0.06815409468717104
0.01980941144517314
-0.021658790641839214
0.026632342318691965
0.03658407691434043
-0.02931945120616953
0.034772100350071354
0.06240545897404004
-0.0259692099311125
-0.06849316401303157
0.03683138726950029
0.08327253708816013
