0
-0.030419606791223453
0.00434459272899389
0.16438259395130933
-0.007240321369206259
-0.01835773426125029
-0.002951516290043177
0.0078850709814906
-0.12661300569755976
-0.003042120744821904
0.028009092095090324
0.01684683051271192
-0.020611076492301164
0.01504093240541372
0.026314768900109052
0.007490909965616158
-0.0031647531836593882
0.007534808789487389
0.002186784540321158
0.0038652148680983975
0.007143657484406955
0.04237228485709971
-0.003752818424721363
-0.10041633236249689
0.0031195910977341204
0.02960032484021059
-0.012255048155227228
-0.03745780796846826
-0.0046111832173274265
-0.008293584213721053
0.02587700466678812
-0.012678320187574617
-0.06628851747012075
0.0076550732960097515
-0.027061431455527276
-0.006279594655560682
0.06580174955882265
0.005198601334591726
-0.01233431094459268
0.018344859571462514
-0.024006703208333376
0.0049928652369952125
0.028211958291220668
0.054092856188845795
0.028592046111371384
0.041744479051191115
0.029093412632757054
-0.010464900238922794
-0.006153865100999803
-0.027761561252956972
-0.01518201278375516
-0.020673445279069166
-0.02756934001759722
0.012054233670201385
0.06668823854776071
-0.05782846329171696
0.011208815487884742
0.023457187379092866
0.05063473610477095
0.03035735484123996
-0.05393507148139684
-0.06164419109439988
0.03566633749019209
0.018653280042580732
0.010262882238414426
-0.015896492424787596
-0.04091247815027352
-0.030361837016623604
0.0026440288201380565
0.044798098652256764
-0.020705532585084663
-0.0043367718101394
-0.01975272661710499
-0.04309527394974833
-0.001529395896148783
-0.00913290134409507
0.002279777899216473
-0.0022663574934593277
0.015432747024142948
0.0027801914126584764
-0.03133681211936621
0.0017145714754203084
-0.04414649006080821
0.03309891120357341
0.01952891848192544
-0.00014180751536959848
-0.02704446224581123
0.027337821557062828
-0.01682990222801489
0.0013829137369742038
-0.02351298135187464
0.016090512852041668
0.01234188885207718
-0.020963309935388332
-0.05680295283537029
-0.03302006679775621
0.04864892678842435
0.05751629910301155
0.03859223924325181
-0.0031171141095902508
-0.0006724707409142423
0.012539342222446211
0.00873067787589694
-0.0044068334895949355
0.019911181318910554
-0.0021386029395440895
-0.014509972325323304
0.0022813425517082472
0.02299105469906715
0.02515795896855295
-0.02229116414405266
0.019608155866047226
-0.0013233164662422594
-0.05455970879652222
-0.05003443929831918
0.0007344949078346217
0.003948336721752026
0.003456767796924593
-0.015183544858902956
0.012868056036076094
0.05956324832046705
0.024485456583923555
-0.0231232196418627
0.009444088552677974
-0.07028960498577448
0.030103098512419837
0.09207682899629928
-0.04668470176442879
-0.013604247404184268
-0.038619547126961605
0.002080077870979504
0.0077900346930311875
0.04543065608205928
-0.022656136295702935
-0.0046378381377194825
0.0553773488225598
0.006010995968586656
0.0037223405468589646
0.010744959490521375
0.03522659679200363
0.046123438992350274
-0.028689297616916718
0.03642301689669361
0.04095884856815814
-0.015821408645688408
-0.01324087297669774
0.007950916679105443
0.013639744462127516
-0.011946719949458959
-0.018105476832362407
-0.008170951850457688
-0.037965791265705484
-0.2008243498948111
-0.006838999176222264
0.025892770841128007
-0.013810942090921168
0.010473889685422684
-0.004380139336826767
-0.011211024422510346
0.021654814818237538
0.01552011678872201
-0.0019794434846494096
0.03618047595284849
-0.021334466411183445
0.0017289570969604097
0.05007548525962136
-0.013190103639879951
0.02985670981576239
-0.008966636110644117
-0.06936463324346961
0.023551804053679716
0.03072256147578077
-0.005296994655200704
-0.0174605223429639
0.017959004683449065
0.01979949087220749
-0.007482956757299605
-0.013765673785797598
-0.022954509311712334
0.006696620863107531
0.008334378560392286
-0.01134659433401442
0.015092189887757337
-0.06320324104929803
-0.14861109238758813
0.016632152162699004
-0.004290475452023719
0.01625237497461119
-0.01957648774209609
0.015776026668440215
0.004996415471720349
0.034168015300143795
0.03236246992924261
0.023500943337537075
0.02777602062797043
0.010701839575050883
0.014856548080006596
-0.003208561671012997
-0.011971030118301224
-0.00869831990121717
-0.008280915789887875
-0.01118672915082066
-0.004703021711643595
0.08899349715492662
-0.009497233350814862
0.04018937480402932
0.08706611560192126
-0.007627316158356851
-0.009340668187263965
-0.005284551970161019
-0.003293477007306694
0.017487259732542587
0.03777064939192826
-0.015804943573210564
-0.007599072885048653
-0.01592506193936702
-0.02897641187592602
-0.027749282558174906
0.016961649134951184
0.12946537125129795
0.04357275116458218
-0.15535777380662855
-0.06248809132470312
-0.00043080245429407506
0.0039734305402223495
0.009928681366698814
-0.004054075567125666
0.021149572554798192
-0.013062390321933749
-0.01613167087928156
-0.012151923013820155
0.014629091628211117
0.00736221252558689
-0.000998259729916115
-0.029698261006209013
-0.018695165355355575
-0.00480666644072131
-0.0014862114657978405
-0.012045922489818124
-0.017147364650480244
-0.01181355271734339
-0.002587023481973046
0.005102860315558567
0.002601138544634361
-0.014637631124804826
-0.019677355385776054
-0.04025144461675792
0.01797041900386776
-0.020556158564102794
-0.020575411784332344
0.01942042072303893
-0.021729108719680583
0.0032531173037390797
-0.004801072050888551
0.0018937311235943963
0.051234082589869
0.0020559846306927505
-0.00803370039410008
0.005632101909943169
-0.02502124677205219
0.013755888368829138
0.09206155556688561
0.09916262426400058
0.00490168753983726
0.0006406644421103061
-0.015645733137429264
2.6500412174464265e-05
-0.00037393079920284433
0.007609523645365085
-0.0017138236270824413
0.04555009083829154
0.03343863144411848
-0.0428042631810234
-0.05088603329472182
0.017340460198364327
0.023743894970519527
-0.011528799749238833
-0.01461238604321907
-0.037578177861702665
-0.019888862115658837
-0.045406821169908164
0.008327708755887873
0.03593895292285299
-0.03451138111623661
-0.02325994697880739
0.02334871207799471
0.02545383103041412
-0.01740924835374876
-0.011105490978116018
-0.023366680663571258
0.06020516417828346
0.022383294376378402
-0.021530249424285122
-0.011312706404671153
-0.018956229586768396
0.005437615181778193
0.014892632263392746
-0.004431570395919079
0.04542946658640867
0.028872569255592867
0.011171368046027867
0.015932543119031126
-0.02083968340306624
-0.06663445809414864
0.011506639510918786
0.0060894270159511125
-0.00029826361583307345
-0.012161618075745286
-0.013263102697299889
0.02747647451977514
0.026559264671544958
-0.03460783389097095
0.05331154157466851
-0.00910574966260961
0.022480249285200322
-0.042115213430305554
0.012531889907594324
0.05040732408873754
0.03629226849612037
-0.12060959925780729
0.01321964270683788
0.04249324159002852
0.0012051077715251352
0.014953479164837044
0.010348485045317296
-0.10566713038117745
-0.04515586504683783
0.020790893446908227
-0.011778285417794082
0.017846340693024584
0.03583528615172467
0.037027824893248934
0.06308832577792636
-0.016840015120784913
0.03790157706567179
-0.14386679904259111
-0.013583776565782146
0.018469097284144347
-0.048115470702317135
-0.02343248329206624
-0.04985330151854386
0.02898580752843525
0.015784379079637912
0.01666077744755119
-0.02738276309759548
0.04082353169819123
-0.1272538168074176
-0.034094632835643617
0.05992113380718542
0.0352105754899835
0.0523581544185186
0.0022271533789961964
0.02797767875770157
0.059353673887357274
0.011229444166453412
-0.004805213018595009
0.0048989169827548164
-0.020026293920432692
-0.029010846768109878
-0.0324830977650164
-0.008609253358939289
-0.01545073041395731
-0.02791789188197069
-0.026380700765701672
-0.02959202277789651
0.05523583305153784
0.026191412357743183
0.02038482384315825
0.05904011423962571
0.006285537498848581
-0.022208571780956123
0.0005628865107622277
-0.009153647728033601
-0.004475789683557536
-0.03215482283742457
0.014160873805286538
-0.01892965857107536
-0.05575075052630929
-0.009168518755041771
0.020989524657195894
-0.0353927397472674
-0.026014036371336414
-0.005504613854170403
-0.03044895910157704
0.07591164289328516
0.03486132673146961
0.0054209974500482525
-0.02876355518988968
-0.03224688482379768
-0.034746834149205395
-0.03476679190508781
0.01454589606401556
-0.04866699844447086
-0.022973458144049955
0.05224676615747391
0.03576048461671003
0.09808644412120061
0.1810444059893208
0.0861648551498359
-0.005395318901743927
0.036821157153755765
-0.03559888155241812
-0.04723160591625486
-0.037862651797791726
-0.003625654570823664
0.008001999564804813
-0.015491272341117303
-0.02544284704853902
-0.0045892759574886815
0.053539541352348015
-0.017684024833237392
0.00025450538194354133
-0.007016627631303178
0.028760481181512944
0.021822427616715188
-0.009624363145899298
-0.015320306973399147
0.06158266158820693
0.0063671618127601635
-0.053683728049459783
-0.02717562359497341
0.003996834537169312
-0.012820220384594155
-0.021887693762681903
0.0012774513053176923
0.1198997507862245
-0.030757226233367352
-0.03140240662879723
-0.008617333258555931
-0.023084496024396533
-0.005691752514781647
-0.09486550702812603
-0.018937449920698093
0.0024626592179334125
0.015727436034514222
0.02642476910164269
0.007049531096900529
-0.004067183005498797
-0.016674466864556745
-0.018985212337130995
-0.015540561640753034
-0.010566978790679377
0.01354369789568644
-0.004203284357033466
-0.017178605917890697
0.012403057000994559
-0.005190652632828765
-0.04429096546588832
-0.04083822682947363
0.010864440295509202
-0.010357395871169016
0.00936858283673318
-0.012254403510391264
0.028735939951649716
0.03803081127133813
0.0063301667908163125
-0.009785838724295835
0.002642628560073016
-0.017823614607465878
0.012086062542228992
-0.028484583213686545
0.012867318142705399
-0.0021121861430698596
-0.0005283706622645141
0.00013890198879772477
0.10324257158105525
0.008482342836094595
0.00067976914481816
0.0006302017075362739
-0.026452243623748154
-0.018481134695988482
-0.00246941592876432
0.01017401048084715
-0.030288500020250065
-0.01739974816441259
-0.012404015975295406
0.0010172171330085093
-0.021493014263428097
0.0751882959268336
0.016546082905907707
0.001010734279839596
0.041866437146320296
0.035669239466064706
0.017305055138971116
-0.015306146322476512
-0.0022811859354437795
0.003949883366945568
0.017469377318082527
-0.009854919450783154
0.025301033105050667
0.017571686516086277
0.03603068305077914
-0.0012976184855386114
-0.005497979840917537
0.049338187712062054
-0.15285873443608777
-0.07331528785035527
0.04453574775984777
-0.004927693943048243
0.032395934462642856
-0.029404880979826957
-0.017156570151124453
0.02047739394257115
-0.011186039585055691
-0.019533626531968863
-0.0033489331351100886
0.0017218002589246956
-0.10891351449310097
-0.09794978849833363
0.012761506181103277
-0.004547001039417085
0.021963496218475886
-0.0017831273480772025
0.0021236323418843605
-0.020112825958683717
-0.027224909843282536
-0.025901244890994404
0.09110052917239016
0.047855020573150414
-0.04019097311825086
-0.021349972383291425
-0.007901883397845559
0.06057503578835404
0.0526252134490171
0.002255468553272859
0.048877087540866296
-0.0371103175468381
0.10222694062283355
0.13349574331147296
-0.004666870007488807
0.05363715850020357
0.020637598885628022
0.008062808539477927
0.10936245657466917
0.05613949962781138
-0.057821210611165026
-0.09017641187442553
0.028556641240926765
-0.14484914031394086
-0.12268651740589953
-0.08220821644279047
-0.12730227536928893
0.02417817515075783
0.016778335612446665
0.05141743712512333
-0.0002300874822523334
-0.007879353630338867
-0.013012150828603535
0.0035387947805842978
0.014914244232277843
-0.006135634533033044
0.005548963380878138
0.04240555389884151
0.03288036773498009
-0.0017414544348113687
-0.005566969486024203
-0.006837429064579672
-0.020051955986982416
-0.013916896108875794
0.014434761798442912
-0.003088145967719058
-0.04574793213164901
-0.021635513433588795
-0.006421123117699867
0.027255171109703387
-0.04051832809549951
0.053217531974314114
-0.019616371228470847
-0.07576267066045947
0.0353572084289034
0.1038386615453143
-0.0029301958923270807
-0.03503756337468535
-0.02585532163297775
-0.02029885014351557
0.03995437547027464
-0.023472463060391472
0.019187808225204817
0.05663187685241355
0.02435535790710782
0.027696014321561813
0.06229510762209871
-0.034543536101728015
0.014709867544338624
-0.0020904415225864543
-0.056779335894613925
-0.0007099913483967674
0.02177777367536266
-0.012832467629725366
-0.01968503058593429
-0.011315674226434843
-0.009251106889281675
-0.003147194546034442
0.02012045681557302
0.03752360347211206
-0.006537118195168755
0.010311842668610235
0.0036228608534347373
0.01576191936732174
-0.009692263025845908
-0.01300742006953361
0.048603377907556485
0.005052656493711187
-0.019419465746263076
0.0038310475881156705
0.005868025624534154
-0.004558294151801182
-0.053681405894518315
-0.013622603795044486
-0.007444649939844559
-0.033908349318164006
-0.017919378508129222
0.044982157213478514
-0.002241467787004903
0.00499233372574645
-0.015701007452391613
0.005739299843199793
0.023525475499348823
-0.05119106571246349
0.03783570389624583
0.008977832700334896
-0.02781847049314058
0.016878118629660967
-0.010132915737941508
0.05861464724449592
0.051713052501567325
-0.017148024862694813
-0.020702719079631057
-0.0018302314757860777
0.000280835365650528
0.0012794151000965115
0.0028564049239325345
0.0007876222451870548
-0.015906648173577877
-0.013184193064171727
-0.0357752374244313
0.02076567559736901
0.022085318466098604
0.008713321703304388
-0.03537725521971851
0.01508431383419014
0.00032269372867289875
-0.00829136762216077
0.009290740154567524
0.0022315773921243245
0.00760116504369109
0.009271631675087355
0.038916732246437234
-0.04617747501504483
-0.03822668074096581
0.016312524546998084
-0.04867349114927004
-0.05476687205186131
0.02952462458612162
0.0008476991542999171
-0.04394899441908154
-0.007654148795567942
0.0018065203506730928
-0.012210983819990794
0.06422835720174486
-0.0050479345153923655
0.009227207468230598
-0.07090741983933102
-0.02040117342389877
0.06541933413009002
0.07664430573541668
-1.729906410270412e-05
-0.0242977214030752
0.03167616503329268
0.003323575390210904
0.06482364946465215
-0.014717426147602014
0.03923633842240273
0.06724817374915264
0.002900442709313139
-0.1418118141850539
-0.07271416442593574
0.010739477600443796
-0.013351385535182848
0.00896682661011144
-0.007879911635711424
-0.019241821324778766
-0.05174388062453574
0.036158242996840194
0.03770242844061523
-0.00816876935062636
0.03836860474411758
-0.12989879305889554
-0.06310928096160211
0.04189018356424691
0.0299699115208578
-0.001380679580380598
-0.03393091040300107
0.03494051952966147
0.03745741930687422
0.004965321045549929
0.020971087512913617
0.03002785119017822
0.0370092294059176
-0.00017780685761678935
0.002484865771855601
0.04183115569978558
0.009095528125751259
0.010649775509870925
-0.0028278085448909486
-0.01617012153801811
-0.06858254499743666
0.022526489447304822
-0.01411426358350829
0.09052233530255331
0.03858322389080229
0.0017931870333899493
0.038881663555470465
-0.003128438609093035
-0.057808788031148355
0.007512328066803535
-0.007908919445664929
0.01576967799528344
-0.025474438425465925
0.012092334522088419
-0.03042219192292623
0.04790471573997426
-0.02931145547958407
0.015813865844704754
-0.08293205259003991
-0.09188888261207964
0.036661919655141505
0.03702050530915668
0.00528403628030562
-0.04381170113901949
-0.0008957818955318006
-0.011559539706082776
0.00642761340980359
-0.008570506870477395
-0.0005765156892587163
0.034832047849393616
0.020773703898715492
0.07142623687398598
-0.012409506293008275
0.0025650519789374004
0.024087152210137
0.06137496295234926
-0.06359715166173775
-0.08512769012660631
0.008417585037431684
-0.0333865415460246
-0.02884999874321752
0.029916424830264663
-0.06692285049404816
-0.0664556031283623
0.0889363193192812
-0.010954218387413946
0.02903940658668945
-0.020489689737080673
-0.021436223293243475
-0.03841697147590068
0.06248288423442153
0.17648290916617995
-0.1357817360400322
-0.012143249682970822
0.02081456604684274
-0.0063848528795594165
-0.052479700255956704
-0.005527601669229043
-0.0052093239428831865
0.027006983954749098
0.03643408049702266
0.028937200554458954
-0.012336186987629161
0.04103425101734134
-0.08566978324690872
-0.0887242690675997
0.0702006025214376
0.11184324737192516
-0.00993054505329113
-0.015997219682228586
0.005984075761683758
0.03408485916456156
0.026309185166048174
0.011951111548823352
-0.03556614525639147
0.0119177123910981
0.007406959028134944
-0.037106696673620515
-0.05507830360923884
0.030079856267035614
0.019153570725333857
-0.05095061780980073
0.03351982520983242
-0.0058961175381616205
-0.020818093964969638
0.013422808032177885
0.017967853592737358
0.04657288675284002
0.04685388529488675
-0.009190611771538747
-0.046780978859964704
-0.01219573046543978
0.05511057560288572
0.08366402142809504
-0.08882576451821923
-0.184169797365723
0.014298823248682467
-0.000577334996991221
0.00616361947070847
0.012400641977759802
-0.00226431441674222
0.01401208662127321
0.015485323411810376
-0.009405983091924508
0.008810544494520208
-0.015612970147813971
-0.0321978552789214
0.05845930584327406
0.10507141351367211
-0.03456118440344579
0.040305919818361374
-0.034323633781742906
-0.003727834277453746
0.035866241968389674
-0.021825940978308415
0.015879834823804916
-0.1164204156160507
-0.020465331975904173
0.014921161261508062
-0.01616445098713942
0.007667613827388397
-0.046854167803833814
-0.07445540827541892
-0.01254480028517373
0.033541451822312905
0.050364228950337715
-0.03795107961228861
-0.045630457199199434
0.037412628576892135
0.0031441854550950175
0.009931314805293325
0.14823525298575035
0.02577219497943249
-0.008698372187758267
-0.031221027251188856
-0.005139459983720879
-0.019131204341479708
0.010191073660441667
8.02235611746776e-06
0.0034246537288090146
0.017363002505081635
0.014867489505567025
0.018187747168966033
-0.020107228665385238
-0.06691257224777276
0.027640723740259433
-0.0137160379008734
-0.005541717334807973
0.02017624076624562
0.038765063104462615
-0.024226149604902908
-0.011692583600519118
-0.010186224017515589
0.060409111202892336
0.07052732133862007
-0.025750159603629093
0.041284917906327344
0.004202686257693972
0.018250546946461752
-0.0008205117669385128
-0.03501681352674979
0.012471374692711855
0.014348587904685838
-0.013381657780103489
-0.01971115267179152
0.008780587052144856
-0.03885871189278086
0.006096437021903839
-0.010746554336864278
-0.015940547274922175
0.009417106301672336
-0.000511573219599928
-0.06227473462581645
-0.08929491296821745
0.010389258066535545
0.012608563472041864
-0.010740602501506656
-0.045030039499905625
0.03430719334561777
-0.008826552950665145
0.03414680862685156
0.01996371697466159
-0.012235501707726651
0.03664433939911308
-0.0017499801371987293
-0.02623662974269977
-0.004026188957977805
0.053100399633328875
-0.005253849373854876
0.02306478389117998
0.004424060732201037
-0.020161660737637855
-0.016885779716009585
0.010051886054304833
0.023697515372609522
-0.007639120527103341
-0.011131293823792434
0.00950476379689406
0.0008786235923316844
0.016890328844863172
-0.03648260236790612
-0.029045427899595782
-0.02330731160990561
-0.013011499924319865
-0.014381739877973936
-0.00036455325157762694
0.019096528878579416
0.013850160708707478
-0.026641855574503815
-0.042059884110220984
0.032132684186437305
0.03900351113735184
0.009407024011013353
0.003650047210443065
0.005520695684337134
0.006779555401450276
-0.0026733590422590636
0.006849139014753466
0.020413727016617207
0.011543978855136331
0.024994585528568508
-0.020759088528893566
0.008487868479616797
-0.040007534494464606
-0.0034278263783521887
0.020817549453169656
0.05507339802106787
0.01114219083945269
-0.0017395473066822416
-0.04797845990570082
0.017282199280708045
-0.00935699154881019
-0.0070275555968097045
-0.02647727145942835
0.026226205836102703
0.014330700064563924
0.09104692262510801
0.04755993775001566
-0.05535020827566166
-0.017545940021563695
-0.01743478115975791
-0.06284177657859757
-0.024918745029375727
0.02357090498274445
-0.042060008636688996
-0.024261652868092
0.03394370153060269
-0.08752690460179921
-0.01414353411072501
0.012889102856564333
0.019830134891624343
0.04746825884047678
0.001756828996628883
-0.018968236181888653
0.04752061391049305
0.028526683478285474
-0.044455968498699636
-0.011575803755906515
-0.012203244982750818
-0.014391072782416664
0.019918672940001998
0.012489663282162555
-0.004629539850122766
-0.02277044514481971
0.06554642226473131
0.08884450897195818
-0.05076130986176494
0.022451863203226195
0.04237111917076099
0.020167791367099303
-0.0011158101606787915
0.01539960169128641
-0.0474909036229848
-0.07206008697743833
0.006400506220099034
-0.037732163863390185
-0.039094158680557364
0.01990397994112991
0.009985382708577701
0.01763025712956882
-0.010708856383020545
-0.022944782935461167
-0.015029801898588047
0.006614262561526568
0.07152743292967959
0.023902965127328032
0.0056615079333159
0.02778125834126273
-0.0043264007170654125
0.011668764905108943
-0.03802726162577431
0.01744163929791928
0.009127060954704546
-0.024867185899499534
-0.019764952317027837
-0.025344619810486566
-0.016906835891946026
0.02329034495994079
-0.030055997570997427
0.02074558226339187
-0.1318822697894879
-0.04994664231935157
0.025992728133763927
0.00721339652240561
0.012004268307943393
0.003234270474728059
-0.05645927951772674
0.017806538755176956
0.010513256620204529
-0.022060085904325986
-0.004996236532972921
0.005830651744726749
0.012748648497401675
0.06303896248996806
0.11856244902143381
0.039496348706952455
0.03522654848607176
-0.00536268555412735
0.05321044471343176
0.019519876536561766
0.03624875661422891
-0.10582261596142988
-0.05448769741143263
-0.0117154168201264
-0.012026797844395736
-0.024676014241808826
0.013484982420321685
0.01942251429068889
-0.04175221985151175
-0.0028556078681567865
0.011664518915903215
-0.00020857154170741916
-0.011513168611506632
-0.0061707666437312006
0.008572471807022015
-0.018796643117412602
0.04370918092641042
-0.004808867316661867
-0.04843875002313101
-0.03726858706376592
-0.0023767880708058116
-0.009285237569829888
0.028413296723728085
0.03139614363138226
0.019163930195730604
-0.020957806144788475
0.017248905487250672
-0.0016498829660299941
-0.0064827158774027034
-0.009149837387282887
0.02422775430936125
0.0034581768520594186
-0.030532692297341315
0.0001884661007521541
0.003125683603104039
0.046360855058904554
0.007034335608367288
0.002337422920845519
-0.0062076931217108925
-0.011123334399510083
0.007335719926304448
0.023294658220817853
0.021163050833595674
-0.028863698531162853
0.020252044603616896
-0.03130568807349972
-0.01217202343373932
-0.014768560717305524
-0.024820605731323993
-0.0006186381148987745
0.042294843318415605
0.021192786197087428
0.004896220419035839
0.015670433061777577
0.0014289424132359761
-0.02244171531952912
-0.02740332716566484
0.03562001683845317
-0.0006249105865134184
-0.029195662585746587
-0.03882572586500455
-0.013746334100118331
0.017630234850627636
0.02753231473876644
-0.005134041838399081
0.0077898981968430175
0.01875597220972237
-0.009486734853899998
-0.02885523243221242
0.07480847879087273
0.0027284925267326834
0.01354688747873763
-0.0047011647398216465
0.039085410857026374
0.12112861409787652
-0.02367652452310442
-0.0005356545421062702
-0.01467012074515713
0.036312477893720115
-0.07728987256882781
-0.0794792191178818
0.023411532527361004
-0.06007229668175541
-0.21774437351939235
0.028304903481422502
0.06810504871810648
-0.00832284628409677
-0.007283700315764309
0.03480910194535264
-0.03149923949767502
-0.031207691125706385
-0.07731052439860975
-0.07314842778459187
0.029720008361021354
0.048590255160679566
0.06183957481513876
-0.021917347560476048
0.00976703549605125
0.010673311666476153
0.03124773142860099
0.05024831947556999
0.04638539432601505
0.0010614782009832346
0.03138834617437899
-0.01692185182910144
0.03667217693822889
0.006562358111452334
-0.03220510939078729
0.00021855018785787842
0.0014061579029862076
-0.0357114156495525
0.03009199590308921
-0.010620013750658498
-0.002280024110616705
-0.04852148417895924
0.028273965719160007
0.05653681097165675
-0.03797135751219153
0.023217073602079214
0.018424046033020208
-0.028060804851147918
-0.0311060505083999
0.014962155890828385
0.06332268850715786
0.03449635623826535
-0.0031394538788762252
-0.03245372938201959
-0.0009196423308872275
-0.027145537344633208
0.02785438795971951
0.02376836732220355
-0.018734600086447204
0.023845097476119254
-0.012467300350749484
0.026082074502937234
-0.005355285197797017
-0.04046673057635815
-0.0033624381433946244
-0.02150336194993448
-0.00698769277298399
0.07622138140034122
0.017781950974721385
-0.0864097486454325
-0.10880352518903755
0.01994706006974121
0.004829475517126604
0.05573920953943166
0.00642812202853393
-0.027559068041742272
-0.008210322080679998
0.018552637863420936
-0.04544723194632512
-0.03593638283523361
-0.019099272688789876
0.2190396440771527
0.10507524735158735
-0.0353814039821825
0.002700167367418154
-0.0036905153662336373
-0.13780619211163905
-0.11434900404736188
-0.05115891274831534
0.02282288556955416
-0.01038983810603541
-0.08716555613601897
0.10217989188269137
0.03784376925366325
-0.00895051296208223
0.02303521904301404
0.015389693517304452
0.047606435450595036
-0.001436682663327515
-0.030243535445129307
-0.004888290547727831
-0.013706274258361706
-0.03187393367242479
0.004490437468352754
0.008549943914943252
-0.03269584525330125
0.11992258335015755
0.054292155157477213
-0.022270947450805306
0.026960015381515573
0.031156282506141452
0.04549946571728946
0.06884892016496717
0.00864211794991388
-0.021363896119622593
-0.0030039915944982524
-0.030832239707590935
-0.022535016929117007
-0.028690130205631933
0.012981531404586506
-0.126514622579442
-0.12384229308400979
0.049772773003548466
-0.008662759411281636
-0.0031511916596192392
-0.0276828085901391
-0.022950195904343888
-0.0066387909919734134
-0.09371234413854251
-0.02843739362842656
0.0640747496313832
0.18346008241840112
0.02564752857107468
-0.027896393137345633
-0.013200283945057357
-0.022370445113726985
-0.012598986454648436
-0.004630557983351914
0.02869956040757862
0.020671338406130123
-0.016269565839672637
0.005587724336569283
-0.005346593015356637
-0.033851291939754634
-0.0038724723850416076
-0.061635829408148386
-0.033714353920437014
-0.020611451279143343
-0.007806111907411764
0.0438552300293447
0.12447784943379549
-0.013984061589176608
-0.01714854461371769
0.08333295642608665
-0.004935189761313691
-0.019098453466035628
0.028289253251328285
-0.02123408382925433
-0.013846307764284985
-0.019345951476078312
-0.020258372073164915
0.019409635213912892
-0.00673096161942486
-0.0265503849628752
-0.031068505324442296
-0.003902772127118517
-0.0712817360055103
0.04048489102093603
0.06494788421367786
-0.018667746404999297
-0.008146655913507364
-0.02243075258429987
-0.006074358263194576
0.011606299224170369
0.00800843386576836
0.19402686920605186
0.03241486194680922
-0.017544973963064453
0.018343428955680474
-0.05248724942201737
-0.019463043476854177
-0.03247502674702107
-0.04952263329469585
0.14609261037274657
0.06818782063503975
-0.036492853106383887
-0.04832271602865141
-0.009455265637993279
-0.039497136964987585
-0.03966792381078202
0.003399424625148851
0.009936166174616986
0.009369672923496294
0.04771006876574911
0.0012495849783363076
-0.021211136700946064
-0.05039977078948122
-0.03702484045992237
0.02345531048906261
-0.0007734186586205135
-0.028609726746190275
-0.05590886988468644
-0.005808379109756047
-0.017008323760957417
0.04447710078724718
0.11045832683254203
-0.03286822588380803
-0.003283337384422791
-0.008613339163700108
-0.0184857504191934
-0.022768921022439357
-0.035545686044315676
-3.920262834858913e-05
0.030124099880787812
-0.009738684738135708
0.016344748536883027
-0.046869659854998996
-0.020883789956920154
-0.010100919587367809
0.0814564889482742
0.0310711222556879
0.030121488035280756
0.020430293094388062
-0.015728448665455006
-0.030679128620324965
0.007452600061416381
-0.01037944145093332
0.06931178365021919
-0.08058955537200747
-0.14995779909209542
0.13060161282985094
-0.035476002763832046
-0.03350529678021463
-0.012621523703700425
0.01762322040846813
-0.039653670688877304
0.021770926218056968
-0.006465989858441778
0.11131072617203269
0.11893369971845667
-0.032073364206998786
0.029104983014255178
0.003095338536873785
-0.012604034334516939
-0.12476481885456278
-0.03755983379403949
0.07714009967405204
-0.04231398910270771
-0.014421051199505427
0.018617654590920435
-0.024571074416498615
-0.04623188179995589
0.033560316585268854
-0.007713410977550297
-0.0035531523045242625
0.024159190594138045
-0.018388645930400654
0.004762504494148719
0.021332566349669638
-0.016856200374571632
-0.009409940189796196
-0.027134399098992366
0.05486685148274596
0.042361107918237176
-0.0018322263909008906
-0.004213978400358989
-0.001135665410662794
0.02377862521301054
-0.0203776711622786
0.003695123375697533
-0.02315085182013772
-0.00271429282480367
0.010352747529042541
0.021730640492509112
-0.0022428473551794675
-0.033487489321312375
-0.0021738445213913596
-0.03349261683879111
-0.04478111993525742
-0.03681924339905239
-0.012989963537144449
0.002766145160327678
-0.0586744209386234
-0.060676307204729336
0.006383276968271462
-0.0574395639406982
0.14356127086135106
0.17012393462339878
0.022996914495318706
-0.021790762827536572
-0.029362945384686392
-0.04789310584946075
0.0678408828512494
0.14454338245320336
-0.03810064447727504
-2.5084873331272286e-05
0.020961357107918587
0.004332831674283775
-0.025145181080433707
0.03196570714315694
0.004307933818438679
-0.04082197451925312
-0.026881246946031803
0.019532007689730038
0.010933482700376137
-0.08761854104145766
-0.04255420420029258
-0.0043702615088134986
-0.04854476122250912
-0.0017204487055145273
0.0006412394663547978
-0.027417153133409113
0.0454197680769121
0.03221652977275925
-0.012775856305439504
-0.03543821518693516
-0.010934818929503806
0.06203080214923346
0.038045476971088996
0.11204877320924445
-0.02184139775112826
0.032516393762799745
-0.009714360907973953
-0.01441910958939376
-0.013828913454463833
0.003240368459928506
0.02961762965141374
-0.01741509761870372
-0.02837259207566546
-0.02378420175246099
-0.03880293529257832
-0.0001146824027981946
-0.07414815407322534
0.05578671273119324
-0.013137242390791438
-0.014221813905409914
-0.006709091006118426
0.01627726283675705
0.0164305657136474
0.007384176336632817
-0.013508236679089392
0.015246123548088833
0.03401094032256441
-0.05674796601804709
-0.001235081209582656
0.02870823716969277
-0.004146785385895471
-0.014623957762386631
-0.007575923022711992
0.004028306658132844
0.03587472383906995
0.013485518130168623
0.0009638260487157817
0.029158660161057323
0.016446131662218633
0.013393990596348885
-0.013515585335045304
-0.0199777933419951
-0.025929254464997935
-0.03474740426544329
-0.02355563709974155
0.013354753217180897
-0.013619038928190282
-0.023915453888739772
-0.029601044640057503
-0.008184809010033678
0.03371128408865534
0.01954267718745666
-0.002306256564066774
-0.0399301935697938
0.002104123209668131
-0.00023247222384888773
-0.008711160183010193
-0.044992253393023596
-0.021581339413793657
0.05989325992251254
0.0576765988542193
-0.001647951347914802
0.03859672863323034
0.0293650932139168
-0.01995874573876702
-0.008339986770273217
-0.009748697862229963
-0.008768441030188116
0.018402217697521234
-0.038316767294384685
-0.006559056086465301
0.009095855969917943
-0.00039197990673729217
-0.0010893614256985717
-0.025487772191460954
-0.007785042473177661
-0.026478702552437478
-0.03449694199803226
-0.028330604362741662
0.06768940347178305
0.1346417320665378
-0.014388761377443706
-0.01342033846205181
-0.022406318699457965
-0.03218231477785744
-0.003856539160042167
