0
0.005773097653100611
-0.008998757537208867
0.02201772350887897
-0.010381976447399773
-0.021016677990133587
-0.00029783831320839507
-0.008853662933737391
0.028703073908403143
0.04019023276713307
0.02146947309373877
-0.001235422184323974
0.03834971084364808
0.00851393508052677
-0.018233271830770958
-0.004131300376089043
0.05692660981194993
0.0364234093111632
-0.018705371712762587
-0.0018609880553137894
-0.05604380482540695
-0.055724411126893955
-0.06594192032192993
0.012586403338709183
-0.033582104809156674
-0.059080019791331664
0.00780832973489853
0.006269714932730339
-0.01492558799525776
0.01971955310863071
-0.054092126506858317
0.07448830614987792
0.1425413599032531
-0.05795418962311771
0.0054654706438107895
-0.01492395321490906
-0.040194958498556844
0.03064790564154102
0.03202872906573896
0.013056099973311022
-0.0038325219464509616
0.030537909733211327
-0.009514335133181869
0.041604420526544915
-0.05623051149474477
-0.10064001711688964
0.08599635484631576
0.088970295544682
-0.023657237636488034
0.0038181155262117386
0.00565564862325484
-0.043536781470711716
-0.015224937942140996
0.029270437344043082
-0.007896727170762662
0.12305148847753328
0.037724942598276606
-0.07815626088570361
-0.03938544735722927
-0.04047356400377971
0.0010137606382648865
-0.020171385373896046
0.09189098159059841
0.07921807478545202
-0.06085801043274687
0.022381965437881634
-0.009467832358062716
-0.044015142945200494
0.04122597518488629
-0.0628987296335367
-0.03330734455775253
0.04579912344853448
-0.17252723882911686
-0.03896861096907725
-0.004401851065803011
0.054975524914454225
0.12050039281884604
0.011550865974632174
0.03069351950517465
-0.035248142050514894
0.02115746513001373
0.014009214164050756
-0.04687903483448789
-0.016184083547689854
0.01982952770978908
0.029493405761657158
-0.058176252643729325
-0.10588123118682106
0.06817902621307043
-0.03265182096287272
0.013140572113384758
0.04025013042462561
0.032897948626108175
-0.03664450820729503
-0.02466808752024711
-0.01604032411065108
0.02525858150131328
0.011116382773197752
-0.0044031775190083765
-0.002810451515940822
0.026999883634771606
-0.006109544826648835
-0.015592066694985016
-0.01514419241139959
0.04061338105748032
-0.037669132601225605
-0.01160527832800047
-0.04572791571624658
0.163354757641005
-0.047302152288861754
-0.09876845665403954
0.14205904889248794
0.04388406945104552
0.0278180196754196
-0.009242206994064025
0.02666604304992586
-0.03209632973688407
-0.0056200708629594595
0.0008108323407689265
0.017087834936883515
0.024009775865407035
0.009559070295747533
-0.026858055511756067
-0.01317707177927753
-0.09540520402085258
-0.00410043839619457
0.022727870538427352
0.01695825024389475
-0.11418900103867839
-0.09512902219187741
0.06560195309383121
-0.03955435488889233
0.015685727268901307
0.0066034064995412365
0.015685768972392947
0.023986792408282488
0.054505967605824025
0.003943046298078277
0.001496158336476839
-0.00593471507755609
-0.02600655100229571
-0.011297748274113992
0.0677019557755397
0.061152584854592275
0.034087107252232456
-0.02663799154157703
0.013114118526459525
-0.049069914958702804
-0.08216987537612477
0.03931747258064083
0.025476225660063634
-0.01641107311593
0.001840133742193659
0.03466822151704073
0.03713681279986794
-0.017615779435746652
-0.0022029898834727128
-0.02047229120248434
-0.00018981282246105443
-0.04666213812829091
-0.02630239632758767
-0.005603723979042776
-0.0037907448451036337
-0.0013539355492775678
0.030794366762570677
-0.006950069621946921
-0.026297347702165352
-0.0002698970069594824
-0.05001739422781812
-0.0007559062344198128
0.027892447426390826
0.020962848976982213
-0.0037665008229009543
0.008017046650545867
0.034165355406733565
-0.005742835889568049
-0.018681739755643537
-0.018306726625616047
-0.0017605195389719783
0.026445956357998054
-0.012579076142399242
-0.026758876361338002
-0.0553699172445561
0.005698265483154786
0.012166366734155111
0.008424837758465297
0.004880199283895924
-0.08321618913381353
-0.017514483101821857
-0.023331991227655145
0.0035373407718975363
0.06695892901128385
-0.0048165809571315684
0.010370088639611832
0.11382289266414365
0.021320376655584432
-0.033349267906207306
-0.0393988650451144
-0.00774197046639711
0.0070825414341900384
0.005758928992000731
0.013595043332879439
0.04358716707767392
-0.004727534816897061
-0.03711220482641969
-0.06057386219844134
0.13680168184333572
0.07436886606781927
0.06532666479564886
0.06066867820929311
-0.08625151252667933
0.00428165464595995
-0.017223092438330555
-0.027837842277068824
-0.03920467883370437
0.023116478444691124
-0.016557671243002635
0.04584953923601811
0.1229635768856168
-0.032788357419379265
0.01611141671178674
-0.015947985053121252
-0.016351079174370876
0.010254703967874545
0.0002806874985537917
-0.07208193858293006
-0.11054605046431147
0.056552637459661936
0.03584748596628751
-0.01307615086523895
-0.09985381161753158
-0.021871815944726668
-0.05944634842202002
-0.021903929617036532
-0.05901489865069407
-0.005333268842041117
0.08432691904521411
0.015924700231073292
0.031212301278661897
-0.002572806248965592
0.0791639292163858
-0.04528146192634851
-0.033858124714640794
-0.009232527996915077
-0.01466894421785462
0.005432692360991672
-0.01860366163234067
-0.019821350148920988
0.01566537155135356
0.023912796438473913
-0.0014773708946341105
0.015305409114338862
-0.0023479747597995567
0.0016996478957049506
-0.01896749220313232
-0.003915067813585143
0.02042591944232844
-0.002254669207590689
0.03485960538902656
0.01817574111501268
-0.03976685490804146
-0.005272911188135232
-0.003257360989413085
-0.012241798157905914
-0.054465842044068985
0.013234047851525892
-0.11327493593664698
-0.07271226375515574
0.00034919834182968115
-0.05673087534812806
-0.014452217088769394
0.17120089142967188
0.16999756985598125
-0.02598905758958804
0.04442321577165842
-0.060741740325007273
0.1401663762362027
0.08923968396074573
-0.051822279034489514
-0.020902427851130955
-0.0443488419427507
-0.018468466698318163
-0.016430302946233894
-0.03452560331465648
-0.04052955198736167
-0.03388567641337501
0.007310500140892166
0.007361993738859589
0.1150114877071319
0.09037025781097092
0.03153203032512714
-0.017160359147667035
-0.02462157901388419
0.015302133122956292
0.008276281226663853
0.041216265292179054
0.0434837425637356
-0.07440844455262463
-0.04349440984822033
-0.020393299102542777
0.01411297297671477
0.02285429156889971
-0.012259266412022001
-0.02443073047388346
-0.020184574176460687
0.02813492379990711
0.0016372088865016885
0.010994694226068314
-0.013132767450623846
-0.040311141947670194
-0.01799386935219647
-0.020676044380872834
-0.03306270550578587
-0.029017681391838697
-0.014148127515866997
-0.0077192720331859905
-0.0005988758834422455
0.010080054847793974
-0.00561520909625024
-0.013176321106891323
0.013882588094047873
-0.01123982305004467
-0.01572849438008263
0.029993389383924474
0.007818212995461734
-0.0030827308924278127
0.007827522420991143
0.010901786452429956
0.015417977254989468
0.006024853863247735
-0.017084110873654614
-0.013599225484125158
-0.010154980327632993
-0.01274205102355463
0.003969888607622351
-0.0036164898647710352
-0.011481598818706027
0.015185166591619413
0.01976669037904879
0.0018180014081339145
0.02345997611062302
0.019048434877489893
0.013734845812374464
-0.01137072815563112
0.015351070763345418
-0.014529968909217133
0.024471270746940547
0.05166007077001706
-0.021785856502398393
0.01859073957805111
0.03946595691785938
0.006195390514680372
0.00370584183314612
-0.024922359250341752
-0.047598590466385954
-0.02131721251253173
-0.01994075427305612
-0.037034597208290394
0.01266355788652759
0.014351641013298435
0.026872492371783012
0.004354470951470085
0.006709704850425153
0.039039234126173813
-0.00638880126833381
0.030861248848708306
0.011110723586161811
0.019252340493170983
-0.03152144266565732
-0.1386989199041073
0.022801181049575597
0.0009450236281082616
-0.013829668658545942
-0.02063481073785247
0.023200303791984705
-0.026970309659164735
0.08099049327601067
0.020973211084471012
-0.09195244041274825
-0.005005651658897753
-0.0054838677114438916
-0.02045055731187183
-0.017674974918973883
0.003344315713356132
0.020757517794755497
0.016563416441688104
-0.00041996320468657615
0.006438278503274417
0.016798027933741733
0.03929316769437755
-0.02040809634020458
-0.04562223544874347
-0.01658333773918715
-0.018901264815088557
-0.10588276553390573
0.005331407246586704
0.01783526094602314
0.024105273729106844
-0.006456090010387372
-0.013951074775847816
-0.03433749082205666
-0.022869531954190822
0.11435492917180555
0.035909507352866334
-0.05318542558168663
0.017891894623380086
0.015354088054210843
0.005864194131642035
-0.011533082312194796
0.004349755814838582
0.12647634047519055
-0.013995799673895632
-0.018268133209195486
-0.024291673549609413
-0.01658584554566404
0.030160898996996994
-0.02663169446332048
-0.045131736522241096
0.011846813373498797
0.014320936370053666
0.006409897476407674
0.17174524598803065
0.07710004834694421
-0.028048411359521047
-0.03077055440338461
-0.03696798220519028
0.025053985801681923
0.033323770549626174
0.020398792290428795
-0.031238670521162255
-0.030689106533037944
-0.00011113441678445029
-0.001940171569501744
-0.03444008299578006
-0.009686238043359214
0.032819011334413395
0.04112810487129375
-0.012351118893677413
0.01008838517587713
-0.010679338952655477
-0.0250071290626573
-0.03783905104981265
0.0006254101148882664
-0.005522094216943679
0.0012799536046586772
-0.01583598810684042
-0.0020573205578908777
-0.08080140907483925
-0.05537249379878732
-0.005373767391762535
-0.0036245268408806853
0.020217068204254177
-0.025489612029427886
-0.0074059742783205585
-0.004808515236778201
0.02309154201913792
0.04146141789245877
0.012304499749489117
0.003482272396875713
-0.02131981653112459
0.10362095747809189
0.0049119182113634445
-0.022820245742438586
0.02024139930625907
-0.00982882420257572
0.030225248027959405
-0.014245229141066672
0.024599427270288115
-0.012963457612882534
-0.05484309394122488
-0.03112301276631714
-0.007460546629719871
0.008055380310482958
0.07189486705224711
-0.05919295619116004
-0.04698931472164852
-0.01883287178425829
-0.0068926064921626074
0.0020404310652851992
-0.0046688962131295145
-0.025053041390850163
0.02803630360253519
-0.05510028596347114
-0.01418193322821927
-0.014308992108474222
-0.03747418594074874
-0.03722939726875328
0.02463603994599951
0.017852033934974962
0.0122599971745723
-0.004517304388113749
0.01863949021148764
0.009754222825861244
-0.023320085863009182
-0.04709039071866166
0.10583906001557135
0.1643190628071819
-0.025542186990475474
0.02543715419021955
0.011460515952756342
0.014854266515203765
0.008008688767144386
-0.028493886225855174
0.0019374969175476365
-0.007683544312916513
-0.026018063701887112
-0.021587105459994618
-0.024656661631233968
-0.03232727549519373
-0.03173120949565964
-0.005944783905537479
-0.02166339334541983
0.018227859062105337
0.01737718171696615
0.038226630138938254
0.02366585928401085
0.10248302520398271
0.04637569217765035
-0.01569479136133704
-0.003822718087659075
0.018886101233366443
0.0024552318810794433
-0.013720151471936523
0.06822233131733103
0.05563802181570918
-0.03877641201915519
-0.017627821184321255
-0.05088660756512249
-0.029367500908249855
-0.025590836783114617
-0.04049874593407367
-0.0347776665757902
-0.026889378341743805
-0.03132159024172278
-0.027527910323769618
-0.00835517460744675
0.010788952202841711
-0.02590440567782475
-0.006201661890534884
0.03563312241743416
-0.007347484416214031
-0.011318895543796559
-0.016225512417447362
0.004159054824500813
0.019558547930312635
0.058623314686909136
-0.0028277519333002473
-0.010626023000307431
0.024546467215200086
0.01655554553748133
0.043295314025870744
0.005473050974254146
0.030154507190162435
0.034848582310116026
-0.014728940216720637
-0.021127740712214644
-0.009567823570069262
-0.036086119026403976
-0.005328110788165068
-0.01990323796862924
0.029516669767083052
0.016264775039446955
0.0052906982163059505
-0.006624066363704651
0.004677322235472017
0.005491989718771517
0.009519042258585818
-0.020376147114045583
-0.003896283280545568
-0.06965345886961716
0.08296440593968
0.14230697492695357
-0.06580488958579793
-0.013420098884198088
-0.009112699405276899
-0.08274204125381579
-0.07998473042839906
0.027830633058411436
0.0013501572704373568
-0.015363408126750615
-0.011478491793426077
0.05068458797634486
0.10209752298540388
-0.02682757255391227
-0.020416820683654153
0.0064198951396230025
0.03498371295919773
-0.008238408640179221
0.02245950904266321
-0.13379873815130092
-0.12455250851822681
0.006052701031019797
0.03741663641157988
0.010028021334373353
-0.06976149214449924
0.03204596940287661
-0.003898522370040194
0.005109572748877039
0.02575775187824512
0.02520451301972532
-1.3302109117882489e-05
0.009250616759336014
0.017927013045373932
0.013147639613233232
0.022638346991132638
-0.012809553230904628
0.008034750955228353
-0.0023233617875462144
1.04275943246946e-05
0.01911041940912638
-0.029208124086102544
0.021612417760089892
0.05627797558654838
0.008804082266703919
0.016854165168170936
0.05441230785112112
0.008122167181489991
-0.011920443884536485
-0.06671702404272704
-0.04275970417329404
-0.044798679662351806
-0.04464181541265517
0.019154336658318432
0.016358701060227254
-0.008964575986284588
-0.014230223987157285
-0.011239690644602666
0.026057930335480085
-0.01045586649511589
-0.03485869073208247
0.0412803696479046
0.02966196748576415
0.0020593591306464682
-0.027581887497447177
0.007107974385767723
0.0036250347479700666
0.03431097155292068
-0.005744496252689186
-0.006393869958644
0.03251758558019295
0.06646932919665216
-0.05961944475242006
-0.03755131101106822
0.005138084296879402
-0.029061311503623347
-0.03892140896866534
-0.004419323259554215
0.0001069783086806456
0.009075428243718897
0.012595273874007046
0.008139109524249465
0.023989851284212115
0.011873543259834522
0.12983021117496418
0.08476885884315828
-0.007524299234440776
0.016003503096630046
-0.013077942649084257
-0.03521228034751846
-0.01446226329529368
-0.11829458005999968
-0.04973517351605918
0.02387885782433652
0.0016288927135652662
0.01403530573930171
-0.013538960039214164
-0.01046211022030162
-0.015473946242573273
-0.016547700969164046
-0.020802167677767828
-0.014698960762965594
0.03257875205136555
0.014401382776790555
-0.024018173275283754
-0.049207756840848126
0.0021383805604151965
0.034927236101425285
-0.011717806851201627
0.0009900777724184261
0.022934439861526698
0.0062236184400494
-0.014962913857222197
0.08662066754631605
0.004804066907864206
-0.014978235797237279
0.03378635152483322
0.02661646515554103
-0.04552134603293143
-0.1524419621156432
-0.003658126417989126
0.011332799363643736
0.008589131130927468
-0.02073465903921514
-0.027099011679420547
0.05142976702989221
0.07006519898005409
-0.014049220507512861
0.0003033566767551907
-0.011157332676154163
0.0040205543192141655
0.022311901430013437
0.004567998961514604
0.027479326242782088
-0.004364223454822679
0.03448085486849497
-0.021581288028110282
-0.00326301118314822
0.0428268335365788
0.002864858407039648
-0.02365881452081961
-0.005055624599964898
0.005142045468669769
-0.030951844299574274
-0.02448922781575734
0.018802213055272552
0.02112303380129597
0.0010216481412900916
-0.0635033373134237
-0.03240171360188643
-0.013065505032385533
-0.00348775018185862
-0.010778515167917977
0.02340910862296661
0.040031141773258616
-0.022827744603992787
-0.019794010781255752
0.05863352856178915
-0.006707118227032985
-0.010588564338799771
-0.0006568868753750577
0.10558138763113292
-0.017179127037630325
-0.011096452769824454
0.044033053596297396
0.01760113028115795
0.01103895994872495
0.02527288012026949
0.020703097820547047
0.03289081320725184
-0.01731910974041442
0.020705274937419773
0.0013767865123891017
0.07941162804516569
-0.12022813991371545
-0.1080452925422906
0.04225236251823098
0.031558867736381176
-0.04801778486937172
-0.04623788783932493
0.011820770404022338
-0.003850885559445273
0.0019758300679202237
0.0048771722731664365
0.004702469657747888
-0.03371998500305989
-0.0015963484241142691
-0.011010554116860041
0.06814818207746481
0.045096668248864165
-0.045026954998388095
0.03810027839661732
-0.038855107815208574
0.019506441596545743
0.012627669240746025
0.025158240574457785
-0.08458593401550192
-0.2549666484140994
-0.09887951696476112
0.029257767021312952
0.13297806230637466
0.0832631302976462
-0.02458127552964304
0.025859935866274854
0.011809941374704903
0.02710648691362609
-0.02672015389390047
0.04183557073636335
-0.10165961103143342
-0.09255678882977449
0.024958135959218867
0.08636681660860697
0.10023471182015085
-0.021852664482532886
0.0529176974084382
-0.009101901088457954
-0.00394151001456355
-0.013291572080142132
-0.023460658544002908
0.00819332747713766
0.0026937878112341276
0.04980797335295607
0.022121061370666398
-0.016201288562726256
-0.0034112297215684157
0.004857908161682106
-0.005575701508056797
0.026755995987233924
-0.021911410135627498
-0.19095445088280202
0.0057946983862275595
0.002460395565218269
-0.006122294320977269
0.047446375272650186
-0.01537935831758155
-0.013051590667600107
0.03200174507676356
0.0030835136636158094
0.0013324861151232852
-0.014289943356902588
0.04842209983458416
0.009451261830136814
0.0028073661018798196
-0.05905106483426711
-0.006124756412586983
0.020689392979523536
-0.021433280706969926
0.011531233141538626
0.04592591079862823
0.1299792073312247
0.0022482573801745668
0.025413249429393495
0.01671925375526448
-0.019172703621420855
0.1652787100681151
-0.11263844487180277
-0.1941988354068024
0.11029815029085598
0.13254519632712988
-0.0445062145006376
-0.0035826216481951003
-0.022076791996164007
-0.010584173433290418
-0.010193759994078302
-0.02538107120636909
0.0030078846895902904
-0.01639277548541561
0.0073263265557939675
0.041646183561206876
-0.020465261660316945
-3.02243634192497e-05
-0.01177257962206584
-0.03508118393428643
-0.025219177461184378
0.022561574686423218
-0.0048994936013172985
0.0016428692863989156
-0.030639462872584313
9.719968121694389e-05
-0.009060533554753643
-0.01087246268415521
-0.027201364167291513
0.006837125813325605
-0.010368836813766729
-0.021575287002078964
0.032846207508684354
-0.019988861150964977
-0.020313522303568744
0.000851668262083707
0.00795740867701814
0.005256909147280005
-0.0327288953536995
0.04042872516078988
-0.02165441226983238
-0.010698570769076494
0.02332923537772465
0.163091272307219
-0.02520534196613453
-0.006020933956772358
-0.009316851047913046
-0.2140447199109443
-0.02305155221711487
0.06764221908003248
-0.017980326829211184
0.015879620294261095
-0.012000631380783047
0.005907158453800609
-0.037350134083493615
0.007752777683245783
-0.02485253612056284
0.09784198453763979
0.06417972420453577
-0.028306562007278945
0.054190562390649795
0.0561724172012669
-0.03344159995343421
0.02955873586523719
0.04468684746322223
0.002664644778137796
-0.06454362129494787
-0.06278118397057478
0.0681980381378164
-0.006636177466955474
-0.012042697009828029
-0.06539813683518317
-0.026183956907148975
-0.03822182632059628
0.0026780629435755182
0.03170075695164439
0.0032268779260082214
-0.01924827384210536
0.022680007534056863
-0.05262261751531774
-0.02250635175422558
-0.0033340206508914562
0.017523083761506297
0.005953496595057798
0.03484032470121397
-0.0876746899338314
-0.0508243355088095
0.004392427205018313
0.022703603811238957
-0.022109010158290393
-0.01534525023724858
0.0017814034242000555
-0.0031815885940432434
0.009761703762236736
0.14685901532546092
0.0200593829978564
0.0083514414011523
0.015367775657061251
0.015170236201269387
0.04694939082600165
0.03188760004966176
-0.022277746597625693
-0.024407364161110588
-0.022567292887328266
0.0003573467065509774
-0.021591404456062308
0.07375777744205593
-0.015362689712376554
-0.04152391599864863
0.02501833367716026
0.058412733039738575
0.005722711041532405
0.03079696459081825
-0.0049275563640936715
0.009050137914931122
-0.003102655518880876
-0.05309600520804787
0.0014522426579498678
0.010282152066390002
0.03343550409555309
0.017150812423839496
0.0013925826994655196
-0.01690369399052836
-0.01291104668435346
0.017208980060601682
0.0025222415074273156
0.02187160920364855
0.023940545617069448
0.011865321894498194
0.03426757108731273
-0.014945027904199814
-0.0143993808758183
-0.034090329940793085
0.07421731187642093
-0.09514667504686669
-0.10062310147283261
0.04506442474824596
-0.08964555070601367
-0.06410100463992426
-0.014675296509392245
-0.012309891460797003
-0.020253545622595584
-0.011000298549222756
-0.016259473473898625
-0.010688087105340914
-0.05105026442191191
-0.01783863868823608
-0.014974198077471345
-0.010728697575664279
-0.007861342208782545
0.012804431456388418
0.008559698577448194
0.06562523011251861
0.05888099519303361
-0.0037856420454523048
-0.03544399066429953
-0.0042370081345644885
-0.01000949308588129
0.006347634073305774
0.0029748993109994775
-0.027625031092699617
-0.02172292122639963
0.11219223688739172
0.044001038915885894
0.029727922327432803
0.056752789745501554
-0.017774737925671812
0.015679580653038275
0.018792006280924825
-0.014704715060415659
0.026222679717083676
0.021193619775120683
-0.03470944960855135
0.03310982681522588
0.03124338584224945
-0.015516629071895301
-0.008324424959840334
-0.011322327057542174
-0.021947390900286193
-0.0046549248914231735
-0.0043058435366707575
0.043176302750728396
0.0012877760177618628
-0.021891832055459335
-0.013795373956592107
-0.0084186072642148
0.031124886423476893
0.043460713609205476
-0.1812697218615732
-0.07619636838318353
-0.004919948208682616
0.0058231971365421955
-0.0064754182202921284
0.01880555522030792
0.053199733890620084
-0.03231411577028956
-0.03273964982267588
0.03269239307092404
-0.02599558696228624
0.03490000437141033
-0.024326557178285958
-0.027840987505282775
-0.019261099874481855
0.12690975556428616
0.12021898026452321
-0.028673986031330135
0.011937024869580242
0.07234985264302167
0.013437242319557511
0.01080683297000044
-0.017570235897937016
-0.019861447099451403
0.0064358569149744185
0.014611196354288019
0.02363587222983121
-0.010626427383525126
-0.0009241983254454838
-0.018146378188619573
-0.06277432167805028
-0.007084829173030785
-0.010127833981650968
-0.02176439564293934
0.013183071564318721
0.021259513046517964
0.06013823859177949
-0.05108066327119488
-0.0032080497647945204
0.047587853194956356
-0.10242168468732682
0.010277634051048621
-0.052609290006587366
0.021100530570320238
-0.06350269709840979
0.021418211210327633
-0.0646314008007229
-0.13472874454232822
0.020496593213216893
-0.0042578923801074794
-0.005075331171742598
-0.0010154812751825867
0.03568602904409453
-0.013722406929699723
-0.1973599313777522
0.0792031341427494
0.12265705000444069
0.035108961708081525
0.01793711203720202
-0.036295745381303084
0.015418324889370772
0.08776020856029801
0.005560894048739147
0.004147693769758811
-0.004199683810114684
-0.04082090069004711
0.12861565041077283
0.10731485121741575
-0.002723114616979365
0.0009922492120727898
0.01693089657963927
-0.03450700438355754
-0.008416767418883973
0.011222572355356624
0.047016115982997285
-0.0017996683647968509
-0.009038807576739891
0.019774681377939533
-0.026411468248622647
-0.034445419525883904
0.003014072177366481
-0.038807397030884684
0.029631211030360337
0.03310732798953717
-0.002085486375304364
0.03255597965443601
-0.016335843521638742
0.014264859449612534
-0.005593547794673511
0.012733766357904318
-0.08572032916776297
-0.026825706862399625
0.013392826370030333
-0.001892966119343676
0.03934181953735312
-0.010199350007166541
-0.12600481219677526
-0.20544459776676677
-0.043691477366021275
0.011804636950525301
0.0023016861782284015
0.04121572950669668
0.13622295739286958
0.010283377113257716
0.010503133263494524
-0.02838499836575093
-0.011718150524279693
-0.029725619131446192
-0.03124693588052163
-0.021413249986678536
0.09513083807417687
0.04470667363005745
0.014418132212584455
-0.04541135365379561
-0.02798396787231371
0.03339682525410793
0.06743859610992167
-0.03482603863973726
-0.04769223108234301
-0.008014963449073641
-0.007786425167976447
0.030362251276677285
0.03670602786317361
-0.037325416018598616
0.04773134365892794
0.026300301654553052
-0.014774074467230969
0.02525033891000495
-0.050937119011108686
-0.024391436799229577
0.015232170157394592
-0.011865640881544032
0.029457364892790227
0.02771863140692334
-0.004259974633042403
0.02322126424064217
0.00853830013509191
-0.020919424422167578
0.0014079487825353373
0.027840074368633172
0.009696750042521001
0.012966754933594043
0.09157372321347262
0.01130606687291191
-0.004327636526590653
0.021273888592260766
-0.02267008361154411
0.018689959817922836
0.0324541781993357
-0.007677659451638006
-0.01439852999761628
-4.431293654684447e-05
-0.019587381707083292
-0.009287937251983182
-0.003747239043697787
0.00032011580099044454
-0.019335042529282954
-0.055908081828290816
-0.11131964032078086
-0.042953498681311215
0.010122166406392196
-0.00017619642590026123
0.023760396721876655
-0.02429210976536892
-0.011756194681279968
-0.013559563667579303
0.005000644647394985
0.00896963880723543
0.008780486858366278
-0.02019174429142769
0.03002332585350763
-0.0026179235486145226
-0.04508710739796185
0.003756505761544075
0.01670649789356377
-0.005433876582950755
0.0001608476160532645
0.04075286995589501
-0.009225410495044587
0.04489294570419683
-0.004803393483954094
0.047170051404961756
0.0580964486105896
-0.0018144668893522924
-0.0026532336264955447
0.0033496765081813544
0.042734830104992814
0.04535018668136076
-0.030107083911919838
0.02628156126057616
0.032882076149692276
-0.014168464055501706
-0.07104779040648548
-0.0491253088977257
-0.021339410293857008
-0.004357638874586075
-0.03668335905694782
-0.0699713335240525
0.020160068011030027
-0.011470450222553084
0.012503242963366681
0.02237729935470313
0.026747667467359845
0.012956283641544062
-0.0215415147495888
-0.03833781423377275
0.02725717167375321
0.006394499826338001
0.0009733355836855966
-0.01168886373031559
-0.02343814979288273
-0.013481813953167875
-0.006902383987947841
0.0065008083467171
-0.0022750169953581405
0.010530867025809606
-0.012519579460789671
-0.004651441959518775
0.010885461928458386
0.036764115078584195
-0.026657046670292076
-0.003550586723151425
-0.024207872811834223
-0.004677236532734009
-0.018094079070973133
-0.035291328292342244
-0.020055985358216392
-0.0033312210410040488
-0.02479950979316808
-0.013409016366783254
0.03006521557361197
0.07713526049970125
0.10311153337789385
-0.027350217101572448
0.002828045079809376
0.001841642259196118
0.03239828248777836
0.02708360958362212
-0.022940250803567912
-0.017315483053447628
-0.022502945395527205
-0.0009159197737035822
0.03885007946940461
0.0164022731105757
-0.030809906879413818
0.011450715161355339
0.01589964705315682
-0.00793930623473557
-0.025932515220106266
0.04582334947231616
0.014735896974071266
-0.02793003222257762
-0.009507531247594764
-0.008022761311881397
0.027850221207956764
0.04127087529044756
-0.055368979449089924
-0.051415162738735316
-0.0005715751932721906
0.018285465087442
0.0359051944971472
0.02521810607599114
0.00336836790819499
0.018173458255208472
-0.046626224377167236
-0.05459061623943068
0.0009500179793910222
-0.0021627302758391548
0.02274750560060114
0.005389657579278387
0.04693214347367303
-0.008944461957337798
-0.031019536101763574
-0.011902134511780122
-0.011812001153303444
0.0808672787410192
0.018703808094085783
-0.03599251060627247
-0.0069124857946957965
-0.0010897185789993037
-0.0016183699846920969
-6.231809130386811e-05
0.028545550057444503
-0.015596451795138648
-0.00371262324786625
-0.02674810649562658
0.01872997263996882
-0.016435567625128742
0.037787936362767
0.02508695584768093
-0.11527769346359641
-0.05402701530088319
-0.012230513929772004
-0.010608457830644253
0.02162239634111227
-0.012650503320384785
0.027904576299228302
0.04898843610325817
0.012395790661666616
0.016658923775721476
-0.04216134659996339
0.010087791193110627
-0.01953520995398184
0.001952890911886448
-0.022076255972289856
-0.041248556934065504
-0.012380524676753175
-0.0019676328522478387
0.025880366578903965
0.030514457451085452
-0.01068072523890262
0.028094947093034988
0.1320912727147662
-0.00541090301296752
-0.07971903002534234
0.014974774500001219
0.012434467919467876
0.003968497379876057
0.01244905755835047
0.021918143598877764
0.024366325303103228
-0.05161354617951274
-0.02063598212140084
0.00467965393333031
-0.025692419721238202
-0.025619372078495253
-0.042666542186078876
0.01668481565662654
0.04132971497995756
-0.030922938907685854
-0.05759056358739399
0.009522181872383318
-0.04102520543626975
0.02741675005495421
-0.03874819436863405
-0.03432666573639363
-0.017407022855968825
0.11568363989649119
0.0938695137623573
0.03649246183432144
0.00547106155463689
0.03605748451819454
0.03370505948717786
-0.017979251485098702
-0.0347143178477886
-0.022314463720094106
-0.0014248399748534777
-0.034057389539808317
-0.05179331297433207
-0.0019649523961558835
-0.013937165075142352
-0.009636708776359115
0.05527395291943515
0.07694297329849126
-0.020218668269058795
0.026954508304347043
0.030178107871556215
0.018585325149417936
0.02438742026322288
0.012271783169799582
0.0161569632744188
-0.0025151419893163006
0.01462740339440365
-0.022628027751547555
-0.016761870986757375
0.02424194969279515
-0.059087566977897736
-0.1864829980451425
-0.021599970408930896
0.015741147735619687
0.0008741847330638218
0.015105939171054125
-0.06751260380558734
-0.07596140493366862
0.03485409880855814
-0.029404304005659337
-0.02914763908242268
0.008431969199763708
-0.005643299241515972
0.02085726404491449
0.003771621153080647
0.038989683776641235
-0.07035276971979908
0.07229093698043057
0.13549743422095817
-0.024014417079334844
0.024027875749437152
-0.07446617408065005
0.11555020331158944
0.08974170639532827
-0.06747099451047159
-0.08253929102285126
0.020385150632676836
0.01757434400897377
0.0032397327755812875
-0.002735485669969337
0.013364891595701254
-0.003043030459938187
-0.07220398980702374
0.008500921783915776
0.003974271942690654
0.014858279664923476
-0.016218708080230466
-0.031635713892543646
0.03721226456104648
0.08213965197134235
-0.05921257673542285
0.12876207844329074
0.04502806638552149
-0.03168650570716625
0.02810772213034983
-0.03284736073063253
-0.022930135977884597
-0.007181956340052079
-0.01948961771797974
-0.018166790682957654
-0.010085208066129798
-0.023249158111427266
0.00861042495063572
0.06244148828709718
0.009641746418917949
-0.043169590520054334
-0.010681158424884141
0.006392684823693899
-0.00880099668020252
-0.028510083803693586
-0.025175541600761218
-0.005591166911052029
0.007413009621968612
0.013497193941066715
0.00908169857484328
0.006387869253946978
0.04972457477479005
-0.014231283954153899
-0.01439539650780059
0.00025334809044963576
0.0028446934578067865
0.03773608020558225
0.06280517676209425
-0.02351908741444817
0.004883507334524581
-0.012302406060525264
0.006308355121239276
0.007849217933289729
-0.021020901687680713
0.014330037452766795
-0.017287379816649105
-0.08578896650891667
-0.1587638746517833
0.010626897580592086
-0.010334778780089293
0.015545842743634148
-0.01866718283560667
0.016087261369133056
0.04342035343753443
-8.937451777951746e-05
0.013514388886127542
-0.02528404129767345
-0.0059895111989006974
0.012419943081761057
-0.012437446224310748
0.027236447518755647
-0.005656336580350543
-0.016030135851274416
0.013260606833852467
0.02807793181908057
-0.021455416443193747
-0.03737620826600356
-0.02270906652886997
-0.01278145236173925
-0.004102415950692046
-0.01950790901990876
0.0015289375606439362
0.020154891969217128
0.01382405983110553
0.028055502985038557
0.013451932924875839
0.03416129378254168
0.0279918601001288
-0.013649072990599235
0.014799633423052426
0.04840385222944396
0.0031997129039057857
-0.0315504662673051
0.0410875635104784
0.03286654461688372
0.025302803347814578
-0.015454001933474213
0.02179127386153893
0.020781254348592716
-0.004489583714150889
