0
0.029695136821371523
-0.011608076388054608
0.06527898597350498
0.05217003989632854
0.016431775833747837
0.022069716143353037
2.8288691481789844e-05
-0.016225435059773398
0.01068502395501705
-0.005603267427894906
0.02192516193361499
0.03054521755674504
0.028959202999180478
-0.14772945506171317
-0.028083590827055204
0.03146000455201599
-0.04226508170250509
-0.010558876932223502
0.004273647614716458
0.009160378681357082
0.006131238780419012
0.026113747692103773
-0.01878331189137751
-0.008494921005407474
-0.021327068948059084
0.009399168687018504
-0.0225021549441885
0.03741747240506349
-0.15418292328463296
-0.13469222110080684
0.06361187919136907
0.0007920501287879598
0.03894858589471976
0.0279218892193364
0.012995556757896279
0.01815010220610768
0.006964786309776753
0.028243684906559204
0.048088265724504135
0.014581244928033163
0.03504822256808108
-0.009841085768465553
-0.023106765223518826
0.013161014088770446
0.040424978582829375
0.028454427140770188
0.013036760818027607
-0.008124555143553161
0.019396954902356607
-0.00465747187668833
-0.07033898806834639
-0.005307101778229258
0.009471167230984276
0.005279894284701663
0.005892170435011666
0.006763112996372297
0.023858403514243485
0.007999131078624244
-0.025565361345461824
-0.00886550204339292
-0.055262106800371795
-0.02669655762940178
-0.0032357683019085984
-0.011927975720081722
0.016361104060874106
-0.006379849124999576
-0.01496016906713956
-0.013632836769970118
0.007119758091729623
0.029424432988492896
0.0072648319376987505
0.0011057734833191807
-0.008957129304635334
5.210074598082373e-05
-0.0007285901990185203
-0.0063968796355025346
0.005964066876633231
0.05590597802585197
0.02660837704537879
-0.028314836499323925
0.038526238172064645
0.0533668562656754
0.0222232307247496
-0.003045255290288559
0.002973750761477424
-0.03797316976355666
-0.003257917498788531
0.00703537984670276
-0.03643038825345856
-0.014696024236777417
-0.016943942379938334
-0.012608608302905003
-0.033604166657397724
-0.041974352019756266
0.02465052712432619
-0.041177268217494734
-0.026044385107281062
0.0024637969783208595
-0.0021966975474985414
0.00688944298907226
-0.01683687858112202
-0.000616453356958184
0.03165610172972469
0.032204696004856315
-0.015249879976441337
0.06062973060057643
-0.008194515414393139
-0.04558166429959733
0.010079272343757143
0.02594369593175093
0.01656258214136759
0.016476895047607725
0.014707122166480489
0.009480442491090816
0.013101132681057785
-0.01054044450658096
0.015033419163412281
-0.03014438041159042
0.00867690872586553
-0.03396952275311995
0.005263720391524294
-0.011146714534384814
-0.0016712761224893804
0.0343329439129169
-0.014181549395449473
0.0071645727515206505
-0.0049076619769947575
-0.0034455824191277815
0.040938083143277244
0.01460889418306158
-0.02219859277170635
-0.015009474411393768
-0.002759629989921871
0.002399694085367007
0.007739362149287564
-0.015394638195554353
0.0188680092854421
-0.004985087598723327
0.034340229187969765
0.14456871857169817
0.011470840870560549
0.019666451131741775
-0.0023509002976252052
-0.12194332580270487
-0.15830438253731646
-0.014980122195431869
-0.014415020363343217
0.002924114334254169
0.004609352137010321
0.0001224419237478054
0.004534984818481021
-0.008981293030793033
0.011097150796624046
0.024516748498436446
-0.014487612955204822
-0.018865083180088484
0.06356977598540378
-0.00580283266868957
-0.005016552756118188
0.0039474453871693556
-0.017151110387763877
-0.1256025477865468
-0.06384951506523982
0.029206876386974674
-0.028812829360907795
0.030208027208502547
-0.0019506104219716427
0.06375746600457892
0.012339723092109438
0.0138863709811075
0.0022817926406964407
-0.015983929060055586
0.013586281829274004
0.028320788785445052
-0.07541145846852544
-0.023476608753693885
0.06379092354825952
0.0020662382848744935
0.018517665401444207
-0.04757994678961116
0.11210289147583047
0.08032897425483179
-0.04258053916820364
0.031802604497932555
0.059798258335144794
0.04729848196612196
-0.041313359756696214
-0.0372526061616374
-0.005205175127092496
-0.005572838471118591
-0.00902706172869427
0.008920061560570935
-0.013155327837322097
0.04066685994400932
0.017920695925947916
0.030826210812522847
-0.0180954336353629
-0.05591275268335409
-0.007263106302464866
-0.010749338229811129
0.01877113453326355
0.0066929852855035
0.052037078503976264
0.03310886544894128
-0.02535687449783932
-0.01915546719486652
-0.039053824371062515
-0.005604911809648714
-0.015880241701212553
0.016041044333301318
0.01906847645622951
-0.0034625583746753096
-0.037337102391320945
0.024838971127299152
0.033024675990511926
-0.002322001872590627
0.021417488215372052
-0.03032203238204851
-0.024837631844069077
-0.006813420302252727
0.02325042427607174
0.02318314056206409
0.024346414207738476
-0.004002560599066313
0.02009644619624772
-0.19046103927677915
-0.08851488778878183
0.024296557237036893
0.03851594445877863
0.07471715691934376
0.011591064502863853
-0.052722469090938286
0.002504886033820271
0.01407484002925664
0.009712932241534801
-0.052579662673701955
-0.04985132295120881
0.027693051096911635
-0.002200554328148607
0.014452842273411575
-0.04064038482605647
0.029756324655590825
0.06762800700068401
0.01602518893337853
0.0026930369148356233
0.03251987168439506
-0.054008594258821034
-0.030765129166175357
0.0017339632063929208
0.045094397076689795
-0.1210168489261052
-0.0758492123559736
0.030486454034108237
-0.010362469892414834
0.029361379419090547
-0.04431137118129017
0.002829804006203251
0.04918546701841274
0.056851751939352164
0.029430283970664415
-0.023087948147630884
-0.03170904869553214
0.025917663291642308
-0.02605006534568121
0.05086603758853273
0.03591472241840041
0.03631708028136256
-0.0807176994641668
-0.022058261241558106
0.02549009710157054
-0.018794392071908146
0.03004315272292748
-0.002962942379404539
-0.006108003647918227
-0.010772748271470057
0.02152351597731606
0.09488605506125494
0.07055031948894551
0.02026138386174335
-0.018439490015665052
-0.0346087405952383
0.006944905131356875
0.023616376944921844
0.027606683573802557
-0.009627155322488251
0.0053616223707971715
-0.036195395172581295
0.015864421969048702
-0.012835835533969778
-0.003929346891840174
-0.03595256600967028
0.05115806454279029
0.07392375145455782
0.02601527349865861
-0.06163346088288485
-0.15716280146978137
0.009243446020950926
-0.038780953193254565
-0.026732698616282486
0.011493179842897423
0.018759953456174074
0.008564039981649677
-0.0030602259685218267
-0.03398787108238596
0.019584085852656828
-0.0029743941642703794
-0.016388340945603798
0.012924850728284459
0.03321637491215899
0.017123591578884732
-0.0034530648596025806
-0.010481834591386435
-0.017569208010531905
0.008739282371833844
0.008076071709451165
0.04563136193528586
-0.02330068662808441
-0.0015894417538225244
0.032559133171964856
-0.015238286074132005
-0.024239931329890867
-0.007116900218355784
0.012063419874916813
0.005571150956009147
-0.11418789635054045
-0.13988079081402652
0.04920934176022834
0.011421648824084703
0.0253917548320836
0.006942525434391218
0.02345763670310398
-0.029642485713492293
0.018837709867287132
-0.03595057513337176
-0.006278675379281556
0.002507512529512211
0.024534283900101532
-0.035282433928997256
0.008229562005922012
-0.01145602728560783
0.13398432807007196
0.09659666732619214
-0.012219105465596194
0.019808700303773734
-9.869102531978458e-05
0.032821634898695405
0.018587720673712914
0.029016389288806302
-0.027917232716587873
0.028719925102271726
0.0066344137357502815
-0.057287955411756915
-0.08393797086270208
0.013795318124216815
0.04296135356069704
-0.03190213725378537
0.036307256616081675
0.16026923332933793
-0.022276178192775258
-0.024132082609308585
0.019190140300019858
0.010266380180453154
0.047821559034487385
0.00045796575106984993
-0.11298364758032706
-0.08665780689906932
-0.010187425471944787
4.92548717815559e-05
-0.008793225901287172
-0.002482718395835854
-0.006145217757451668
-0.005786981387742328
0.013678040228432145
-0.06137428844557099
-0.17979233157011373
0.05400664381794895
-0.03667505068334119
0.0656062443652092
0.14218003538066268
-0.001820478409040896
0.02252463515781074
-0.012431756288563104
0.006471839329547492
-0.07488625074180667
-0.01048258085325137
0.0077182558291501065
-0.0034865679361515234
0.1193521330617692
0.04679307160065786
-0.012517664601485559
0.0023911961520830666
0.01137204872357465
-0.00692637847881406
-0.00416577066598439
-0.022218225451397712
0.002273048013992193
0.006097098993806606
0.05113902882806001
-0.14889166228782666
-0.1846657094352927
0.006567403308211881
-0.014538124948296564
0.040813631248300904
-0.017396800946150218
-0.03228697104194882
-0.012644769582514481
0.045375878502256335
0.01623212839951095
-0.05347722890754776
-0.030305204457068732
0.043915566910814115
0.004632737552248195
-0.0029631757208099245
0.0014227774748241046
0.030013702825784572
0.009520796244125709
-0.00766571414365461
0.11362672601568487
0.02605643677977451
-0.003941234076032235
0.014074928092685972
-0.0169166066662765
0.1616068867231902
-0.016286140742849547
-0.020241427564329346
0.014477909991576486
-0.015320274070990446
0.028496503819251073
0.008466383404204659
-0.015430338653586275
-0.03646407413241726
-0.026228415897341834
-0.04665854707412612
0.012395193069870298
-0.010487815056579421
-0.02999872466997524
0.08112042131971875
0.09238546871420955
-0.031305743601613964
-0.003730688326873371
-0.0627846882009558
-0.0146784167987479
0.0010614068987227485
-0.00805962809361196
-0.017509998637395136
-0.0026135320074873753
-0.036435791105725944
-0.020240194720875702
-0.012198000373710393
0.01284787248652197
-0.007445408827032515
0.007138902258434035
-0.04072841905021087
0.06019706615658968
0.07893729541098787
-0.02987571962241452
0.017992287416425178
-0.015586315180003918
0.007504696227949029
-0.0013736442138783229
-0.005998589814861397
-0.029472311600264634
-0.004205633660717435
-0.004191721095716549
-0.005369750971766037
-0.012093332081323493
0.0030991908811741978
0.005275213100185442
-0.010095420884092673
0.023192614612955686
0.002479919922748838
0.003812035343349867
0.014000870683149683
-0.02783545748182521
0.04091084849890691
0.021917463855127203
-0.010304396877584731
0.0155565212867834
-0.021020597294073573
-0.01805557450424233
-0.0190197821504981
0.0037598504950316766
-0.04559523836491019
0.027905013428542406
0.005215835606141245
-0.016324272129961032
-0.011341195660290723
0.006739403061317842
0.03780465231053906
0.026445088301599928
-0.05070059147423166
0.021772625654866876
0.011345219173441952
-0.0536675430317412
-0.020184738893992003
-0.0038652990069763917
0.00020336196952221413
-0.02518419359395286
-0.06192695688630467
0.11132298308718365
0.04296996096534104
0.026477791162626024
0.040944809852614374
-0.03751876357486691
-0.026237925322390176
0.016649201887321545
-0.005223976697507873
-0.024281413792400005
0.010654408788986429
-0.0007892876934014458
0.003570336321298498
-0.008686185040298491
-0.00530225247916378
0.006869894559375608
-0.004180769673126001
-0.023909436911104278
0.005031475819346309
0.03898695511782666
0.03255250788731792
-0.002098451429299078
0.018087366438224946
0.04866497637379224
-0.017688542921384037
0.018953091905185238
0.028957126898519054
-0.0019020785005456917
-0.014654745920584479
-0.037988161570098766
-0.011697303938857614
-0.022982960951547126
0.0016153232144666037
-0.037796803962668934
-0.039579363841712435
-3.939358101763355e-05
0.027962413678326446
0.04548596208790352
-0.021363233217556905
-0.01988018971654813
-0.03654122373018374
0.028226432863785254
-0.011722344351712285
-0.010720156229447435
0.01432210431508233
0.005594739693122456
-0.0036530729912662876
-0.023758022591976933
0.014560349395035728
0.004195285339027757
0.005401933144854833
0.004623453477609544
-0.020801854090019004
-0.02197232606959327
-0.012174514624297071
0.0035271645798912506
-0.020311565297487465
-0.030925689050478534
0.049321471754122305
-0.018022141205710957
-0.004333769337679672
-0.0051954445285429425
0.14233896869606688
0.05587639099159035
-0.04037358069645845
-0.09198542271968835
-0.05954753140890571
0.04144369043151055
-0.03178884791633163
0.03591980444314481
-0.016068668148345486
-0.028452510561432325
0.032623829812898276
0.04024328576636721
0.019504144579292573
0.009257916445652825
-0.00524910768554874
-0.011959219936773399
-0.03375496692473223
0.00783829303339784
-0.029083346249225678
-0.030040017682469423
0.013742031914930439
-0.00054571430446064
0.00036018784830738456
0.02554988981135584
-0.02547297115180578
0.0037506411032440256
0.04508853798336205
-0.008735199796653288
-0.07082874166852789
-0.04095020473371058
-0.006211899679969567
-0.00484029606944219
0.036768871520140654
-0.004989440747904056
-0.007313564268831839
-0.012170688003190164
-0.0021636823668951485
-0.00648032213961436
0.03365369418429019
-0.011670566850181762
0.10727905874515788
0.1474670078005825
0.16409550490062208
-0.03647622581380281
-0.1470414821455218
-0.007522408679664774
0.0025951175148813416
0.010799429711241634
-0.013355955975918342
-0.029840641998186028
-0.04734525363583386
0.06737536254088569
0.008856360516915927
-0.011190638112359019
-0.019447314956860157
-0.02779650921993369
-0.01510579297321722
0.023153911038444556
0.030533943800156765
0.06961403837982573
-0.06141808830750279
-0.020669677409200126
0.0007168145830530655
-0.030699557425769936
-0.019538786845254175
-0.07273554669059877
-0.0024686435142731297
-0.03870062485718356
-0.0841481253964679
0.05315525380637135
0.06824534322336213
-0.049540513924275484
-0.021874378621184458
0.0025947862609172413
0.03372138972238456
0.003592824917200667
-0.054834854565155536
-0.036006282435083525
0.008550225259208627
0.0022995272668132126
-0.007302005775668389
-0.05055545084210543
-0.014537807034020805
0.013341267923986643
0.010504899175005054
0.1767428964543115
0.036702509174259434
0.008598495567517414
0.04697414610029524
-0.060086253663906665
0.03713670108972718
0.12135636138625742
-0.06760529297761757
-0.019506831366279016
-0.01242941697922162
0.018576385364366052
0.013310759621627838
-0.01682703005571569
-0.007469983945051399
-0.010162395334287313
-0.017189722884038857
0.016928397479289876
-0.022245717230792193
-0.048624597187210024
-0.032577774347123695
0.052624818052753077
0.0049493197518303235
-0.017917102214012774
-0.008783008952042141
-0.003905533991161755
0.013285295255254244
0.021229996244765972
-0.014069952515214422
0.03117020121879222
0.02798171293038353
0.07571345776239194
0.006854840964572429
0.010948031637552388
0.03428717156906648
-0.028508591425811546
-0.03585204821523403
-0.035702139149004095
-0.008930143632403496
-0.028260988800462322
0.014317389593449076
0.01061178566547381
-0.02020143538307959
0.026437042927462958
-0.09186844464003456
-0.08420797929934185
0.05676921504803644
0.020888413878345828
0.04155188701232672
0.026927290868017813
-0.011566098055596583
0.005836563593630421
-0.030637320771630474
-0.1124573611145757
0.0408683793971044
0.03922685729114066
-0.0175278939585806
0.023986518850757293
-0.0017562718960777764
-0.0030137649486761974
0.010870112545148901
0.026443254636240615
0.026821393076705804
-0.015260047802599076
-0.0039372972399397375
-0.008700080264755262
-0.028333356622047015
-0.00917551820042502
0.02342187994193112
-0.0013282279715792892
-0.018831814363908957
0.0041947313931306055
0.019004721158348482
0.02392090793389087
0.0008197857092806923
0.02080266605679518
0.006633612282680521
0.0046426305397890034
-0.0072334253132952725
-0.0044160979774523915
-0.15047074948469205
-0.10913726795350662
0.03044342475327456
-0.016318298671650636
0.0496343252170209
0.01176382264064194
-0.05127612721134163
-0.007602458001268215
0.03659433372245228
-0.0017093568667680046
-0.03132867120777107
0.030334930389567062
0.0326190507211516
-0.015366668428827175
0.0248399106621685
0.0044632244822368035
0.03942773669013343
0.05002390294574819
-0.02181798880425684
-0.022112417640595454
0.006424903814775552
-0.003066673265326727
-0.015757754983630592
-0.050230859413651234
0.08499249262765286
0.16413138799513516
-0.04105213534346872
0.010245910825496363
-0.006195064652960219
-0.013208632891655744
0.016492626407473756
1.6876894597960132e-05
0.021060443430838065
0.013127942202231558
0.038570900803292785
0.03791986387725056
-0.12290519238146437
-0.019497776533647874
0.011561783271329484
0.02799795849691605
-0.021210919768252328
0.04378926440860941
0.00953662630204831
-0.010328902917480343
-0.03153024586509089
-0.015144041492446317
-0.025693677971018795
-0.03892054183648959
-0.007137421005996022
0.027763562316494215
-0.03695911890008977
0.025100122425931595
-0.00685168247797911
-0.06665367213532995
-0.005378194004732973
0.02642214458334569
0.18505097335537832
-0.034351972167840604
-0.13723155640151183
0.008988430680538171
-0.0011644301993984658
-0.17987138744711942
-0.05976896521383528
0.006632540291405644
0.0021641471892923855
0.024917243023361325
-0.03288620977664585
-0.051213511585539176
-0.01685252745544946
0.0717585236129853
0.07798992079152249
0.0034670759434822446
-0.0006149866601446854
0.16165347257755538
0.09088748794877456
-0.010168879455112417
-0.012529514772145844
-0.032500710495583604
-0.0031836926207006425
0.009260440627025617
0.07233448851124276
-0.08697787949188522
-0.04217378822525821
0.08640942243913226
0.010531635728518196
0.05700088037865695
0.0038688862248890004
-0.0018096408497119264
-0.03350035229206267
0.039978741847631255
0.06796568485435331
0.03319719376526742
0.014686913571912548
0.01949689619603413
-0.06756841428309439
-0.001748383559798093
0.015207131272874418
0.005517411535194755
-0.02741399600074384
-0.02310558388520509
-0.1340940937211897
-0.09391039924502279
0.030002890172505094
-0.011639520682402257
0.010843109852230932
-0.01404339272126263
-0.013035117439778858
0.010043427040943406
-0.0025133561236156997
-0.0049602165313632
0.012803413991432203
0.0014719519571340807
0.00838550489429492
0.01752470487729588
-0.013535289433462409
0.006954985246809588
0.05061406000023485
-0.00846417874742302
-0.013237463836912633
-0.011537223661430871
-0.0002785515751933254
0.001605385931011976
0.018941709239864806
0.008725534962785352
0.004603894286733521
-0.013355240630254261
0.0070898293912261805
0.006588046639217623
-0.024277765496457895
-0.0845521769661059
-0.045129310895716694
-0.0009792984242252493
0.0017678624623922406
-0.0006226456477843603
-0.04610136199046798
-0.04864173099624552
0.0072687308230324
-0.0011702483477478345
-0.02794728554255225
-0.008232258509958477
0.04039728359157441
-0.010422928449032713
0.031040867759517997
0.035939276832479175
-0.03125918010743676
0.031510959232924504
0.027383056932985556
0.022997210237493137
0.02627993834727294
0.041088879425232934
-0.022352472573004187
0.10493835505952905
0.11863461307640966
0.03266979477965879
-0.137441045762074
-0.13806015503615252
0.024083888978840864
-0.024043784767783752
0.040800124208817776
0.009348256652593588
0.005369884027792815
-0.005517726927915719
0.012373532643167618
0.06844225271669471
0.02127267714746339
-0.04560175689305445
0.03352729021432763
0.0048735445585098795
-0.04912358271928091
-0.0030889924599291265
0.055232142671274596
0.013900647137585181
0.026111184690969437
-0.017111374891350947
-0.03660436489573501
-0.023558977378534268
-0.0002576765143153319
0.025216578033125756
0.03909361998413341
-0.04352609652147631
0.0032437886044233625
-0.0073903038056710585
-0.02476484363574088
-0.017186191397439383
-0.03565176773751349
0.05837165366962683
0.03920458877974088
-0.05042346466689271
-0.005380207164513017
0.03589289185922026
0.026970191216563733
-0.037477508796329606
-0.13906010146053382
-0.02016794795064699
0.0006820081585396986
0.0031106548171386974
-0.006385534796563081
-0.01022445984277723
0.0873032042446192
0.013187317430951714
-0.016162509372956487
-0.019208582282305212
0.008213768691962886
0.07707557842130064
0.019523153645823826
-0.03278681299807536
0.0013764608231189867
0.0023515361954159156
-0.003422991026561263
0.0166906431520597
-0.019663765254426195
0.0365799434512434
-0.03219881941715532
0.002828831575746735
0.004234217524655907
-0.0041667091753958005
-0.03274535245722663
-0.028429416656336276
-0.006881108260917926
0.005301123264761015
0.09041527608164747
0.0037247765222354788
-1.5165298119519542e-05
0.0008625673390931547
-0.05663536408788474
-0.04952665515852684
0.01870253397059709
0.03461727048762867
0.0026209231995176227
-0.03940057571530725
0.0044228177950562855
-0.014640253163332997
0.005065759541607854
-0.0011834121659552166
0.023999290527249115
-0.08192864336115527
-0.050646243906138914
-0.01679513243957421
-0.0338369724144645
0.029932767101798433
0.03390236923488879
0.056985295118506946
-0.02050019240925692
0.01906704211304144
-0.004619594434447786
0.022142361733710317
0.12063243100701779
0.0873057068804758
0.0007878363381133806
-0.016995082265774727
-0.0682934048026456
0.008375809036777015
0.018044198470382668
0.01664640342073914
0.008811281953766435
-0.05162908526523518
-0.04135858558565833
0.026820173585556883
-0.018827307844332137
0.027473368517110477
-0.05844290694487668
-0.11581653138230065
0.0421251845094664
0.005988353854403742
0.025316827993894616
-0.002660271360539955
0.019399405034982945
0.01861742934722024
0.0294369188115791
0.014767939038293298
0.14606757595914815
0.08255718029438544
-0.005767319384703789
-0.022756537776555414
-0.06093357091867626
0.009700525933164972
-0.019862219199728363
-0.0017158145030822809
-0.06678208521299782
-0.03619524298268115
-0.033301663170651724
-0.055232933111376906
-0.01934878628644752
-0.0018845823134880741
0.0035059130433382473
-0.00758737156807404
-0.04912986094245813
0.007611456351429525
-0.004112267769133502
-0.019226284614332914
0.03757867431263868
0.04078356867452962
0.013612097898577839
-0.0076190278682361666
-0.00958099950332353
0.012090437218953686
0.05001110524666677
-0.015051079313867894
0.02810475598484563
0.00047673557236367034
-0.0447350646822851
-0.009307199994462435
-0.004001859028475077
0.0038978807226365546
0.04656921038132727
0.00971524724039897
0.04266034954396316
-0.04577378084393698
-0.013700883323953769
0.03124957350840058
0.012625600878731857
-0.021476536156920144
-0.001495310690340747
-0.0045847619134751485
0.013321801990266743
-0.01208847733494633
-0.0019275066755490154
0.031199725270240754
-0.03263950201527269
0.0049295295458297046
-0.04131359554367592
-0.12389035816117713
-0.00925764789972973
0.006133655458482043
-0.013588943429902819
0.014793841598663768
-0.023883755793738633
-0.010745270395346562
0.0151401482060845
0.06352204734086686
0.028652575393327037
-0.005250523761281773
0.0003946136620077376
0.0026451221638794085
0.004681350223718955
-0.003183017009831863
0.018629768405233588
-0.018641283626247524
-0.03871842128724011
0.04714241341124551
0.034971711146661304
0.0018656951642854493
-0.001633271898680371
-0.011224480279856048
-0.032276919226178834
0.01631719188167062
0.03079439336721629
0.02943997951856663
-0.011849523007531471
-0.0005477986268120946
-0.05677381945283674
0.05988166707473989
0.056127647825807425
-0.041488548450046445
0.046206336597803085
0.03599456987425757
0.07942854320897452
0.03306280459471196
-0.018793766834689567
-0.04016403756092769
0.010421890247467121
-0.0025740787821717046
-0.007954558988479516
0.018438904202589892
-0.04334005158077389
-0.06479674302739268
-0.023305079257343934
-0.038834012420221414
-0.049429493821831386
-0.014376671702221197
0.0046661331920358606
0.022340008402727568
-0.004040233526117883
0.013844527321724311
0.0059326928403029685
0.0149580059184004
0.03612379786666374
0.014212938215019504
-0.036419006005453176
-0.005805189319647207
-0.05491777594610901
-0.018142544361973982
-0.022630554864764632
0.0010004473983185843
-0.007463095520728098
-0.008260755561171795
-0.011968795294570823
-0.022325696449554736
0.002234567661740322
0.0006914119632112423
-0.024987088986356758
0.0745309479077888
0.022358724426908148
0.0005419409112904377
-0.007701097152152354
0.004053249030591817
-0.005673891275780771
0.020890214453255413
0.0055998503662654875
0.05955152814476515
0.11314146230237015
-0.0485310752439972
0.005245872593747873
0.02709036015752866
-0.0041626575626915255
-0.055425016068883774
0.012827274054757308
0.0190925168606685
0.004693056866855639
0.005485070667641202
-0.0017929064021491093
-0.030520262849772047
0.05544027801915222
-0.06948097516424454
-0.08052893178119255
0.03434349233062017
-0.010852294234608135
0.03167668946213061
0.008733466326633755
-0.0005689601249671977
-0.004767158876763346
-0.024460293685181697
-0.02823876376364591
-0.006710231839709526
-0.0024444422448912785
0.026818891098282383
0.06357083168486467
-0.003631107811497986
-0.0322929584327656
-0.02373961833747744
0.01485790143647304
-0.015872189457259683
0.014413149369842622
-0.0012595756875804808
-0.024202282718413147
0.03192320734016378
0.011263196356992333
-0.00037497663869894633
-0.010541644869753754
0.008921074689251332
-0.014739017500807318
-0.014968762942658743
-0.026154422584662444
-0.01433688655754146
-0.008629664316266859
-0.007425545384565425
0.010692151184657146
-0.017193971513318824
0.0442623747679452
-0.0015962174563346383
0.03522836824590552
0.012120317135548543
-0.04557399112944213
-0.029772433424279023
0.0057895496895279674
0.05362464682443046
-0.002845016067960447
-0.03900971379453116
-0.01643548649788605
-0.008326839398985451
0.003701763139297678
-0.0003852511351268157
-0.0009338967715325227
0.023425500529683334
-0.009108725718815464
-0.003133779261699751
0.044562272172788145
0.019651464404527717
-0.00841724502362762
0.0031989170904046602
0.002289723265430958
0.021907599158824034
0.04445844531371272
0.004892571169537948
0.021730292839790936
-0.020503296417898446
0.020791814520138265
0.0006529775414241439
0.0023368441561492205
-0.004201224861071419
-0.005277978305872025
-0.018664036488938423
0.03776155701053464
-0.02402721496439339
-0.03680400368704952
0.003982894035402135
0.03222133368818749
0.016505397040078206
-0.008199761210477552
0.009268607984758212
-0.008732299681882327
-0.0167528170209034
-0.019951412581717783
0.03405503310899797
0.023862673310436063
-0.05090547384714816
-0.008120625670446507
-0.004571903537657777
-0.006180165912979824
-0.033139132414181476
-0.000490173879591616
-0.02785516357630035
0.031552994288967524
-0.039057680476163356
-0.1142633798873603
0.0044999165384409885
-0.007176647948111558
0.058920578657063245
-0.0036664551095653463
-0.013153435279692288
0.010242712659161076
-0.03705939991103359
-0.12049460876532676
0.009886274689734745
0.01708732762478837
0.026176307873167916
-0.03546627165420728
-0.03151377559556097
0.058685525890802434
0.11186046656378143
0.02328228419794048
-0.012956009263291166
-0.016798888934073247
0.023970999528472953
-0.07497686347899507
-0.008905498115688066
0.0541782361900358
0.023262376703528355
-0.01806318969760723
0.022686989429779023
0.01087144473941292
-0.024028927516140525
0.019771902612989087
0.12376534453928704
-0.01274484817143408
-0.023492054048469144
-0.030494695781635897
0.008721420436460141
0.045552736051756956
-0.0021979125897931663
0.005451352060870535
-0.004044748112382753
0.004443116141621904
0.05052912297469735
-0.04066293799077386
-0.04300912829291809
0.013345753429557837
-0.03297144910982741
0.008662858693511466
-0.02944922914635631
-0.015765163435086098
-0.01269242056416347
-0.01864313031843202
-0.013418074246222478
-0.0036215120283856327
-0.04777367861246031
-0.018099352426304043
-0.0022640637946849027
0.15916168321881405
0.09435607669748318
-0.04672395708463428
-0.004487726549016552
0.011271893581529005
0.006884578715195287
-0.03349244964765845
0.08074425892618316
-0.026774157756526015
0.017932849530773825
0.03646623995333387
-0.045253065706180554
-0.02146285176398049
0.02334044765539417
-0.008770439680412346
0.023632951899380986
-0.027302360445524743
-0.025658256716246428
-0.001983298864164513
-0.05185876718093759
0.0432000220514821
0.036477518452574055
0.004983057205103683
-0.031428503052286665
-0.0342307802607115
-0.020071992913913934
0.007356172219464871
-0.002876916333314037
0.018413219368850372
-0.0058079021975812415
0.004235073466912317
-0.03689596173269533
-0.03213815949832288
-0.0019410237879054386
0.03253645621903483
0.045125606273795624
-0.04852542758468196
-0.0026260327862640573
-0.013254257981495451
-0.006944509078592094
-0.006438096368598684
-0.022208347477035144
0.016776953937652685
0.014382703491671218
0.008473301434841
-0.09272823478192246
-0.059989199053812864
0.11446719319869297
0.09726017693585555
-0.014939731386221695
-0.023499653969469864
-0.0164714166711309
0.017475808105034272
0.019877768792542282
-0.00983581616514796
0.016999196057137057
0.00912342160400961
-0.019171675408483652
0.06771471724401179
0.04948468807123586
0.007886043787868583
-0.015159893190608975
0.03642585334381947
-0.0038396487332085665
0.029665445571871906
-0.14308682394442923
-0.07562998709386008
0.09517859976162339
-0.06534013152767691
-0.01090102046443207
-0.019526143583228645
-0.006895871851207024
-0.008675453077495168
-0.015498527499118103
-0.006706209865218581
-0.0023286615421961887
-0.006870401315225277
0.003661372953737103
0.02122930248759751
-0.03203150059681111
0.04390542212561323
-0.12478183568771195
0.023762106632311274
0.04618634686158958
0.007551708989693643
0.012532856484693072
0.011439266497073155
0.1085818973712957
-0.03609062409533311
-0.02140200350976662
0.009836685138916848
0.04931945160815545
0.004850463850160301
0.004502231264765014
-0.032446366202719935
-0.01836423140968459
-0.07695946008141255
-0.007822572144951613
-0.006051420628129687
-0.013154415425875561
0.0889440752574197
0.08133466694725823
-0.03555014239763872
0.0009589045312216959
0.0022921762834915717
0.03214539547020296
0.003483373795042888
0.00959931239786523
-0.030445237018582573
0.009219593721400762
-0.02773164279738531
-0.005729046634098855
0.011143506677813183
0.025110654089548743
0.04681070097027535
0.07026535059893078
0.0019304368933924366
-0.046402715580022715
-0.09112387494864271
0.02163980726927368
0.001592347507491817
0.011427378104061284
-0.16072008813564292
-0.002620750758889749
0.011059169091630397
-0.015006911498260132
0.06088319709523263
0.024007733336655353
-0.004172727717223334
-0.00320337751190308
-0.04845367626942359
-0.006216178750703365
-0.0026572459125372445
-0.05474122812625141
0.0034444670148795595
0.029449214485716725
-0.04336557714526462
-0.010888553374697692
-0.0068906573818716555
0.02757803632166352
0.0014168728702164428
-0.011077263175022596
-0.004062716346414966
0.015635922021518065
-0.004091937616233737
0.007591760341545119
-0.013289210681427419
0.03786095451621477
0.026681338452455298
-0.011084913158653158
-0.053208570826425196
0.07744954913639004
0.07658174594702023
0.03927149309609699
0.016250092341491197
-0.028092794858779892
-0.011065804028272822
-0.004551399053500427
0.002687384896866289
0.004956226752323242
0.008645405968649482
-0.024386237239259125
-0.03859578188884506
0.006240522170566537
0.06449699207108274
0.03459378793597696
0.031232844749884716
-0.001981754240957471
-0.03548999290761671
-0.07777577381487187
-0.015328553693390387
-0.013313073372564977
0.015452638604297705
0.005734951572325688
-0.0031414278968602896
0.010293486009175717
-0.044562650400663775
-0.07155337553740733
0.023395652319792775
0.07738949838203793
0.031757231853750546
0.02853412668494168
-0.006206854702727715
-0.03955302822745946
0.009149436199815586
-0.0013794145496622415
0.0029773873387527556
-0.0036000527711423837
0.03879677691413234
-0.03794505388341959
0.053200818201326286
0.1142215409124989
-0.0010870058950256819
-0.07986429575139246
-0.048104421880330275
-0.05429490136659188
-0.10364711578448749
0.010511246076482421
-0.001892180504855819
0.04905896670999008
0.02922906780823245
0.01935573420789812
0.03652502829972857
0.004114053877167371
0.01943675465606122
0.02856472808090565
0.009089756364836669
-0.026962242847969012
-0.05230082383281973
-0.016088000968042908
0.002671402221533684
-0.0017064823346292495
-0.014178739717147056
-0.017396021763887312
0.0062463675605270805
0.012959844027930767
-0.011411442471156542
0.015520422030218802
