0
-0.006628133129631051
0.02150044743304776
0.0005581988873635079
-0.019863020258369266
0.02987926024118656
0.02537680130199269
-0.021850790865226233
0.010837565791414518
-0.026297959378268627
-0.0003762985899314649
0.01167401066421166
0.027922823819555066
-0.00810041112769857
0.04148754533580803
0.020177939290280392
0.0043058025790887
0.03765180127274668
0.07388064433105966
-0.020852949174815023
-0.012274374334405308
-0.001964137722369198
-0.009548963888646447
-0.03758121441408281
-0.025710863061110527
-0.02660593625625817
0.057175517753448965
0.033635280712838556
0.017162991227613635
-0.0065974844913872606
0.029274150040840254
-0.07339922804980693
-0.10885418832100537
0.02088648633689524
0.04737408548204871
0.008334335192973642
0.04220347194905568
-0.012303111755560472
0.006366308880698879
0.013565989622507522
-0.014031551125289565
0.021246883237189044
0.02427426789730062
-0.0015212104477430098
0.06601035923174402
0.009804486191459034
0.012775419898622891
-0.01321119490804721
0.01268470937070639
-0.0802806060898476
0.001144703701954432
-0.003926295263531803
-0.02852643458417818
0.022443502355325128
-0.00037411248556957767
-0.0101386062070935
0.006575502435679913
0.021480384903200304
-0.015008344699856584
-0.008514409078713382
0.047315633265895336
0.0009235131549325571
0.0017075022937081696
-0.053103996852202094
-0.013721622904678231
0.00039476257555586436
0.06007070197343274
-0.14127766655029067
0.05175800561389456
-0.10548436462425827
-0.15905209756901628
0.0643862802615626
0.04110220505588302
-0.0016991350003207582
0.04991330834993068
0.042695737010690356
-0.03588589555866132
-0.020553612914818564
0.00936344515351158
0.052848522865567404
-0.005674317531209452
-0.001837053536114614
0.0068147940680472014
-0.00024522235873159566
-0.011527136204833054
0.003608888153484681
-0.007319627418961405
0.023003705698984123
0.03212369283282898
0.029227927701678997
-0.02731430993909918
-0.04527611255274582
0.016305009534719295
-0.040313507533886635
0.012220461403104461
0.006854829867166662
0.0494544067437326
0.041463980715450995
-0.0010084696399691793
0.029678750366499994
-0.0805083115539468
-0.03381167108401325
0.049314415599463444
0.05698865246541939
0.003333072293645957
0.007315143931751343
0.012774229654424228
-0.010190168791499598
0.015617264569917137
-0.004759439061270445
-0.009812543830992974
0.01824524877745498
0.04046086977117083
-0.0026389618630630954
-0.01866728388101578
-0.039918744332203146
0.06279471566874213
0.03629511380222554
-0.03589690863602037
0.0018442739418668632
0.0298785187361769
-0.06289531385436024
-0.0486904331559234
-0.04166423910613659
-0.050141135123832885
-0.040547082601367156
-0.02910621186565198
-0.004439617558266322
0.025569953136694863
-0.03563651077394247
-0.027407613780116954
0.009355216979069438
0.09305344513330915
0.06511672480014079
0.026362205154185754
0.015029833779578585
0.008077016506443798
0.03246425340683797
0.002288749743260114
0.022361979901006135
-0.07427858255640737
0.003415099907733241
0.040419521609639984
-0.00850954716001485
-0.00149790945808823
-0.021397515066767625
-0.0012218808494336567
0.01040281422510434
0.029496915916409662
0.021979057998572464
0.01651356939282468
-0.07263118468233017
-0.022987382058137766
-0.004849352221255023
-0.010330427821686902
-0.027025602722501478
0.0445022208255146
-0.11988802732520099
-0.14438202385534404
0.025939412105140437
-0.02640094254748705
-0.004281110259930966
0.046633176080544736
0.02819341896920741
0.040250627590438084
0.02514819609634539
-0.004502994454079883
-0.004852099505235412
-0.009179473915741762
0.012775796263940388
-0.0005635055065616795
-0.01101422746649989
0.0026017165265284623
0.15199147948023992
-0.0034018477956816516
-0.01223857677793237
-0.011061037320851244
0.03317999114370923
-0.030104028239318237
-0.0401620361436194
-0.009633825159759864
-0.006323172748709908
-0.011969341529102494
0.020894206663561957
-0.013909623764706232
-0.01452958814700466
0.014204430062599777
-0.02203894073813262
-0.019934531655110516
-0.013601366004356814
-0.012336626370295149
-0.008967110065600394
0.006409373882743895
0.0027057609527878215
0.03741338611743962
0.10484933359410892
-0.010597476248087077
-0.002237777253553689
-0.009426319554471721
-0.02267914381999133
0.05977312027324271
-0.008229091220412205
0.0059569647494772835
0.04640616473178223
-0.05603500237597857
0.015120555529027328
-0.005760475251709766
-0.05239468390151142
0.0007007639726675565
0.010094563945963454
-0.03293005964198853
0.03145239421869544
0.09411936726304648
-0.0012430474605544036
-0.07310175478830176
0.022293558836136533
0.0909177792087267
0.02468521207322789
0.0026008077872027324
-0.007023751663803873
-0.004372111848345356
0.04113234691883246
0.01387012355681263
-0.007892051864105203
-0.001952104544663568
-0.0023908528233872873
-0.0004903784950494494
-0.01914965235996693
-0.018222923825721785
-0.008473342272077643
-0.01928080712056273
0.025171391531105678
-0.13826630646991617
-0.07240083073554682
0.0507104209481726
-0.01300550782779515
-0.04963607272014171
-0.03978983878658314
0.035804393465905276
0.020425570295206797
-0.0008751174562529006
-0.025315501138891132
0.016350624714696206
-0.014517343619672466
0.03463812110725973
0.05177250680287685
0.02122069896048071
0.022482156337895645
0.023437212838719856
-0.020081075714761473
-0.14362446847564614
-0.14607857393336315
-0.03951197589643286
0.03480541117716333
-0.03012312414140635
0.022094517252876762
0.14772063749719022
-0.02207640545227734
-0.013608769714031934
-0.023163582371717156
-0.050486863878497566
-0.06149109529430639
-0.02232462466019896
0.049071148912660005
0.12164448123519674
0.010888593682613884
0.059125621577612295
0.03437884528031418
0.004780316143588585
-0.022125301147599915
-0.004503744303589355
-0.0451259608417541
0.03207390923588191
0.06973407905974345
0.023974399077118243
0.04440961198472334
0.021061735323926748
-0.04049699337096994
0.011175108544783617
0.07870993421259669
-0.04387077422869423
-0.04873631108945168
0.0049187999958452255
-0.009506006016160393
0.052821398550875164
-0.003935641438340141
0.007269686600187034
0.010273892576301338
-0.01755472632073108
0.010460833085395799
0.019437732499511324
-0.046787452751551606
0.01235034111722189
-0.022430447981673166
-0.01277112777993483
-0.027365279577812592
-0.041306593566986516
0.0496169902662209
0.034461337261470645
0.015370241013861733
-0.0035141474000464587
-0.011376397218554185
0.004353940191054181
-0.031757075271685226
0.011280892439421365
0.02811695260951525
-0.004330244848369376
-0.09128359995066412
-0.026218599890796192
0.003986348747087716
0.07623717047668468
-0.02688641729840802
-0.040733649266315924
0.04568907436620654
0.036493028106441984
0.035671777822797957
-0.010563222540520115
-0.01458351543207197
-0.010584947596551535
0.005460266882383804
-0.012320584970232269
-0.01331394670248881
-0.013178172547575357
-0.018214132411860432
-0.006725030461615292
-0.03256660491686947
-0.17149810794296608
-0.03790303461334087
-0.02055842028598859
-0.009186466366165144
-0.025881498266449414
0.08189151080844109
0.01722887775285043
-0.021125234412900838
0.03940806037721064
0.0021331634723605127
0.02617801576642456
0.060852158606838874
0.030711991311192923
0.004147980789930102
0.014159175569626545
-0.016352674166452818
0.018802910187441898
0.06904478003822374
0.031051096030237393
0.015732823636430852
0.009482466238815412
-0.0024720433601334406
-0.006876999629935997
-0.017799131891931667
-0.019012424589608546
-0.01010639375019903
-0.03746277215304119
0.025474566683742383
-0.03660500725705483
-0.023145484924265085
0.005236116341153635
-0.06893827650112479
-0.049326496424045185
0.004207009865219338
0.04349500373044457
0.028060030824336127
-0.007650337279653004
0.015624629026250269
0.01849329746266687
0.012279353384845513
0.015460915641784397
0.007745040663311266
-0.010935258873864425
-0.026567606563010278
0.02718655896205221
-0.0006878322780332518
0.03546822516991109
-0.019729853275839017
-0.017027978211844107
-0.0029885396455807964
0.07363423518968944
0.16823246009634443
0.061082941055318744
-0.0432568251768487
-0.06148323584945837
-0.0075715425217252495
-0.007831636365676615
-0.03479963569181528
-0.0025464131868620445
-0.06060871801660391
-0.0135084494484083
0.003679313744997719
-0.0351536773925357
-0.0652964488513326
-0.054450001105714206
0.05081753448898253
-0.019520588731907106
0.001387276156052029
-0.022667958287831417
-0.06046316728980844
-0.014016842970491102
0.05512119332034256
0.06759205482146906
0.015304300490051088
-0.011280695616393702
0.058548337445935864
0.026428536899437517
0.07524345319919944
0.0013173047007867162
-0.012551896699943431
0.01302993680036941
-0.011155899986789702
-0.025267612163899403
0.03339607274148658
0.0049985028779688774
0.04292822431709099
-0.03211345527899415
-0.016279798966310304
-0.027660208118269563
-0.020335265758376582
0.02883299938868754
0.02079577592979591
-0.038239622970000255
-0.1506632431692033
0.004210415728443266
-0.13862951262710574
-0.018187712070179583
0.033558977502714936
-0.004262154975021851
0.01927884977601559
0.00859170984451289
-0.036303701923003
0.0344405939237037
0.05830158046349575
-0.031076506438821913
0.0008236393877121841
0.01994724717841017
-0.002996106322322957
-0.00409756862085114
-0.03088725867927988
0.013023254590605014
0.0254087310720964
0.03848812420262313
-0.045795987471146035
-0.013993128815964952
-0.03144614765801279
0.038478096953216266
0.034399517314568036
0.018963983864091156
0.003763960489195347
0.031306720829877996
-0.0043172781854047505
0.05046702594252107
0.09229372309193917
-0.006824843284936141
0.0234806771427378
-0.02113040641254684
0.05829821066815663
0.02576785831228563
-0.1374489033621829
-0.12530815503608586
0.007774104266629702
-0.002739985730599994
0.06961605400141932
0.019592174346308944
0.026011888481223055
0.003231315799038875
0.00809695600736995
0.018794005501728838
0.009202594636170382
0.06680414132907048
0.019798253266692566
-0.0127229367739113
-0.01708719223467839
0.0252248476049586
-0.0049255628047180635
0.009999727455917101
0.02690435121379997
-0.03727391408353524
-0.047284225206498304
-0.009138764428134888
0.024093402014803488
0.014374206311625677
0.010769012063906977
-0.021168785960572967
-0.028676595530164266
-0.002658218451190967
-0.0188453115105177
0.019368691924224624
-0.0019829537665375908
-0.018786848062714658
0.04811532170709777
-0.028121193258316243
-0.057744557658083985
0.03709074123961042
-0.0903056172506563
-0.12485932784607033
0.039832259649260675
0.020720347370778144
0.011148928973481591
0.050043729511336885
0.04454136578302252
-0.01748841837006844
-0.03741532297927574
-0.018551863295787566
0.01728182277708257
0.011902852692449287
0.02271872111845898
0.005660667913238946
-0.009468256304024264
0.050693669745015615
-0.04526187547369076
-0.03540914365961136
0.010655535812631758
0.018661768422071366
-0.0578426431629136
-0.002856247420858618
0.028650758758772734
-0.012285260811270638
0.035116534073441424
0.1060686528613622
-0.05078739600264843
-0.16227584459252942
0.020008421259716202
0.021282715335833983
0.03225104311767835
0.0029908413227356283
0.02981459423864194
0.005040037544647641
0.017478339895368247
-0.010231299784101639
-0.10293225161915963
-0.0070072776320610364
0.016191527094717637
-0.0059156764564362845
0.020517549539566384
-0.01004532733071536
0.014066086674947931
-0.06593728502751589
-0.08565943371862465
0.02371107615445136
0.02753329498312451
0.010471428157492612
0.03813956793864613
0.05136128315535333
0.04499297791288891
0.02750345543631986
0.018666654220742467
0.015039991247390343
-0.005464776768510396
-0.003168768697592159
0.02070321538989598
0.033236378966263726
-0.012212951177922786
-0.005078947343086542
-0.000988445010315235
0.0829419264948079
0.04462776235180975
-0.07214900081799402
-0.006313636207515776
-0.024612496846421392
-0.0029826213419259437
-0.0205482403875128
-0.003007268839964356
-0.013002100343263642
-0.03609323692627892
-0.007483337401530868
-0.004918353390085634
-0.008788573119277828
-0.05170386370626383
0.005300919452250647
-0.03373832386390711
0.03662878604241362
-0.06933319733218297
0.017365117258242115
0.16392046486230843
-0.0167814952909468
3.954912935798326e-05
0.02028135861463338
-0.006802847431650682
-0.011398744232146332
0.07966029655951493
0.0035134158075157385
0.011232817874245855
-0.021233274538237444
0.016393618354123524
0.019279951229064674
-0.01898287808580923
-0.10940442139819857
-0.0075943489980922554
0.002184488597079731
-0.01820785800236433
0.006967934123685993
-0.015291784385451047
-0.04169314005012241
0.1513885400516202
0.014113306074690298
-0.0016669308326003826
-0.004030014514496128
0.01210123873547041
-0.14747247064640737
-0.060954429260617796
-0.022656384840283803
0.03074353367163232
-0.04223646834461992
-0.12485814246895735
-0.018565957131754553
0.08149139795756971
0.1785598358061005
-0.003080301467646953
0.004157009299364581
0.015341366427635436
0.0049820093414207015
-0.05423395210724877
-0.036991523712055774
0.02080340795985189
-0.012962093005659014
-0.01829653791876237
0.03276358774755658
0.02961262673846843
-0.03958369313646823
-0.03669093798228989
-0.017526753980063287
0.026246796430217774
-0.008228741509960552
-0.0007660669620765994
-0.014327072644549372
-0.01352788944282825
0.06705292261617497
0.16201901554401235
0.045438155554713845
-0.0490768127553984
-0.003737179690492547
-0.03668741015017939
0.02055970128321673
0.0075398697831107545
-0.023608228467029188
-0.04045870549111238
0.02346145475109165
-0.002000367417855547
-0.0239941504897757
0.036054648883297825
-0.038703904610444075
0.00727894229095747
0.03873401447622046
-0.03540524607886515
-0.03415479087830953
0.010026086265315141
-0.013574019381869976
-0.08702031205073138
0.0941873406892917
0.11503637292684302
-0.019155377408198417
0.0014797761116011393
0.0006156477650588601
0.02281322432013368
-0.0014230715877851044
-0.11325418892853405
-0.060787548784879075
0.055908815663957126
-0.03174358902367849
0.018935561401305125
-0.008223957393986103
0.01628291688232678
0.011525858501792866
0.026517057131927244
-0.021805512792420018
0.001259483723821303
-0.10165076268905998
0.05575684507533128
0.06738775896442596
-0.004537308018663914
-0.04286826776353146
-0.014332350255433859
0.02149773803100277
0.019043236317208053
0.011132504713016774
-0.023811427843857376
0.03018029483838974
0.039100370870643004
-0.03380964734397994
-0.024334393436340633
0.018591233630507183
0.04121284942999252
-0.001594967988672241
-0.0005081480848679638
0.06732020519334467
0.013389206978690794
-0.005619741923720772
-0.04927478901411261
0.035052310586671694
-0.00011665043652717642
0.003646544302460164
-0.022241067198101275
0.0009658281257996151
-0.032618396452942344
-0.012991343061687687
0.006247337157527922
0.00865021075416486
-0.007650433140114826
-0.04413951525426554
-0.023990227581032548
0.001578290912284212
0.009400755439584711
0.053308587182513995
0.006679932729500251
0.01358715496832564
-0.015239510285439756
0.004588921663441715
-0.10170273219898769
-0.01805901592867295
-0.002153761332500838
-0.01744770075599857
-0.01224873896006921
0.0008862227919520374
-0.008834656050912446
-0.0007061641411958611
-0.0009502671454554128
-0.006605720913678005
-0.018636097103522698
0.09160761746464924
-0.03271224612874005
-0.008833062648527408
-0.08057795055102981
0.0007737047858851147
0.020927168960264322
0.05276546628073532
0.014589645321942351
-0.04552912680135861
-0.05701926954263195
0.005058793702764913
0.05114526956975732
-0.010551907720973619
-0.041671802758334764
0.0014593838249611496
-0.04807956000306809
0.059400360805175724
0.16354314144703974
0.03941237291134431
-0.041562885043114416
0.014030393251021211
-0.05307254966634629
-0.054091701855926086
-0.022516661183874506
-0.017302129793335907
-0.019843534509891746
0.028304307088366114
0.09653093787036889
-0.0059999075642324096
-0.0075308835251840294
0.037094324992158104
-0.003300655371529378
0.00963337669160706
0.005645801731889726
-0.042563503486696054
-0.012424691447098657
0.0006542548543522012
0.06912158476262277
-0.008636476247404892
-0.021990368793901385
0.055904666523776333
0.06581832168132769
-0.00245988047238897
0.021850400636658805
-0.012759643854137578
-0.01162439803432621
0.0061863165750895245
-0.01995558982203714
-0.014232310981483002
0.017353486748159192
0.0029911445862219536
-0.001216067266026362
-0.030761097480458424
0.0202975223936501
0.04981718200499689
-0.07811974831956763
-0.15659511088217373
0.015389321280141142
-0.009178572709825824
0.040470021674199066
0.026564619467359475
-0.05993789284424253
-0.034864508469454415
0.02447526389923391
-0.013875777931391931
-0.0008965178993457322
-0.01355306276089562
0.042157633141830846
-0.021078744056171453
-0.015418092679267699
0.014352251918749592
0.03951166851594414
0.1259579925620725
0.03328484376087074
-0.027759417581899454
0.011305280742710783
0.006515437034527828
-0.021044008773186528
-0.06005295091447486
-0.00618022169329578
0.008580776518692835
-0.005158356730104824
-0.028197520685345225
-0.011370651331988967
0.007063613672459915
-0.01957368813831187
-0.004366495639090368
0.034703782838402183
-0.008499818824425564
-0.02043787003888125
-0.03103397888984584
0.008151914897991186
0.019089751340021836
-0.022038142030865078
-0.013436915616819443
0.020974765393815965
-0.004514360475736118
-0.030563340783500887
0.027318146892644883
0.03683504682878762
0.026548817211212883
0.03585366684585531
-0.008123138323817865
-0.041089132786162955
-0.006983555301083933
0.02902451024347892
-0.00038352823541645326
-0.017945220736293805
-0.0016262190026857394
-0.01487557914584376
0.022365746289069562
-0.027086611916209563
-0.05138561114770964
0.00024126782858284885
0.00460392882485751
0.03895434465943536
-0.007997012143903097
0.0034389069677562153
0.04490525756895514
0.023744760600691864
-0.027108866584332272
0.0003359717233227414
0.03022568265035712
0.03547367233953977
-0.048916550471721235
-0.03708965599856583
0.03345467076267863
0.1435693717183464
0.03152263368795999
-0.01617957665783475
0.023687671207413493
-0.005161353422182012
0.014326092256539113
-0.014433601113207913
-0.011664061549145094
0.0027608575008788616
-0.0032644716703806803
-0.028930312827692563
0.005627148546770769
0.01985820780611631
0.0007504710671093341
-0.008189237866472935
0.031925848827080064
-0.1399577017713775
-0.12692352867703224
0.029676378681557553
-0.0031898178562341476
-0.02698335653189932
0.005282023657075631
0.002132858043304344
-0.049425337493125596
0.03451501224192421
0.020341134015352598
-0.003442730467955507
-0.16380715523002126
0.019272950018121775
0.032292712656867645
0.03134034334597655
0.0121787970217705
-0.04008498786728037
0.025838123820625926
0.08306129971285534
0.0009354862071470852
0.001370045457027151
-0.04116443363155993
0.06359936378232053
-0.10580163944136678
-0.044105098712925
0.034332833798571986
-0.02282701143504032
0.034347924516709975
-0.02916841175420925
0.02908226401378789
0.0030743017792676337
-0.023093740472498587
0.03840443631891537
0.041751047860151845
0.0048711358804341956
-0.00026981835260578193
0.042700080710395445
0.012968781445827577
-0.0019928962442115694
0.02041006897338393
-0.0020338645160877743
-0.01850847420646045
-0.0036803283213148073
0.006784318705511286
0.012475547994493739
0.058771106203129565
0.02479384824787009
0.021115394677590254
-0.18178887381271971
-0.10304895093542782
0.01238537987079918
-0.015376019872731147
-0.002847835680312109
0.013753580128139114
0.021730609909385332
-0.03024768478059451
-0.005480907083506231
-0.015316316857791203
-0.021808044261006007
0.03594385461722452
-0.00899402821289888
0.1827457977024881
0.24401345417507933
0.002800027446452905
-0.014734133461516545
-0.01890886359265458
0.042543748405400726
0.009445715900798478
0.020284086364713284
0.017292034965423655
-0.02013207961634121
-0.0062635256840480645
0.03732224740959529
0.02448564733272864
-0.018606350507576662
-0.04563673606854333
-0.0742138489793513
-0.036082598175630635
-0.025343916302777037
-0.018949392097748454
-0.003441235176412024
-0.03855270121216057
0.006682380476438502
-0.07376627464579984
-0.11338815552690998
0.027069663668149953
0.025068619154180072
0.011599755446319911
-0.013840556851989242
-0.02475126010826786
0.0020930863191318564
-0.006072610432519366
-0.0022840980706172963
0.02271541852544736
-0.03841651862665405
-0.03479612741290008
0.00824249069431579
-0.0006828334107994141
-0.013727121678753642
-0.0002455951167542286
0.01723223816865856
0.03218982458160749
-0.003855672891180811
-0.06079810935173732
0.0026051592948317884
-0.006519829112632093
-0.01187238834156506
-0.023758441652296014
-0.022497392096182428
-0.03156881135469968
0.1658173232591843
0.10394701958753835
-0.03218577510557362
0.00042929186866777865
0.03118187277892253
0.04714215985178039
0.03418511844986865
0.003501113389219008
-0.005438698275737385
0.012989494662065127
0.035897414047306134
0.03768551815594417
-0.03036055087428954
-0.037963920907223635
-0.030239744149011115
-0.018726844380629177
-0.020212363269558588
0.0062980424275646115
0.022259150559117535
0.1258610752199393
0.01982698919824255
-0.04195749389196894
0.009305657846675041
-0.01134052389761013
-0.003416911875099259
-0.05744138430906557
-0.07339763709360728
-0.05174867932441609
-0.02480629837409905
0.00565583734509408
-0.017515972068316173
-0.02044687883560031
0.011459699722196123
0.02809366069713833
0.0029881229298527696
0.017759485138786862
-0.06034295355834678
0.14263634744179687
0.04963643811753977
-0.011773341706002104
-0.028176388638041793
-0.0015102777663630231
-0.013785143374098781
-0.03572600986651193
0.0502964962819162
-0.00226202287927631
-0.01514016808472304
0.019292007543453515
-0.015511601200858783
0.014337271018813779
-0.0702360120708238
-0.019084822808672724
0.011069872993700443
0.0072121895222255665
-0.001680114055450038
-0.0515458148890676
0.0157727155347139
0.02448897392201839
-0.00510900946393909
-0.0026666817101196824
0.00944019967257779
-0.003217609966982589
-0.008226379049312641
-0.03535615427221822
-0.025329320878418264
-0.01931821378391728
0.07443500797577637
-0.01208220993465514
-0.07589278155071454
-0.026398022026381137
0.02542506272212175
-0.03235064669526861
0.0022564778527377452
0.023438088318048986
-0.020319838868129075
0.015431795201630254
0.015612392053406877
0.04055251021547324
-0.011090142787699306
0.016519388332720146
-0.01526658949487993
-0.015760990204029497
0.027352841510561797
0.09149338347729663
-0.050380400856302854
-0.01843344763985385
0.0020919819178035004
0.003501447726507222
0.007292187240616724
0.03720021906315189
-0.016198009450291873
0.00650928042117176
-0.04404798808730567
-0.004759505660417064
0.012563763127395999
0.005433951844802425
-0.005457525424933735
0.0428939475202694
-0.06726048798584515
0.01946748205146359
0.12411122705546489
-0.0064162918794518995
-0.007254204497784665
-0.013568180246941333
0.002721075803112097
-0.024359688674932694
-0.017206123125948342
-0.003192917843694572
-0.03988189385235709
0.001991754396953922
0.014928410687465728
-0.028427627466607843
-0.035263466224271636
-0.006037981082665487
-0.008670195587399933
-0.027811892419491696
0.012380363624507734
0.013446675065896573
-0.011847523399774221
0.036978076072481214
0.1497871194279271
0.037005117032637244
0.0035095539982657885
-0.0035395638178835802
-0.011148811416329103
0.04552610542366823
-0.01088821222747075
-0.028479442578426627
-0.023214500214087313
0.006097706441651139
-0.027712962593027655
-0.04734431254533636
0.04191663257333723
0.005555646951895682
-0.014731159382275406
0.008969098181029967
0.028829583611330582
-0.017080052163063752
0.0020132315672960525
-0.02756481139765588
-0.026409913141132602
0.05614888926325147
0.005865782775012716
-0.006725933868044433
-0.0027877540294101023
0.01203359696850053
0.00838413833713285
-0.03465464922055023
-0.04748239613708092
0.01314417019330947
-0.05275910507082548
0.014207469618983162
0.018291133401085742
0.0306590720115706
-0.019968426637832177
-0.0548408743550276
0.0029813531996654825
0.05724632787447087
-0.059195501984565295
-0.04048143049336819
-0.045462289718681666
-0.03952705819786216
0.005474479962168936
0.03513875053956453
-0.007009754725633759
0.11830685975303344
-0.014026657954782615
-0.03615065337230695
0.007174758263009079
-0.06225904835544256
0.018143208080689484
-0.017393032523854917
0.0174036078663132
0.15891533766179866
-0.027758406816431214
-0.03949766773139314
0.006793669604144259
0.020250151686802546
0.024147945145534398
-0.007157215187732806
0.01161358992274172
-0.006634676589655041
-0.018666368919626246
0.04016372602658566
0.06244565728249041
-0.05045464890812477
0.03207514337163931
-0.0705324168260508
-0.049071808253447584
-0.00029322209411768944
-0.006979924858834136
-0.008082785708279172
-0.023625121051425352
-0.013461011937079081
-0.00045069643890789576
-0.03730896819599608
-0.0082775138961111
0.011105341943102398
-0.02874805626761295
0.023940779913242637
0.0038656747782852227
0.017062996693264342
-0.01599675035490697
0.020338430961075616
0.08322273230091104
0.017731600357557546
0.0027974648542452994
-0.04657401585067996
-0.03301729213401577
0.003383727109567332
0.03486629587345919
0.016886231415243133
0.01222084743268515
-0.0014245421985171606
-0.03638146862159822
0.011072547625838461
0.011964255067207318
0.020139657744544317
0.04416623165722262
-0.022202926679853074
-0.02156627976921782
0.030114423157846033
0.05225322289625514
-0.0026474742983780015
-0.051570292786886844
-0.08216544099572258
0.0049544526748935966
-0.02509358175676477
-0.003281373807231417
0.04570568637941043
-0.00012691940306980447
0.00784949492106036
-0.07346893712871096
-0.04030323160515232
-0.05473364319781298
0.06366441477039453
0.09684772446760931
-0.05754846756052676
-0.03939989871864128
0.10133407924332294
0.062285111348437554
-0.008457369866320289
0.018698343160960938
0.00519922712326965
-0.006377413761020507
-0.005246419547392776
0.08452549441968085
0.05050137402722217
-0.011433086799471762
-0.06619002055931374
0.010038174170327156
-0.025244554020166197
-0.026080344406832514
0.03149530423642872
-0.0432567209598938
-0.010121231467882666
0.02259076392373256
0.04251651655562749
0.0009189658365287404
0.010835373803215557
-0.03591540144927972
0.01461565691075155
-0.09923172314341042
-0.13453281507250645
0.02692510726721149
-0.02788330671899523
0.00034096787360131966
0.03454881281184162
-0.026203189246594823
0.013457270987786723
0.09744635559032569
0.013743815564884743
0.0701054831220199
-0.013392321869006159
-0.006402164849125573
-0.02581501520042171
-0.018485680452877663
0.004317600013455845
-0.007533497279431284
0.030306759400549
-0.023298823995595214
-0.05002493258743911
0.02967480470876373
-0.008361505066493056
0.006458999257500684
0.009817422352363657
-0.0032353596273311824
-0.013509635093800241
-0.06669001319480075
-0.07051652616121337
9.985560137137416e-06
-0.019779317399193422
-0.024906196669738936
-0.01187953780972759
-0.026746149825142444
0.03987731192446584
0.055698545304631315
-0.023998113484365615
0.01441381264577473
-0.0007813947963230352
0.0011639278793835277
0.06321601939578193
0.018509880146510862
0.05960566849868027
0.03811635929332915
-0.052068360310946575
-0.016176755873125104
0.01337300739488991
0.0161362603057177
-0.01585124605486694
0.05289155097223402
0.11299699319086867
0.1312126115091098
-0.025940021305647324
-0.16103977407539768
-0.039323945547829205
0.012844442425909392
-0.027696814329216935
0.019126677968103946
-0.016434923102993784
-0.010446123434350857
0.0005299488418598564
-0.00033201477248791857
0.025495243073333656
0.07839484298006245
-0.01994591067676245
-0.0344508108584633
0.011768321526588502
-0.015312395125440385
-0.013377947184040688
0.030640282880233693
-0.035328799520773134
-0.04185033439620681
0.007930154680678843
0.004444635804220867
-0.027793006249076657
-0.029876165133417863
-0.02080652906812371
0.019525050409300818
0.0012952147471999437
0.047659374824376786
-0.006516156405146627
-0.006384868015819687
0.018766324331265436
0.033612996518665714
0.00414511267448549
0.005271097647895763
-0.08524471494889375
-0.02125151775325994
-0.0027486077670326164
0.008335316267702945
-0.0011868665482582094
-0.018797408183901694
-0.01452353063152534
-0.004217616004172548
0.03714945907598516
-0.019272675037957793
-0.06113267656024707
0.018073257623800746
0.022887470433221355
0.006934081247228015
-0.007997983449563997
0.06406936288490242
0.02815148980998391
0.0014370284269325094
-0.02209009514011002
0.0014593685202723037
-0.010182483199640583
0.028651572927687642
0.025499973141806055
-0.02345343478330779
-0.03795872080959756
-0.0019657760929111742
0.032884158009096935
-0.02998277152614412
-0.014283411829479911
0.02196789547557839
-0.024096849056171328
-0.02071052900874134
0.06285274538895862
0.08288542967604501
-0.023871421918109894
0.024318339270077427
-0.03733657982878603
-0.009196890493816863
0.028878385578329877
0.021104492430646854
0.008839297928727424
-0.004951754335076487
-0.0020654170179721437
-0.0044673624212192035
-0.000944930460489283
-0.19607467746248272
-0.03863284786203839
0.0723572303554883
0.0015650892764168735
-0.006216545537566067
-0.04859793087294776
0.008277803330081988
0.05243289172522102
0.04257804079876646
0.005122263101344834
-0.01905698361741573
0.013964726685239404
-0.01637193223453275
0.0035313976130644047
0.0218967331809414
-0.014012134415549844
0.011126336516513177
-0.00641514396836824
0.0029362081048179283
-0.007386960950495857
-0.018586083272654975
-0.01245463921291974
0.013176152955048403
-0.030701471778357442
0.048486539349146957
0.03615689479570427
-0.024989405733485136
0.016057125068186056
0.04701271414175434
-0.024573984143460542
-0.005350740366924222
-0.008324797505196522
0.07517960137127871
0.06820181032034543
-0.00024217558090267852
-0.013787948972481978
0.007159090765523387
0.02628231256187942
-0.12628363874933082
-0.012606523666658364
-0.01686252848280501
0.06607162323547894
0.077192815257289
-0.061697021726788835
-0.009806668881962525
0.043421723042578124
-0.03996128352692202
-0.013505827808691483
0.007273509704888882
-0.05707734396721757
-0.024493527021225883
-0.046016110563984726
-0.01929935325941264
-0.046480851151987225
0.024170771570470928
-0.04507916370736684
-0.009472382714939746
0.03823142430498514
0.028973898597600693
0.015760559815178318
0.007795102379084582
0.005419569311775795
-0.04264613597740944
0.023076843150867575
-0.012372292604621644
-0.0210157546581109
0.003976600471564962
-0.03159774389441805
0.0007271680303897651
0.007299411342403002
0.012018301985752228
0.008417700402569565
0.028360711482868197
0.06909808385225108
0.00122020762142761
0.058486111726294865
-0.021585161767216705
-0.03884358150345514
-0.015410680621434537
0.0447807213996361
-0.0047288220704693055
0.034953429593961444
-0.002076147496675702
-0.03503705282543563
-0.03316484758391139
-0.03792077521650412
0.01716204039040825
0.05972570355450136
0.010489285404760487
-0.02151410571657528
0.02088105021358169
-0.010094889964411336
-0.035625492507735765
0.011718533564226523
0.013501200713497715
-0.0030927917765708915
0.0033055634776278198
0.052664458997107325
0.039856246554512975
-0.005172851891681533
-0.006244824459537864
-0.06037969290074658
-0.053964028315906305
0.02704270134273092
0.04325802543207329
0.002093547419918144
0.014370198761717523
0.015321501247329778
-0.0217197462672272
-0.04169845855071605
-0.06919287769443867
0.01658064951882154
-0.02393278980810168
0.030338500767640088
0.05184244010531946
-0.016355088212094214
-0.02101274801905323
0.0020486236131417243
-0.029827277264165092
-0.012223888484775458
0.026065201397400487
0.033289661050209716
0.005252699110535574
-0.0025709568258482046
-7.802060721135378e-05
-0.025222108879511703
-0.02894686667965985
-0.031186462084596793
-0.0007905842249508994
-0.03337044908888275
0.025654764599605178
0.058244776893097074
0.012840370240454957
-0.016825915383237917
-0.01679316936434394
0.034413166546809815
-0.010914004019484566
-0.027491994594072543
0.04170179712036988
0.06925189808245549
