0
0.00436079418200771
-0.0028117833823116333
0.011939396228889712
-0.051570321239749334
0.019240299342162502
-0.02480584535063476
-0.02176446530764033
-0.06053852125807848
-0.010123772455993543
0.04536037153903601
0.0069709774180473204
0.03675297666238309
-0.0012969832317693494
0.023580607518162957
0.006098523211406358
0.01356358033925717
0.018243461299762242
0.003076681165011977
0.007159305199532315
-0.013381204296391232
-0.019943252260318355
0.011775346469831522
0.009118123191073437
0.008847398799256995
-0.003078562059212368
-0.005186530298493141
0.009700071880694947
-0.05568012808702795
-0.048396638617173915
0.10193735653831014
-0.03513710058113235
0.01679522076900384
0.011003651890672561
0.0014836449523722866
-0.026371201595403834
0.016216277176796738
-0.0467843689926092
0.06878934493666941
0.00043539338367116527
0.049622837083336965
0.06670613306855246
0.0024561050222332167
0.0046405405605441895
-0.022473830690012638
0.00016947101025150936
0.0002429825732935583
0.012964883122933925
0.02536229457716404
-0.05551716487935042
-0.02551026286871462
0.013158515422511475
-0.016767676561409286
0.01046550934661878
-0.011438660601829194
-0.002340978886686747
-0.18250616660162827
-0.057732100732892026
0.0005267466501838666
-0.015967066824329364
0.02577191536700741
0.07518519908999965
0.05678535088213394
-0.00308043925695786
-0.02860403457412249
-0.026328559477080054
0.055339893013843025
0.001397994322832883
0.0503582669440929
0.10308407223086818
-0.009730156522388404
-0.02577318769892689
0.028052771369248178
0.0659057174555587
-0.018520040796386448
-0.031612468587861826
0.0032564373451899544
-0.005417012265439559
-0.10770377466879517
-0.0747484372541011
0.004527200127716114
-0.026951243456419697
-0.030598726709971578
0.02383989019999838
0.03034035884566875
-0.002220575304549316
-0.002075817397778163
-0.01972185326919968
0.018594815485350254
-0.05520085271783174
-0.037194337813879014
-0.022558199608624627
-0.009818978415859105
-0.017385548592959613
0.12205819109075547
0.13292323667223388
0.00294060108959993
0.08015759041812023
-0.057468705170740216
0.001632952981623658
0.03329636015986636
-0.0003444774354522444
0.009760182474709105
0.012756316279902176
-0.010091735600566816
0.034725829254502336
0.01628692846894639
0.06084097580845567
0.007504409480664063
0.004841525808717613
-0.03663193842691825
-0.009677980468636016
-0.035232711460408586
0.0011271994991123926
-0.002922561045098739
0.04847613637882183
-0.09328301719965136
-0.10284429524536995
0.00850417231466891
-0.0366013024082994
0.014804505846275582
-0.005072610109050691
-0.02490600363541232
-0.015632854817350484
0.01868825611029747
-0.012406231229474473
0.013389329320227763
-0.008763419141875608
0.03460383034519932
-0.016117399863486696
-0.022357269205387168
-0.010669624200237543
-0.02594317042009715
-0.01060492316823821
0.01865132005838357
0.022352915888260577
-0.0004960603641994509
-0.011932068097683763
0.0012540127426326603
0.0044130224790191325
0.010168349201737755
-0.041084347128561835
0.003869552598844837
0.007210327441164206
0.01673959763084002
0.01351226970903372
0.029087533169862262
-0.02455164431862498
-0.017020623839142334
-0.001939449081221567
0.007763572354232992
0.027749866852907465
-0.01987641886877868
-0.02221719037774481
-0.005202530529005342
-0.024827734434519553
-0.02201494891880765
0.07942504888708536
0.01782891850650575
0.05171669677069727
0.08926460354119681
0.001810574084776885
0.016337428643361875
-0.031183939713425222
-0.01085214633648903
-0.02484393011810065
-0.0076901131364211376
-0.034712672617664905
-0.03616905663639714
-0.02048319662422623
-0.04384036902882161
0.00417389144069969
0.058590766780467214
0.07026924591068522
0.018010002432340817
0.027257182366850274
-0.0006300840732635051
0.0016067400217959905
-0.02013984778970781
0.018064515275340916
0.0249159188329852
-0.029010123586532488
-0.15693143595897963
-0.02130429276864191
-0.001487701299493197
-0.010528277986881728
0.046398893073336105
0.03871931839294756
0.008996968866275587
-0.046089520334912135
-0.001537197998110788
0.012388062051247968
0.0323432730035011
-0.08544736906241034
0.07569929978053332
0.07080618107586571
-0.024710151817733096
-0.008553349601977888
0.011645749549346326
0.006267380440987745
-0.007450736566819716
-0.01161809703382758
0.007448180181532547
0.04038515875114504
-0.017608421576450876
-0.12468467567431504
-0.033086691612751455
0.02362778229180717
0.042107087388358
-0.033113189811191136
-0.0323354680601568
-0.005680222566204552
0.00540512484110956
0.044076550226206816
-0.002048134598100916
0.008615402557115459
0.004986744783662438
-0.00022066705297455263
0.008117394792892599
0.019195644435277725
0.05095645926255272
-0.020077555530457238
-0.0018566680285435205
0.03908806787236567
0.003959377491417306
-0.016003553739030375
0.01072396291938163
0.04777178309972797
-0.010919482097821592
-0.011080406466480622
-0.03186023142715465
-0.02189851611150166
0.02413309464685047
0.009493850663836453
0.024315960197922912
0.021106950154097776
0.005928963991847954
-0.019046828964132942
-0.01624458342909034
0.003819379799969238
-0.003342598439884611
-0.012810280082292472
-0.0017879702186432904
-0.014528311880083262
-0.038838908279074484
0.006041828953017295
0.019574911158447405
0.031761250321586755
-0.03669919104517374
0.022297999313547968
-0.002402424408617741
-0.020061959586469974
-0.005952794111132703
-0.057333930143956276
0.02165463843728407
0.08094589805333824
0.016866587565296024
-0.04935478609213058
0.0055817711153668265
0.02934320121473593
-0.0036186802913667393
0.0334750423251683
0.030354159904801652
-0.03211028011910708
0.008352481753890422
0.005117328869299684
0.001573778080060585
-0.19774370391268534
-0.02533439976218962
0.008597101195209641
0.008016684291442191
-0.01794034323683244
0.031118649802790034
0.012691305469206295
0.005739828355828925
0.012359431443316408
-0.023632845696076783
0.004455696334571104
0.05181672478225835
0.006985017209011622
-0.009490136392703413
-0.0012812776913124681
-0.02154216357292584
0.0464288792079817
0.06263825380512444
-0.019228887381987237
-0.01580727444626018
-0.01054672327924645
0.0004540189006747902
0.006662206571656422
-0.046192298391814796
-0.08931500040866341
0.0006186344859964128
0.03128228613635956
0.05515644663966961
-0.020309917229762952
0.01739393114883188
0.026247889604924537
0.06089228163570515
-0.053931794936403946
-0.05423527371541176
0.006268698181534674
0.04018783415704978
-0.026070551883623082
-0.036513299812229984
-0.024806523549213005
-0.011531014397178484
0.011608568357092112
0.01784856263200632
0.0011957422505734215
-0.02192517060055287
0.0615272011254024
0.011415962684509173
-0.007021664818496371
-0.003548952532742885
-0.0035064419874203004
0.02907391507160785
-0.016225956608541633
0.0013002323488735138
-0.010101486979781714
-0.011840314196241895
-0.0324481808893829
0.042833967597906995
0.04932764602009409
-0.0023617573698861602
-0.026505233877873388
-0.007733728863287233
-0.016747024825705076
-0.021541640610435116
-0.051403674070636333
0.12786835499866242
0.11318302061494509
-0.00953559621436459
-0.0016121370879156628
-0.004283341817140505
0.006380941937442873
-0.04349588837859235
-0.019379240242593673
-0.027944150671402344
0.03749799398767871
-0.03272924536625574
-0.06246457815727516
0.05415093784164073
0.12949532420919724
0.005415259360515808
0.022978529489898314
-0.03034143136158279
-0.01241151433075746
-0.004461592795898159
0.002983206653470425
0.0036929926722905886
0.012906205665732818
-0.028185446367144047
0.0043915170342590975
-0.031743341892858684
0.005087139239738981
-0.013596178577679079
0.009644138575755521
0.0008447145362420363
0.04234943831555712
-0.015496648404034854
0.05578150108798808
-0.041917008824877956
-0.15909844244377264
0.05051313587929259
0.0015265976342010163
0.020121313319888364
-0.06381998775069253
-0.19211408411404626
-0.002849173821610095
0.0795463437814679
-0.04218723217464653
-0.023630138644381345
0.0014404128460621451
-0.018091665949942583
0.015410488694114067
0.05474665751337567
-0.0004935475603835947
-0.01831201045127684
0.017907114701976732
-0.013363850241144176
0.008320422140867527
-0.03493181901549896
0.016878764915399393
0.0750806898001546
0.036189378286311975
0.007377230415277461
-0.010037552937053216
0.023351770581329454
-0.001299254204886909
-0.03322977507006162
0.043534931456886625
0.0367550491732935
-0.045023730139086365
0.0768999377813803
0.11002707138300216
-0.07795050332610978
0.027334878799639042
0.024385897216867958
-0.027244107319049436
-0.006390740334254937
0.02834552729526735
-0.01977431873997469
-0.022833899615387208
0.01128122998095795
0.005027368193112213
-0.031276453483127784
0.024957359792041833
0.025594906425034324
-0.022016250431906303
0.02382683226110363
0.018952741029256624
-0.010533502547566796
-0.0647941254169367
-0.04149815982094956
0.0017811982125690348
-0.020838717658562475
-0.02136334248556929
0.010412525240231356
-0.0689066726894127
-0.13258145730824789
-0.023406512028531834
-0.015911185848557014
-0.05393618488700993
-0.02304051450893661
0.016464956164922395
0.14573090055833518
0.14241593494807556
0.0001549787127280942
-0.01604085061198242
-0.004769665567051893
0.016840646449940516
-0.02698271374290546
0.06699702063342163
0.03908999263902717
-0.02959102649771044
-0.004947034958410639
-0.015001809205443502
-0.07211640591823165
-0.02812558114460028
0.005918496017464381
-0.03018019821310958
0.061478782675812894
0.12240026670653426
-0.027060579562602265
0.003999195526804452
0.0387013926273377
0.046331671176820646
-0.03507931413598718
-0.033184620452031494
0.017330237468618302
-0.015976471534826998
-0.015821764632950257
-0.01957089975326061
-0.044634377278908476
-0.003311725641403424
-0.008973708585867771
0.014979767101842909
0.006751246553565904
-0.02581200920003078
-0.06817206400626381
0.1477307459167942
0.07185534751560395
-0.07374034295096622
-0.012497365318680776
-0.005362129483641004
0.04404818627748514
-0.022152959793102087
-0.031941836408327616
-0.0057642763221818424
0.004069257366512461
-0.008486011236461173
0.063451053285759
-0.013504035488491944
-0.04203299338866678
0.005449915755607723
0.0026122889887400273
0.05383577686753516
0.019687601893199153
-0.03374058408404143
0.01958373058245146
-0.0007259108839595266
-0.023723177288416525
0.0029902204866577627
-0.0012786727642042073
-0.02412361371823615
-0.017410427269344973
-0.015790106535799427
0.032360968766687814
-0.03688239799809053
-0.04028479931909248
0.0009306026333301498
-0.01867078178730601
-0.0342885061558424
0.019194272385078814
0.02422106649611613
-0.010093670934850538
-0.03988468541425904
-0.047904083693322545
-0.009605351900204239
0.032879537836296845
-0.01984146821785022
0.03744556662753859
-0.00690481740068246
0.008681815589352415
-0.015809876241690612
-0.009671031346322823
0.04374545682752629
0.05110764328701818
-0.026586501608024806
0.006915298373309839
0.0535416806368622
0.03996856353730921
-0.028604588829940394
-0.010294468763406362
0.00047207308197908947
0.04315842771835135
0.0005799660821296751
0.006786590482216219
0.0005622263649128623
0.13858340669921554
0.0491202399961273
-0.0029028315379269086
-0.009313342745620873
-0.05663073891288635
-0.04530691389229635
0.006071578894976652
0.028115813775824748
-0.008369259892869874
-0.020004086332207537
-0.029756093429740813
0.05604300307558038
-0.03098841221621215
-0.05650638821720347
-0.012204229780532242
-0.050975487742165745
-0.022943506265904055
0.017041555893460764
-0.017470367442546923
-0.028372287213622095
0.024358661731109486
0.0016712912757985623
0.03591063698377045
-0.04595787999603632
0.0024300840267486336
0.15569229085577985
0.05465763529529452
-0.05080972182013004
-0.09863638387021281
0.0025266853927890564
-0.00044831276542096687
0.019016979711135223
0.0062116988844826675
-0.014318356096898702
-0.00036355757103904106
-0.14364364870751375
-0.03394725503517112
0.10274479932101509
0.011089238439969578
0.02003483916616448
-0.040967264659576584
-0.037184655967698065
-0.011691982502824803
0.036912482025021336
0.028101570560932078
-0.021092055323403077
0.01768997043209618
-0.01180785667775277
-0.04240916629055939
-0.0012387825095845908
-0.005387267877810303
-0.012609924064060914
-0.014116611782644952
0.011066334301719013
-0.005715977436668631
-0.006789200787418963
0.09733707310720292
0.03683642059823433
-0.023348889566184555
-0.009758379683222063
-0.002047992490556638
-0.005472418663808271
-0.04063652380332404
0.031956884483324385
-0.0013895299678279305
-0.007203388151210546
0.0025906216664993006
-0.0017778222839797814
0.011907036130240911
-0.01113249582787572
-0.014534434072139734
0.019610628223366004
-0.0036701872741441276
0.01342926716489053
0.011882058246101682
0.018088088711410395
-0.026350035238122183
0.006636049543129307
0.019545562351725904
0.00016795121849929502
0.010831527325851758
0.09919979540404646
0.010838306469046108
0.009827051609112583
0.03998041334360637
-0.013129591986400853
-0.022734986439030658
-0.03124208619215657
0.005118156039766837
-0.02668779992789099
-0.030572868248873654
0.022454780252991604
-0.008660949609321615
-0.016939442284372115
0.007632235114101691
-0.0273972243488767
-0.03697251644350446
-0.02104539951909149
-0.038954052912383845
-0.012671856441669209
0.01913574355300038
-0.009966372561785536
0.005513498402995848
0.03932596370073161
-0.02870089765490322
-0.01637108012870897
0.0019353443914065412
0.010241030309352438
-0.002703769807341017
-0.03935265830860822
0.015738526972216362
-0.00026078712150981237
-0.007614850263587675
-0.025182042630156148
-0.03523142658209177
-0.023847940451022617
-0.037425788846385276
-0.005987805455393492
0.02268831908506072
0.11679243173032378
0.11679628778530757
-0.020072412887619878
0.004972197395044973
-0.036773906995941054
0.009770550135585997
0.010337498098744308
0.017191916444439806
-0.013624076120499078
-0.01255140671023633
-0.029752028237977148
-0.032258645996094536
-0.038371076392008416
-0.013160941293862484
-0.06256391928680613
0.01807604144612989
-0.013798043264170298
0.05608073538561636
0.11257795016864883
-0.04572478235895419
0.018026442624479697
0.05314127898468324
0.06429220275899376
-0.019175972019772235
-0.020265018672221972
0.10090217856019258
0.04586122213785468
-0.0236033022964917
0.00997097884878565
0.010588535045228187
0.04432720083197634
-0.024586572781864414
-0.02508737223967348
-0.04414529425146202
-0.015609825792667557
-0.00024201937431198167
0.026341576545287664
-0.0010689408091086325
0.00027217887911223655
0.027111881600230404
0.016880085401073688
0.02509766137113991
0.04511549162196467
-0.028914693271936555
-0.12535745085966274
0.015413115069728138
-0.008289221179147271
-0.025154571473840415
-0.02511440100346653
0.029186498162061918
-0.06562495063550912
-0.03582065212777861
0.0324550051717038
-0.014557356102469724
-0.0074879513181617206
-0.004729760871066852
-0.009001267338169904
-0.011301237828926404
0.012132799384522252
0.03205799014413979
-0.08422720108249084
-0.05212412262033986
0.004365519149401621
0.023081589211572627
-0.011771999617675938
-0.02532041986277947
0.04217616050905725
-0.011443581691931576
0.01189563788183545
0.010619369384218834
-0.026772681590869006
0.014540753947128176
0.010997474533313206
0.003407858863747036
-0.03458569295485129
-0.017715773031699467
-0.04923745972820065
0.001897304739329458
0.009333810187475733
0.03219417063288863
0.02193893783660333
0.0022234889404819827
0.022457319931413814
0.031129739210895502
0.0030339851173679217
0.01486757700441678
-0.04334690044315366
0.0202357937237558
-0.020126619748877667
-0.023352710040900223
0.026720875447776005
-0.014298524721394828
0.015926134109985526
0.0856976887875434
-0.026509678906907877
-0.0025668164425065153
0.12386753443506202
0.009939791330409934
0.00753179351345881
0.0005026595805656587
0.00882031130594859
0.012204121992979183
-0.015530910671479506
-0.009840737758962775
0.0721098666872062
-0.0002835911397945107
-0.0358943241247318
0.01899962714401495
-0.025415296691193908
-0.019231633499133684
-0.02580513858679028
-0.0038832327343450252
-0.05934125385214854
-0.010535336181442494
-0.004287769304950662
0.0007747271452135006
-0.01410400426747245
-0.0001741748664637364
-0.1645746784149473
-0.02087982698248858
0.0394070624772366
-0.009201812193713537
-0.033216455403053555
-0.008263427716134449
0.01847101315743225
0.0071502449137144045
0.006871646904179375
0.04353244087444117
0.029037803394841702
0.005111878030136315
-0.002664114804045147
-0.02127234949077986
-0.01949713653626318
-0.022240908989632234
-0.04196742833861451
0.023388764775504688
-0.002062219855241886
0.03801136038242684
0.03818983177844276
0.018411703028267164
0.005235107113284728
0.02010028831771148
0.10116716261847883
0.02909704064129672
-0.004939300883146713
0.014332034972747083
-0.03249446471111049
-0.0540345192998803
-0.02182309894222389
0.002706251753171574
0.008949508161632539
-0.0169485343891705
-0.0324730445261293
0.03562497669461314
-0.00472911448262511
0.11005822948089769
0.10306825633355385
-0.011094921978418935
-0.012567584984185731
-0.006966411126005342
0.03838326350115986
-0.02195555286688074
-0.008730168721138878
-0.1306102725897209
0.008876627533984053
0.024522623276858124
0.026960105516559387
-0.016473866715500787
-0.0051834564878613775
-0.024810684580288837
-0.019369939009845856
-0.016569340982729167
-0.014076179923991843
-0.05377682610877829
-0.03333558147421851
-0.04804945683650236
0.030840441783617445
0.03638463724631275
-0.03242292907868894
0.0010610078682626654
0.02696359945475829
0.009807868194501052
0.00755513764782871
0.0013928940957848176
-0.016118048445304796
-0.03640274870870155
0.026060653868054857
0.004974946610641651
-0.010234635633514533
0.01880063951871568
0.010686653129307538
-0.024896722940186886
-0.019469365191182707
0.0031924824911222513
0.004586789045344997
0.03609816335650179
0.009521294224866195
-0.026406286908701605
0.03298787764924745
0.018090860605419784
0.034731793774001374
0.024110734733688022
-0.002141740056521145
-0.03270254828471879
-0.021760786506045095
0.037413610730107495
0.009052844092942994
-0.0013702219504439705
-0.006049350253461969
0.011421589584927675
0.012103604994706158
-0.01186084217392739
-0.008378698164214368
-0.03400811676602062
-0.046068773627050516
0.015542242965836959
-0.01983147061980271
0.03221121378388482
0.029774610580120087
-0.036051141002776024
-0.014320563777034032
0.008096852011638263
0.01741621574997926
0.009275600495584107
0.053885509314540614
-0.014122052315986304
0.027434072516109895
0.08301475845105208
-0.029376925004026205
-0.0956383623625497
0.003985509502696106
0.021433473444906946
-0.02955037513739218
0.03367982294602885
0.04343076165687534
0.018974518514805274
-0.012884164758313166
-0.00925945240304844
-0.01312804481963143
-0.0006808295180195872
-0.010096855602172989
0.0069465576732888916
-0.0013856562832654442
-0.016909707021392866
-0.02959430850622313
-0.013722072942885572
0.009362567002770217
0.001842942698094767
0.013588331672163273
0.001582048535113617
-0.05237759623965029
0.005414790044275204
-0.014430627321095341
-0.021523026944204243
-0.02389121771988557
0.009743583828626235
-0.06484032903991947
-0.04890725048424078
0.09014527461815423
0.049888598069737375
-0.013113964187101857
0.017107038263031088
-0.012843677282643209
-0.00712401346869413
-0.008043958760573431
0.006851952110137325
0.03669539538609022
-0.04506747912480814
-0.037232422562046334
0.006105734904454588
0.031044917566077343
0.010173961696936996
0.009287350038771122
0.004700218529655357
0.003349105632037916
0.012117979875904085
0.03328618829510435
-0.051869474964745865
-0.030902080505129575
0.004941558011539397
0.005824060386466389
-0.04465092616361014
0.07900370131406602
0.10174540036433126
-0.03550993808913686
0.04851276682126147
0.02602668150426692
0.005301156123193923
-0.026841252552598498
-0.021207438747464256
0.00015418145271198317
-0.016529337899355283
-0.04121869420931612
-0.0058869199041467896
-0.005645753738820933
0.013841456012834227
-0.020902861273293598
-0.11465691525595774
0.005670446347675948
0.04799565960907941
0.02243781917277607
-0.006555795184249527
0.004849582867506844
-0.019048337517244874
0.02516461960483016
0.04644122456767547
-0.01975946742573362
-0.01513581998822489
-0.011590895375496178
-0.0026173414561345243
0.010740906276769945
-0.009666602355600623
-0.008887366303426455
0.019092457154917898
-0.015086540972247871
-0.002068619961525914
0.055497882705389516
0.045834000502587575
0.020615424142901316
-0.03412413655485324
-0.04692784112913613
0.011665667900175272
-0.010218184290268714
-0.0033721064037652215
-0.03516395464396631
0.006687960230625731
0.022371346653943452
-0.013760085673089227
-0.01862475205976881
0.009323957465957908
0.0014013356315659782
0.029035076749294394
-0.03747700103984924
0.05611584616855845
-0.0051626871126958145
-0.020786348882713728
0.11266125431870821
-0.0005256767970147513
-0.03597808581724259
-0.04565183138576573
-0.005282467387990321
-0.017216610883049703
-0.023457379331717675
-0.020279337943612207
0.009630168677240099
-0.014915891101448014
0.009662063855355566
0.006894391144271159
0.02725624448590588
0.004023757903331084
-0.002818105202567778
0.015592566362928243
0.005674976099844935
0.007537637962163642
0.03267902656503351
-0.00847000743236969
0.01727573854169399
-0.00292886851065618
-0.00043985450163284203
0.017164094320230822
-0.042823049994167944
-0.017918240567871543
0.048972955737383236
0.003246647813521212
-0.025155565638912736
-0.0015841573911569294
0.026241835238135166
-0.021601577442430797
-0.020744186780991304
0.0015782165265846811
0.0015493761106606819
0.01625402514668739
0.026170614711228356
-0.035507087557290117
-0.06060322454529074
-0.03894668553897025
0.04969625692406215
0.028693529956477202
0.02163511964056783
-0.008966883898612873
-0.025636923256224096
0.020257404633589965
0.02193337556224007
-0.003532027668925926
0.00487597655365647
-0.028388106261844296
-0.031070518150960232
-0.02505227743058519
-0.015511761671445365
-0.01765491182630998
0.015659745951752863
0.0010917930554819055
0.04678798370379119
-0.06270063605612503
-0.013929097926578536
0.0281325914237517
-0.06546503679190396
0.00398526082787162
-0.03039926713216638
-0.02518486718546317
0.013425567056165157
-0.003988754248777359
0.05440949786423912
0.14723569398452238
-0.04740842815297773
-0.00429646639005633
-0.04208183365612373
0.04190841857536651
0.09905233094748478
0.030310039594524562
-0.03767645781492567
-0.027199534630541936
-0.05808508750319849
0.09225779345719112
0.06983094380538553
-0.05502645509130308
0.021343420108670904
-0.03115272232258266
0.010563063044457408
-0.036884603412945596
0.00933022894876556
-0.013220852994850386
-0.04121399700978259
-0.028126619659678196
-0.024988564063733443
-0.030116878274729534
-0.044112111268060215
-0.033035428798984745
-0.02254340670313018
-0.02105358763085094
0.02258255429756727
0.021873309274793296
0.002919532342548375
0.013938291948781005
0.0007689081532441217
0.018271398613054185
0.0008880336045878944
0.008535254089057474
-0.012889057543384354
-0.0018633161789657854
-0.009193184234642786
-0.023764890871220024
-0.009829760581030978
-0.01686714698618885
0.1091088335238544
0.15674200564076307
-0.018639588422899093
0.057958000858962
0.028001957997226087
-0.016732057521208415
-0.005595367275215074
-0.04214966261905111
-0.00826807797421207
-0.022272345892799538
-0.03260467838743196
0.011673520859052471
-0.002428769040777053
-0.004306837947734837
-0.023322590941253173
-0.005438949385289771
0.028170024923343147
0.01701280358926018
-0.012352045552966715
-0.01605925112269826
0.056589247590208065
-0.008157438655020584
-0.013534007235439986
-0.031126664350973433
-0.005811454097369563
-0.009643317130200826
0.007937871597164872
0.011938891668226089
0.003793895350112912
0.0021803023489836895
-0.025406098300501577
0.046420899983047305
0.030060264856280796
0.003279057280421098
-0.024603770012861813
-0.04949485967152358
0.006207571649328456
0.04373657309153429
0.0020304210935013765
-0.00955036041797226
0.013395290778637912
-0.061955419100147284
-0.06818963050950044
0.07967685509689361
0.03324232771449081
0.029632545449365014
0.026574933003310548
0.01759546814545797
0.009794790275846501
0.020861938284609943
-0.16110000055312806
-0.010468476910082698
0.02988244060810853
0.01453834149840002
0.006183783127735007
-0.06832694319753331
0.011398976417702664
0.027060217460181727
-0.006076083512338131
0.012580665318593235
-0.012383386555722036
0.037540772077149384
-0.03881043241936894
0.011978290855756907
0.042129575388881055
-0.02414316900898564
-0.058979557122353206
-0.021245621803456155
0.01873032777323379
-0.1028787665535661
-0.0404499130355295
0.0478247269091128
-0.029216474060781813
-0.012269916107586577
0.024485622770846472
0.020283853642097966
0.006958489521676312
0.042983449641615094
-0.008358750181120445
0.016967979017070648
0.006503881863255589
0.07440171339765633
0.07631325281427517
0.003528284238649632
0.006471350527583226
0.022030840327242535
0.0017007325757467738
0.005456395957465261
-0.02821165008782281
0.04212030661415543
-0.12326063727801169
-0.054671823409761615
0.010697610903563026
0.007247646076545992
0.0007988568070245616
-0.018628453290233073
0.011356390232022805
0.008219134776409329
-0.007547573086230034
0.01322927678713666
0.009728788514735949
-0.033393437436283605
0.0020772500097351364
-0.019327048669906838
-0.004204648500093658
-0.07175512035689047
-0.07516805464919586
0.012427684224311324
-0.009639129357131584
0.0019519318307527954
-0.007552691154028468
0.06469137867966422
0.024558233099693644
-0.022159749972553225
-0.03658573386200348
0.003226775887708686
-8.077123842044563e-05
0.04638722527705082
0.0243325693379241
-0.005317310109337435
-0.005991495998637795
0.0644467643484984
0.040392961065077775
0.017010202590855426
-0.012088637516736774
-0.007161643627492902
-0.06203734675788835
-0.08612957658617428
0.014420668276491341
0.026278409468811315
0.04820915961297836
-0.02783831474732692
-0.016198451807558363
0.03928309522620387
-0.021469451528173856
-0.0036077332951068505
0.03981110400192197
0.0313894752948342
-0.014327376342611095
0.06413098317364271
0.10639405496475139
0.0346626032368708
-0.016291031896280662
0.010539630435415887
-0.0014551990690377331
-0.03753659536835942
-0.0213894950082914
-0.0014732416880790635
-0.0011680451623432696
-0.0320952397809793
0.026396548979837012
0.029374158959827534
0.048652361492633266
0.05770743343539743
-0.09639191574284936
-0.017886280134383602
-0.011664132162313167
-0.025733874708153887
0.012044631737581756
0.014879206102090791
-0.011355018752276751
-0.006977185524580967
-0.018351567455486578
0.011796796538815449
0.004959994969277242
0.02883428815103671
0.05959458278595099
0.002620845008145319
0.0016809985968006121
0.04395784099842278
0.033939957969876075
-0.001789492785835939
-0.014467336358477646
-0.008302497012484995
-0.005303409756766383
0.014865654442844097
-0.29739605815373277
-0.1275134713062746
-0.07099405452611038
-0.003054675829269388
-0.0011564312523884778
0.02841975122685561
0.00437680274829423
0.020035401030719154
-0.01377814050328976
0.047366293770340906
0.0634251530016744
-0.040658440722171826
-0.00046245507115969306
-0.01063336641233674
-0.012456249633856761
0.004125131997006117
0.054566614748131057
-0.020633563823669588
-0.0029057483627410747
0.018322212599059664
-0.02744141613994354
0.02844864435624538
0.03164531762429282
-0.010299559629646082
0.05023084319273715
0.014717991643054753
-0.009211908254437873
-0.007265370491610708
-0.0074720750226590586
0.021794745585802078
-0.021793352182599382
-0.029504884963739396
0.11936426998380688
0.04104171939277377
-0.03859475644947504
-0.04158715810266771
-0.0029950550141957396
-0.006517454517833372
-0.0013043164711031082
-0.04117066881956743
-0.026470151607897566
0.03020178866814738
-0.0010499255548287504
-0.0034887929204349254
0.006873733979475088
-0.0066935594106811444
0.005521440345547515
0.011947134691648558
0.03269686513421975
0.10589844189485133
0.003568534571518238
0.013874723276445058
0.025045255153541137
0.022412234266855013
0.007327722341117195
-0.027155537459399238
6.708255733150861e-05
-0.026691724821119703
-0.008793430909208057
-0.007244592389878326
-0.03499536865896844
-0.07815084423958495
-0.01811252310314779
0.017582054747468875
0.01694424742707876
0.02663811103319443
0.03149891132501827
-0.009888577451841298
-0.059395969267275625
-0.03484397679702302
-0.03819751652544035
0.022430439013098925
0.04107835447863003
-0.007532997536762279
0.0451429280246134
-0.03621576201608471
-0.03468056805533894
0.0021189323935769146
-0.018349436334741887
-0.046910498890298226
-0.01985744953860178
0.0009810756574327815
0.03087541455852129
0.03534705682028439
-0.026686721104691842
0.02351553062371116
-0.024994515674982478
-0.005864612339351955
0.035656974677876846
0.0451520795753734
0.10642974854359517
-0.03678510706022905
-0.010712761044911699
0.0055082325424602755
0.0303125894242948
-0.01620949545982797
0.001769986615147954
0.012423782885696079
0.011213707212884332
0.009638602742130424
0.0032022893259888337
0.02645988468175929
-0.009497305618254686
-0.02508226295095576
-0.009737252857973522
-0.00356307071787511
0.00032795187197927523
-0.007290819013751245
0.04444364520776523
-0.04094998926809704
-0.11700855888231522
0.02441196874039719
0.036398533684067466
0.04007788810313275
-0.011383486560721977
0.01008070399518146
0.018448551712292195
-0.019577117851113324
0.01261173542969806
0.04518361711580745
0.028910294480786178
-0.006401721470526006
-0.00028045340739490113
-0.002229222983692704
-0.00922708097660856
-0.047040913049395554
-0.02527808476707023
0.01578074057813447
-0.068406542329092
-0.014670438879050176
0.005453453490970759
-0.058023579582858274
-0.03209794084374636
-0.01968466400657636
-0.009587618500328424
0.015398658949500162
0.007303757155017446
0.016621477589652767
-0.018069977717041524
0.011928844170036028
-0.054025668607374164
-0.050040730831737365
0.004895749786272583
0.02973291382781038
0.028091417356307942
-0.04798182277719341
-0.01188696162237576
-0.0410411394362085
0.022873694168331467
0.012918075676674187
0.0024613520478613433
0.03516237541147797
0.040637766004771037
-0.022197785557401224
0.030782037691556904
-0.00528778263012448
0.03148494694329864
0.11105763791902395
-0.0077636329934130084
-0.006427952872325839
-0.01764942312537658
-0.023657446605296974
0.0002512390522140175
0.005608678876566124
-0.019733563494950982
-0.025851288773926406
-0.03452747024573273
0.03540695639795658
0.041772251157141296
0.05703022578666833
0.010799448144221652
-0.03560717857988561
-0.020527954592703155
0.0015960271652319565
-0.013717924774538854
0.1013338149504826
0.03424516841584161
-0.012366282785598731
0.007963136430052793
-0.050940545923851124
-0.04693575968050866
-0.05921882760661666
-0.022468182028799275
0.03019974181854509
0.09725076891589553
-0.020710998403905338
0.012542954226034138
0.012028381030170602
0.043219539765093955
0.001313627465455622
-0.038056316197386385
-0.0025708944832761676
0.02027531244337949
0.012510345310371304
0.07796307019864739
0.025428039772903234
0.006839417934929184
0.007523265512559065
-0.08772672573671883
-0.03226918245174456
0.008040540432476706
0.022903432535210738
0.010949872015966047
0.008934457172881638
0.017367899283992908
0.06935212939698775
-0.016805291341588733
-0.04572324131919583
-0.011971313595090127
-0.03728175320330494
-0.015714535812808763
-0.003499532320616122
0.0028677883104888005
-0.023273069333263192
0.0402396533370556
-0.028092684366109424
-0.009923313835504953
-0.034740402903733474
-0.05230777874109152
-0.022643086388544287
-0.023266718159550625
-0.04183569918028644
-0.050278676936751886
0.0017233163272921282
0.021251536425576083
-0.0037768660720274385
-0.04880936864627858
-0.008244675880875768
-0.0021969982916726417
0.011232289278833065
0.022243446277151267
0.014325780704682092
-0.006763819213282969
-0.03525122686590701
-0.004592350013389568
-0.04110282245768602
0.01146520649974409
-0.03937117823911096
0.0701986237786381
0.05359186685711805
-0.01815855916133609
0.12750996265743647
