0
0.022807080322764187
0.02777943223265132
-0.026699425289798087
-0.03202317110668781
-0.03544420479424861
-0.16634086537865184
0.16091441221903427
0.009342026731526436
-0.0196509981442264
0.05749353910014031
0.05544292743136028
-0.13776742673533243
-0.06000961396289756
0.013969933675871442
-0.04816542156347841
-0.019249441827893305
-0.0025110916037921235
0.0034093274729249863
0.003576219341137071
0.0026781358469129507
-0.0015154234210411487
0.017492907861865994
0.02220623658572448
0.10293177634325762
0.04498076246826301
0.010753361716168568
0.02480140911822659
0.013783812092495556
-0.04373239655377152
-0.13558817430763268
0.027571293569041307
0.0054136905741169455
0.010029939369696247
-0.010747269290168433
-0.02364062956665636
-0.009449982133761557
-0.017008525009657653
-0.029495214751806963
0.05479237453096092
0.06821720659974911
-0.049297666591634745
-0.0023896360139118427
0.0177189717714353
-0.004371056922350933
-0.041898033972308006
-0.0465753901473936
-0.009803333739251009
0.01835556745937289
-0.023987354436612037
-0.022819145227976755
0.03204093764960343
0.02590979806655034
0.10792303467983282
0.03767091509959465
0.011448823155836776
0.007192885824511034
-0.03782172696856616
-0.01733459744936221
-0.0061896977069927995
0.01311625589719359
-0.012733589483126537
0.009320347022907224
0.03267872952538365
0.018642703862660006
0.01197759454743134
-0.014742624875494421
0.0008058817398601866
0.0038815313113423184
-0.01560441195792636
-0.02793412387406825
-0.004167287479735441
-0.015363385939519025
-0.012450255000107222
0.008713198324325763
0.009084325921874928
-0.019823378585483584
-0.03573543229551835
-0.03195282644825836
-0.09965459182264626
-0.04179673627263046
0.008080849918387359
0.008153039971986768
0.04404572531301085
-7.867981778532594e-05
-0.03165320234640159
0.0023908234074076803
-0.00548197878876007
0.03322776691961032
-0.022451344447091598
0.0157140693101725
-0.002690969930707743
-0.012635725254017747
-0.004119426681718017
0.023711659385898334
0.026623662469283826
-0.008748450315197536
0.0496027673228557
0.01578965076405596
-0.005950158022271066
0.009651154707851039
0.002422332598344307
0.0005218815403639324
0.03534815669934601
0.05062984663213198
0.013539596048038352
0.0027133729959543653
-0.0008355005450334156
0.03892358532418638
-0.0021813026944033143
-0.023061496302536146
0.01894897338262957
0.010363518152043344
-0.0405115607668977
-0.012139808027687108
0.03704274586283403
-0.018109659096107775
-0.0361882593052548
-0.00018360011559366267
-0.01667027549297818
-0.022488545190000823
-0.028082504221336322
0.007867685643445406
-0.0010809647639074848
0.023733455782017226
0.0017774901095184733
-0.00016719497463928016
0.03148579415188833
0.00068169028686356
0.009104710419300418
-0.002111141517795858
-0.0032798763064540003
-0.033226390217155254
0.007346493191566164
0.0240822341107101
-0.03275870165457843
-0.01142253599875964
-0.0017076704287024627
-0.00017803676620570347
0.10335595909067279
0.14253764931734794
-0.04392413362502416
0.023805032891538836
0.005921099508834402
-0.0805421489837673
-0.009501706814984343
-0.01334561781111196
-0.023382054067755193
0.0038077780736648736
-0.005279826763994692
-0.00950546259056479
-0.006323827738852967
0.004849907777041597
-0.17310737482711933
-0.04758138589873795
-0.0033379098500700348
-0.013217655859373446
0.017618930316264634
0.02483150290417257
0.02980481977523479
-0.026517958744619752
-0.012264925045838723
-0.008628415580195043
-0.09289690477720519
0.02632144854815064
0.0019144294207904381
0.013268235806940157
0.04859358164963174
0.027562074569384903
-0.01685512151759161
-0.008275821851138884
-0.007411878334601683
0.015542282064628857
-0.04699524558752879
-0.010662932799738479
-0.01889042390922484
0.026333327765476682
0.06974779596210728
0.06552822961124524
-0.0003322799555693816
0.05625950068635913
0.05854715221881835
0.04450063854902342
-0.02514108761485941
0.1710650673001995
-0.02094580109467576
-0.09134678843574257
0.03164563560328718
0.0078042871587014895
-0.013329404076861772
-0.04275187325455597
-0.0034937864877927147
-0.005854064347387802
0.007593760637805339
0.05769249971452056
0.025696519154741235
-0.029431914261312406
-0.039292395121922626
-5.361474182433245e-05
0.03858856200835245
0.04012412936039381
-0.005293379306445594
-0.12199661360157422
-0.062189818215903435
-0.14747042871154295
0.0027836760451653074
0.08459885458058033
-0.005445817657945573
-0.11255977390063715
0.014794526607162694
0.018604244387340974
0.019305820241676524
-0.08806185966447688
-0.044757580569315156
0.016057849988298435
0.01793468784440797
0.0028691150908065526
-0.03417072588018188
-0.018852118171404406
0.11558111877189531
0.04004624128509629
-0.058999483891978746
0.02150623394377329
0.04268634751658464
-0.06077257808630987
-0.04643823568079378
-0.0026774014481572694
-0.008898923538448601
-0.024948020088390338
-0.0037092979888249406
0.12256538353411303
0.05716608245431842
-0.0012346938451316387
0.09312782536340646
-0.0010429903282307346
-0.000990892900998721
0.002115301649038715
-0.009773723474850442
-0.002388175566392799
0.023181404284088734
0.013536785838799335
0.0066209523990699995
0.0026824471963333776
0.006394454419063306
0.018404670011191386
0.012832051865597483
0.006811070568457002
-0.014218687718992656
0.004667367593436241
0.013922916568127
0.03376607366780205
0.019011972644604955
-0.0170400357539333
-0.004457551163838858
-0.0008665759061441521
0.004508992720342625
-0.008903163056153735
-0.03547332814268293
-0.06505774032621026
-0.018699247381890653
0.011442217733852131
-0.05341519138307625
-0.005850882073776824
-0.04692267413123654
-0.033554154093968155
-0.0249428498720917
-0.005150764932080716
-0.01729119774951983
-0.009374135209975855
-0.008093929431882965
-0.007375320692722711
-0.033281136517007835
0.11610372804484842
0.10809906643289781
0.0508161321160112
0.03135773097327301
-0.028639505650439386
-0.015746271320789807
-0.012653496702389806
0.020025589586419753
-0.05690097598555298
-0.018888859416388227
-0.03042396035994054
-0.019373561774197134
-0.028427206361851056
0.008964891560050094
-0.03833693975705212
-0.03214363895371068
-0.01631709591438056
-0.03314965426229154
-0.009414986425452812
-0.07784949649434315
0.015099494122431965
0.027978675128208723
-0.002949370616316093
-0.0034594874829808235
-0.031606384804656454
-0.023471424485097776
0.048738777295928626
-0.007567853939797166
0.05080203707650905
0.1169254370031874
0.071800241074391
-0.09545420147716262
0.03509266457887461
0.007005833053358291
0.15137500231574766
0.09434545220599483
-0.03404651874097631
0.010728236101260736
-0.019095388223993814
-0.001771474298925113
-0.02635231737064003
0.004802305710489403
-0.04618806288099644
-0.00614151435347093
0.01869858558983318
0.038816985695423176
0.009047882911870845
0.001518365011456324
0.015197094514151065
-0.017434378377080992
0.008275178848298323
0.04232437753316766
-0.009949081891782561
0.02050956445508382
-0.00592978810941109
0.03950205202799524
0.037695595611043034
0.03073154326004766
-0.008963542852513896
-0.03580957851961933
-0.014718128071959092
-0.028024756721434556
-0.046453791598997846
0.004058415840586298
0.022123943325276646
-0.0478428608118857
-0.06184034128419273
0.002291502403874446
-0.0014740427452869624
-0.010860598513092474
-0.006835135839264767
-0.10367836615922743
0.04792127126028183
0.02391248459083641
0.0026372452072116895
-0.012954315228871131
-0.005104617224928602
0.00598149259179845
-0.01709866539285825
-0.0013837976397696788
-0.007542363291816558
-0.05325963940035048
-0.03704275127906551
-0.02719416272208224
0.011757203413184425
0.007201259693173038
-0.06183898350047438
0.0009866828249767991
-0.020570683379310655
-0.017954936992515675
0.0059372591613615485
-0.025457394834944077
-0.003232825936212957
-0.016343853622291526
0.06214221529161511
0.11948594589471108
0.02033259742715113
4.3468967018115104e-05
-0.04401934362554691
-0.025608109314214172
-0.05901401105549531
-0.042823626223895905
-0.028383390222960277
-0.0076879563195785035
-0.04368786017534453
0.0012982456501281193
0.16627439995201487
0.0686451790791204
-0.02741005499221544
-0.010924680227295279
0.09788141057053082
-0.0024884867323143618
0.0009860779074745039
-0.006734859404735625
-0.03389661663425269
-0.017444286843114422
-0.04721942122620286
0.010970113735204994
0.03322007337876573
0.0034390230645503636
0.018876191739850702
0.2152739451403774
0.126026011731032
-0.10202643364392801
-0.058725561867477884
-0.06527310204184812
-0.015134087185473242
0.010371449488585344
-0.02796395216880217
0.02493944241273449
-0.01906170203181751
-0.009834083014127004
0.02033708532947074
-0.049630713585600734
0.004754705008660974
-0.03057427346125737
0.01997628731017191
-0.007648427032854423
-0.016539678471773272
-0.019522024025038057
-0.01876647890335122
-0.04286501374017343
-0.02424761398465502
-0.017801041831999397
0.13381154970327988
-0.04086319098362644
0.046825261736893706
0.06049050773197886
0.005333480868435236
-0.030022112108386005
0.010781292311434959
0.013461406100501469
-0.0012784691391795413
0.022325845932615374
0.0066146300792991695
0.013959294975809439
0.003885951921036889
0.004723316448935446
0.055977519671904195
0.01942177467302477
-0.02621703278668639
0.0013954539895337712
-0.008915048468401727
0.03582977619700749
0.08843374514560859
0.0978242096194858
0.0010948588688933247
-0.004308540198812201
-0.21740703160710947
-0.11357705235146082
-0.0169613628194588
-0.03557599129682877
-0.045441155768621386
0.05065446894178796
0.02411542678614912
-0.0052503827739187195
0.030551857908386233
5.4814604279986584e-05
-0.009952269992473678
0.0036461333691358857
-0.025324341114603917
-0.006458150376139971
-0.010404933722611556
-0.03776524457515261
0.013178141675023602
0.00303199409872639
-0.0162536508497335
-0.030870259929678526
-0.02536207451585433
-0.006928730215751661
-0.007640270814566025
0.022762597982341058
0.02856821911783791
-0.023507203265619586
-0.002638580825977008
-0.014762407233368899
0.00941959188818758
0.00751470794563892
-0.0037046043449001447
0.010283926924073289
-0.006283407379674582
-0.006508539174146739
0.004882246339446308
-0.00488386942873056
0.03900142511332242
0.003178305363143615
-0.009933982893793018
0.016468343277334815
0.05191247130846418
0.0050588504805734605
-0.011319454028267359
0.010766507687411222
0.012793335320873844
-0.021760693200845727
0.007407471604604123
-0.021632397129696144
-0.05219816012739203
0.014226639757749075
-0.01070841000977396
-0.007159537515812372
0.011953947531787943
-0.05979091316238674
-0.018074869329493138
0.02842719358261038
0.01839876960791903
-0.02178031159096873
0.012453511807222425
0.02425647131989
0.0117155346267599
-0.012172797317346036
0.014913759296352953
-0.03483307305658544
0.004862333539933878
-0.01017699256729081
0.04790504308140817
0.0657244031261495
-0.0071830554913200634
0.10944449147776913
-0.0745164756653665
0.054011489648764496
0.04067204283161041
-0.04168912672571425
0.0073679941351487655
-0.013598627863238663
0.02876525437223874
-0.02951081934870064
-0.01065248879229115
0.018133182359759505
-0.025559196827140925
-6.64157542253419e-05
0.0022611014893572914
0.004193185621899787
-0.013137975793917768
-0.02271457474178909
-0.011552099550281036
0.008457800440429788
-0.004604174918309572
-0.023417613435526223
-0.010973480189226111
-0.017283439221101638
0.0024204956429369853
-0.029076372921184774
-0.004967298001006908
0.02787274281518795
0.007016377578141115
0.05878159027633825
0.004936381663239961
0.0012197712250728025
0.0039283397424229715
0.0027438971861270815
0.02670310651171999
0.014494944405720077
-0.026182166328834428
-0.023530909392820244
0.06840669468151615
-0.07841766061170269
-0.11131987002231852
-0.020062307554517256
-0.03910882106851119
0.1472352560534645
0.02414908351170777
-0.028440424360269802
0.013151055863248667
-0.013178908368161902
-0.009112951267468602
-0.028188850562808575
-0.012549522183282773
-0.016652023591662294
0.011423827361745645
0.0036326368164227166
-0.046561103770960906
-0.02993100002271883
-0.06241018065128724
0.11051906201792118
0.04887661249333425
0.013429986755329741
0.03351652447668794
0.01121700125830316
-0.017231828004621835
0.021974071304396176
0.03604506692915234
-0.029966306359115187
0.015521232239770257
0.016752202736695407
-0.024090613065630914
-0.004932478172638986
0.005264291888491879
0.013149056515003161
-0.051852417483682196
-0.04260862042069396
0.02047659312512958
0.006087103801641289
-0.020921228921565043
0.05379158365078073
0.0316069391555521
-0.00031011774514231135
0.0022262867359513533
0.006094495877250967
-0.028786875896441876
0.010216646902041396
0.04836191970350715
-0.008351248723736807
0.026552607000775302
-0.005382787538156751
-0.002352139292417057
-0.10764435266459026
-0.0913375171416112
-0.009442448838758673
0.013029027112723992
-0.04675549687503188
-0.013753602935106737
-0.0018923785817247657
-0.010103955474121393
0.004845213396520753
0.030165577347176852
0.043629961643598135
-0.010865446730297757
0.004441363591330105
-0.014375995375911239
-0.010162563257025626
-0.005380425254084882
0.0028336388817799176
0.040221000115756654
0.03194117388158397
-0.01927588779921522
0.0024672373133183484
-0.022726490986635137
-0.012231866034360567
-0.04245338984041295
-0.005304086037763194
-0.01730824288493488
0.025080211306911463
0.16739380780642374
0.06748299784465542
-0.001204493083572627
-0.023886084213683302
-0.009601061959083168
0.0068042562684472035
-0.003709168262376779
0.01705649751826089
0.022272299294491087
0.029016464886304848
-0.015088358122985975
-0.010721577390553141
-0.00860672536887627
-0.01278758718879041
0.004807870371064805
-0.011082236727549464
-0.07157834079602554
0.08821545487805481
0.029479493101419826
-0.0778733607960446
-0.0333050611091039
0.032995266153377334
0.03841721457835805
0.04109149383981545
-0.01936943072855168
0.02351909124771093
-0.015211041126435407
-0.027564464940291192
-0.008109101552161367
-0.022477609216906225
-0.08926283139399484
-0.06825224683425803
0.03329108547983252
-0.009593772364978456
0.01186161837440405
-0.014724175422849088
0.013758012782355156
0.004383637467242155
0.024133194914036902
0.047025185709906596
0.055934887628061376
-0.06716933924447452
-0.03156070949151103
-0.035177556960383126
0.020276159250092733
0.009205150188141453
0.030726732324903163
-0.0011675790937163352
0.02407986004459595
-0.02909078748065887
0.024786382010438823
-0.09286737940015799
-0.06710628418843127
0.06148594205239341
0.012850802802278587
0.01784079162912301
0.04047422990069266
0.0033579325759104804
0.019295869378216285
-0.006301243292942462
-0.03352562713612587
0.006667309188252762
0.006121225913480587
-0.01593844225294963
-0.003228107287786083
-0.0037854916320163427
-0.06175420063583307
0.0036341470948233687
-0.0014635336641123295
-0.010301508006757167
0.03900620283843319
0.03399598421608871
-0.004274735930222949
0.017078836739167064
0.02691609116977354
-0.054401542997584484
-0.04254392820330002
-0.019880152462155142
0.024207316464555904
0.0014113599186390457
0.009625247345171617
-4.300158897196665e-05
0.019156823485637013
-0.01721164128231373
-0.07107513714444472
0.009047315981899463
-0.08942643762161773
0.06800077942149499
-0.01527784236759986
0.05105604120139207
0.0807215061979245
-0.04626446241152752
-0.040448904935318504
-0.01877717862941187
-0.017742754699049918
0.15851344467663567
0.053688341641455244
-0.03012560138954544
0.08891155839297635
0.04721415582034421
-0.012969218508978204
0.023022332728075745
0.0041391485219704595
0.009699202088455655
0.0182045357510793
0.0009833185981211866
-0.017224672418137514
-2.326110485425378e-05
-0.028458428407752933
-0.03427609059803227
0.0016849474037660352
-0.016224087118549103
-0.04697485103267413
-0.0032951553501927694
0.021278693531187814
-0.018769173638676962
0.01348823506101941
-0.019218231572126345
-0.016728294566529193
0.01591712954809036
-0.00031926472321423507
0.003844660234863119
0.02417953987091037
-0.0177348302391464
-0.008672720865072871
0.0011584895251280213
-0.003664573906389049
0.05339182946855302
0.005122772366518747
0.025068532770061585
0.05937748563296972
0.029917122452163422
0.021467914719244283
0.015967788375775564
0.026427995943096222
-0.057572112410656
-0.19998392749142882
-0.05620743813526595
0.0057045045706206115
-0.02432265739289327
-0.022429747241548895
-0.02049934719151669
0.057722281219795245
0.06919595357827908
-0.026683526525532946
-0.1311564337945794
0.06557151046561058
-0.14130390196521794
-0.06361846201452248
0.037046406924220746
-0.01990782471985216
0.04507884693223992
0.003723084186371273
0.018593141728884172
0.0018336669389108545
-0.05558847528540667
0.008747090877508289
0.015252143223321407
-0.0024968201270065965
0.03745243738159918
-0.018427836300014915
-0.010622295781028026
0.026721237975943828
0.011940335905921062
0.02563916818571214
0.012579578771564716
-0.030503770631517487
-0.0006438976645481999
0.03588275731843911
0.11339434446729602
0.06113425543459364
-0.0028557749379711623
0.014190044273008878
0.009167965571020734
-0.012309697059627171
-0.047407503335511525
0.033488874018104506
0.005049136694814996
-0.05499279676644031
0.04003265284315158
0.05108783152105388
0.03220142730358102
-0.0015990138706067514
-0.025007437350329745
0.02044089831458226
0.0025808982614985553
-0.04603284930597686
-0.03600243054184884
0.04940882894509233
0.024268737033414596
0.027421362006679766
-0.006201931609151359
-0.046110533808116826
-0.06165079350712947
0.016819476615943317
-0.01701578167782208
-0.0017174515361318126
0.015012889302831064
0.07257280693926602
0.12046390186300705
-0.03419473911948169
-0.03570930508565024
-0.009569667066325682
-0.03133154429626514
0.023579475736744144
-0.0990327718142235
-0.18063315042092964
-0.0010631726884789343
-0.030810054591377194
-0.011843190406178532
0.0854926114891451
0.0722769969687874
-0.03560682492491102
-0.023982336227040317
-0.022540334912776648
-0.0248264594611626
-0.0690357575282648
-0.005692082922074021
0.018646184553923677
0.018210387255399498
3.5311169969196176e-05
0.0337562602061606
0.022400879964256243
-0.015001705172888768
0.015813139834478376
0.09382154110945079
0.09112490739500317
-0.012886072430458398
-0.017489694802335393
0.01868430096812399
0.039534585057624576
-0.11213547379748802
-0.06328574144819941
0.059708253421585804
-0.018177553193416435
-0.02679241266985601
0.08455998233877308
0.10720360571349169
-0.008245612746990977
-0.03767317267043084
0.010564943164196542
0.14355235047375145
-0.15526115067976226
-0.17087494701009395
0.026208493693319512
-0.009636531256384414
0.05611942542592314
0.10445895575183044
-0.028911493229759402
-0.0014019424374656618
0.012788263137433269
-0.03032295893310947
-0.00470330265975987
0.029139684836668556
0.0008084450069312946
0.028423989626558174
-0.02002921716914513
-0.00941914763562047
0.0032086404875186244
-0.006349081336267434
-0.027111902503071113
-0.008418198390380941
0.011454480202203124
-0.025248395437134804
-0.029523625042458614
-0.027447861726296954
0.007330581938770859
0.0010571675379371192
0.01888532289657241
-0.014934555896258927
-0.019288599151377216
0.06364296278834349
0.09268616418674017
-0.1352447286458742
-0.09397581410474766
0.06553065263718653
-0.004451876811014541
0.04499120997133575
0.023537107163727415
-0.0140209021588974
-0.001902768345817155
-0.014307331473334458
-0.011905284134182697
0.011142557619184729
0.03123982899930176
0.01676357717051019
-0.010047924503498114
0.0017943768330400964
-0.010864405196517293
-0.004943730482132831
0.019213599476781574
0.0023253827071641805
-0.01170880208980415
-0.0361907904070673
0.05064094239884257
0.029211762931457566
0.019034976589380758
-0.016349868985330814
-0.012758584900337676
-0.015491767338193132
-0.02572376910953712
-0.05729314622840898
0.05627328541555348
0.008894340138299922
-0.030783421934185647
-0.09723800764315153
-0.066618133561412
0.018478773842262118
0.011022103078906859
0.023550360531188877
0.001141853871915655
-0.005566959241754228
0.03460233292425353
-0.005428940073175922
-0.039791080363624304
0.019964047989739418
0.03853173977206255
-0.019540426067911926
0.01809922927733167
-0.011881816953832655
-0.013383879171341425
0.0007867898343086276
0.05656033720979623
0.01895905444710872
-0.00047485164351572577
0.016406447874236278
-5.212938015456485e-05
-0.008190764306005037
0.009111728220043474
0.1084718120828277
0.04570794071447977
0.023709363769975744
-0.023857407594814393
0.046537774850144334
-0.025166378553557096
-0.07624730335866217
0.030419422933975575
-0.012868567881317041
-0.013063776208665336
0.012947746983691546
-0.015510164950221162
-0.014036513495420445
-0.04192585988498982
-0.019058281525182914
-0.009114261843330335
-0.03376023696427824
-0.012596679889055695
0.008539301736562964
0.006537656410791576
0.027292527417988155
-0.016368476403888995
0.007235687312983947
-0.005861209000793171
-0.013898575501180687
-0.0339815586233977
-0.02088658671799692
0.0017753611627838834
-0.01830166884368268
-0.0010943342856725075
0.039728719496674586
0.015412601589717592
-0.023944141948635256
-0.011696967011235576
0.009955639299178339
0.0149721714829397
-0.002263739702567405
0.1349725478516837
0.017424448930688227
-0.043685544951896395
-0.06189341471394699
-0.026648550522796622
-0.015251019738376621
0.005563357646707618
0.04881077028306207
0.032635263153018935
0.025359502051734897
0.013573929076563858
-0.009412797612238444
0.03115877521049824
-0.017948636547684763
0.01249701760668489
0.04077815638906706
-0.03558683128633174
0.01194111804580736
0.0275274658282125
-0.026261020479896553
-0.03100602366503118
-0.013019256269002917
-0.008199579206041595
0.038218250180779435
0.00906273493868966
0.02450249910263879
-0.007645200488236619
-0.012757329588236662
0.015392929850648229
-0.01703423834031229
0.009309097562327907
-0.006234359861537724
0.02499178994103237
-0.015496655665806384
0.009278147019898424
-0.12493075769125689
-0.1703224814968572
0.016250744693037913
-0.001471673539159138
0.019868520986359533
-0.020884578032962616
0.04068933109430918
0.004916799149567686
-0.0035467655759903855
0.019777887112018326
0.015946464158703266
0.0051680871105165595
0.014288897982756435
-0.009775125853496647
0.048574593251598824
-0.0043288367792408715
-0.031001148224544424
-0.002164421099423837
0.01281213021074957
0.03709331925591007
-0.04835491740866977
-0.003009684074424864
0.01861084136844169
-0.0032193961785265336
0.0018788102134212287
0.02983300167202136
0.004671061764037311
-0.036492717883588446
0.0024320456699333318
-0.001008386887631797
1.1363685301440191e-05
-0.020800580884349686
0.004213514343404575
-0.011650771938843455
0.06355643542599491
-0.01670354522172216
0.0020610369837976857
0.008280689344364147
0.07965619827304281
0.0023529067598834106
0.021050048635227983
-0.04100057658669609
-0.10627595942095645
0.011006908425371085
0.02930285948065629
0.16012266447375895
-0.03644453415338742
-0.02425816873439273
-0.018684273112321674
-0.008886751579423884
-0.03961879134254742
0.016281698784484867
0.068310090022169
0.031257546591609425
-0.02063574173524488
0.023006166307769256
-0.04828442294869692
0.03489033249682956
-0.02124239231358985
0.07692084361540953
-0.02727313249911055
-0.12754144615031535
0.03432893241603665
-0.023046014741822125
-0.024504977428959327
-0.004708573738113778
-0.13081490670971
-0.06391307120808219
0.05884284833623927
0.007634789542199412
0.01474328534262361
0.007647016576604324
-0.014248286358507589
0.037111410743996986
0.022519462163428025
0.012931303285770086
0.029934206617519037
-0.02734673614990496
-0.027719407782421934
0.020846825611579543
0.07491574282782958
0.010839510635249868
0.008697273179487042
0.043400034558892096
0.012816503559702732
0.003574409042871101
0.057349782919741014
-0.054496877388649674
-0.020038381176554283
-0.006936778627471403
0.05873515027784287
-0.04907103743195542
0.01517376255479578
-0.025956870985173387
-0.005481426948241645
-0.012356389973872475
-0.011955606258356498
-0.055221943577371244
0.0002274896287148849
-0.01364688076387345
0.0031906778187835035
-0.02878532292301772
-0.02240532476664992
-0.06624112889051478
-0.010754910226841696
0.017219866250279374
0.033937515739186214
-0.032595403914211396
-0.009199142993670358
-0.007874231067381181
0.009479427140609094
-0.022609879986933396
0.032452570758268136
0.028817934844234245
-0.004416388102185321
0.0036384260701854956
0.08073821713025242
0.060831286568449564
-0.025324405355639925
0.004924866346444435
-0.014342712167520597
-0.02011828702698612
0.0011893868180597282
0.004518733159901892
-0.003010119274251968
-0.012555056590275197
-0.021786959207554135
0.03424546210105472
0.008540747753062695
0.06377338836395034
0.04868546014389902
-0.01874913360800122
-0.019856243525042606
-0.039983832950689316
-0.03614012973601397
-0.03908517150283763
-0.04305065360343265
-0.016150956168981666
-0.009180720256158318
0.04224562310572642
0.004110778852748486
-0.0010191452605571186
-0.03770310203585097
-0.016849657329480523
-0.003594199403885105
-0.010536884247479368
-0.03636886463156751
-0.016577993574427106
0.023268345225366114
0.11667702096471477
0.10929143517021181
-0.0009067577575384277
-0.004465547938771262
-0.058271603753976976
0.07801100793769733
0.16258432765638972
-0.033932662180087544
-0.036893696421176965
0.027355326073276606
-0.020487549923043438
-0.042076607596777234
0.015955740039389116
-0.05152226008799891
-0.0006247732815363262
-0.0013806954073746728
0.004417281901626112
-0.024397480167978464
-0.012174266804359488
0.0032194797170647595
0.05874933592303208
0.08787729525846845
0.013256219813312776
-0.0240188323309163
0.04858009501845564
-0.047673955672745995
-0.1465602424108554
-0.04240594530053346
0.02078042800395849
-0.00934219641612036
-0.06723390193640037
-0.020085100934374163
-0.020009820982654705
0.006926395611675156
0.005241482693818752
-0.004126519707254383
0.01301336394889116
0.05187026560421431
0.10217086990864188
-0.036264703792905584
-0.035539675077363574
-0.020146456647758583
-0.015823845684266456
0.0165775515000892
-0.022869728284765606
-0.020182715686728143
0.02293405433723728
-0.011333970812905166
-0.03942748592471047
-0.011219767384850662
-0.004871869925991983
-0.03158343717421747
-0.005174781314472529
0.0145251882734833
-0.00856433854855655
0.038616772440221776
0.06252205780402131
-0.016140139107170177
0.04515327949075932
0.06002427197587859
-0.03739692719572449
-0.16493363126124527
-0.022517595473913236
-0.012051215784158346
-0.012421771735602695
-0.02844184720037657
0.016699934358190473
0.027132794596177522
-0.027339624904261214
-0.058516666288746355
0.010659694893211084
0.006219033184073838
0.013358711363201848
-0.02241718633406105
0.043317214784118
0.11174261598640181
0.018279043582435633
0.07205826617700396
0.02155828153790839
0.06942800428207434
0.010479345028095308
-0.04089975942336569
-0.022714924943123348
-0.009301032695882346
0.013166305111005541
-0.011928438804292974
-0.027574412284721374
0.010575694472532845
-0.021097411579083753
0.015781056779710333
-0.019665795942243863
0.09916477053895069
0.17219905438620092
-0.025330285046083936
-0.019801605070718636
0.006056776196800237
-0.018235494884266165
-0.03854803637517963
-0.01124906822398695
-0.006146599431720545
-0.015539650112922392
0.055371939535357226
0.005373591348166958
-0.02069652936778621
-0.004948076329126236
-0.03618982830770563
-0.06711980361165135
-0.016704411205257407
-0.025477297280025155
-0.03907244667222128
-0.013017787322647733
-0.12136937122265565
-0.09379436972225527
0.013260917663383016
-0.03275385564749651
-0.03172349055901929
0.03979700653749035
0.03228669396092721
-0.01748363512367771
0.1164408904619818
0.10238084407010342
-0.03575001791725371
0.00032876398005351467
0.06289366042738095
-0.006141993057911721
-0.007069254008255636
0.027153941851675804
-0.011926055158834799
-0.005585847176373692
0.041171188718865104
-0.01785866245269352
-0.003957444200682618
0.02895398807495689
0.011920783550668983
0.005427993395069804
0.012182428296171255
0.033063705150888474
0.014529018057961925
0.00996446358217406
-0.022516421050025333
-0.03113481755734932
0.014307183501007703
-0.05107246831414299
-0.011409843934687202
0.0006013491879496849
-0.01911604299414515
-0.007720702476358592
0.004649250575600927
0.007165869976083721
0.0013935551770167726
-0.007844140893127082
0.0056775476448331355
0.009635677999651995
-0.04185116257495956
-0.013814970392027203
0.013500292105154531
0.007801278845244875
0.019867591617676855
0.01505495042579439
0.03195142818445278
0.0002537668381075011
-0.012701466757423788
-0.0156457930066642
0.0006307807119576401
-0.0035940721619576385
-0.024045138923105443
-0.012097710014954254
0.038512787526638094
0.006106351751958781
0.07042641562279263
-0.002303311448828353
-0.11032266050049973
-0.00020894306166397962
-0.06733708713526923
-0.07027223661533502
0.02850566832066976
0.007584878407210615
0.02829204511445261
-0.008529364109113462
-0.0017174290336437717
-0.03647580577654697
-0.011003019972461123
0.0046035018553147915
0.010744902442590043
-0.03833226081177671
-0.004986170086441173
-0.00139489216125739
0.023128336489571046
0.048102619424834715
-0.021710572325633525
0.0008742447262554315
0.012952043677204504
-0.028403908948829017
0.022857017738493586
0.1274115617480083
-0.04164712365278095
-0.03925208695201715
0.00381724448595076
0.018540850565347856
0.011293755452439965
0.03517825912915824
-0.020064984160557495
0.00954317687118436
0.04721961173615532
0.039114162456613304
0.04740620882333538
-0.013487583052758911
-0.02146165814764863
-0.015934613403583004
0.004053980629078656
-0.013191550221528176
0.0435338469502303
0.12012546801653634
-0.06881953787770877
-0.0832198868967032
-0.08992509848801927
-0.010507773486900351
-0.005324461126990119
0.005600475818332305
-0.0077537119648609385
0.012605122114529296
-0.0488211500338057
-0.0013826164921413439
-0.024794978441555576
-0.013048482226441206
-0.015486150241252718
0.026261355356368303
-0.009183865308964291
0.0008102995008207961
0.020276379309252707
0.004683141991671473
0.0412920199784066
0.021738042819482106
0.014017671026403581
0.0028301130080912703
0.019140033881892844
-0.012223460305713134
-0.05682611234471277
-0.023089686246157832
-0.019359997166030648
-0.06428730696948114
0.0028561628321974713
-0.010562834232288435
0.10758383369712037
0.16882771059618307
0.009429394502163346
-0.028301580837490226
-0.03440552976785436
0.026637389910395447
0.019403086387612855
-0.07323350664550535
-0.00133196467015951
-0.017419553022381
-0.0029623093049311734
-0.029857678176642404
0.016924861866225417
-0.0095040422867285
0.018240443980141956
-0.008965956961193821
-0.0005145740611352234
-0.00558332180483566
0.014916561371749803
-0.0010671409402462724
-0.004082810970470146
-0.021213345142272827
0.015431506021110044
-0.0016802296846836077
-0.019033369877524246
0.02104386503721347
-0.009693486606211813
0.028998016532425955
0.03886999192254614
-0.03823850274198987
0.07968049754096257
-0.0045629127623400025
-0.016720577482548984
-0.06539008560778728
-0.03220449061188688
0.047458650154251464
0.07237612617196378
-0.06057551499156055
-0.0773050252914185
0.010203840161552125
-0.06200342112830745
0.008023675733207324
-0.022396450618413062
-0.01881470859978126
-0.013710942467397904
0.004966569151151491
0.04820605501132776
0.016339825193704402
-0.02034366341605526
0.05282929731548305
0.16927660390197471
-0.01445706683331222
0.00647034717412268
-0.018055674609984536
-0.0697812640510638
-0.03242262771214474
0.015916644617825722
0.005919503325440094
0.024607958394448435
-0.0026877672998595705
-0.011668238917748014
-0.014825689708693166
-0.014004459173043424
-0.0070561331967004814
-0.008924021833906857
0.0004930507187905073
-0.03097635829754043
-0.000622628985307097
-0.022880162948471144
0.023936556235148097
0.02130235395058431
-0.014801012310694734
-0.0754661541253289
0.0003227945126957928
0.030091444243369854
0.021641983114388787
-0.004777033659547158
-0.006402793377441914
-0.0014317842633228205
0.045692909062248724
0.02367360536010678
-0.02680131655143023
-0.12317293273836755
-0.01359104514922416
