0
-0.02636776930698013
-0.12389229394803213
-0.01703501790693751
-0.01055171952993628
-0.018849334547222502
0.05030139004078101
-0.0233536701013829
0.010134009649038364
0.07126299466844556
0.038677954465860344
0.00956991877662523
0.01782779579103231
0.028849015909948705
-0.08535918923934156
0.0028096609470393994
-0.027078722955698152
0.002233958271895732
0.018825208709908062
-0.03895001091986144
-0.01672436657631775
-0.007210167174591824
-0.008891851861796153
-0.02719009046819431
0.005744031077265723
0.02964861368709079
-0.010895293317895039
0.046535717275475626
0.023665785913478343
0.04478374823633719
0.006307501942304658
0.010832285784307246
0.0121033099929415
-0.01887629627315981
0.026869721178423508
0.019719935780677354
0.020068943081924518
0.012607158346390562
-0.0035079381252453245
-0.0048724329387742895
0.025450549459712188
-0.04450851426668103
-0.0394736535646028
0.06332218888456755
0.012295267241372181
-0.004521507523566461
-0.013967825131029583
-0.004906358746181459
-0.008727921514786139
-0.019948670296907802
-0.037593878874729945
-0.05605255807735624
0.012084244643000511
0.02375073245160734
0.01251951824206759
0.046432803734746994
0.026609641776547836
-0.024480727347649844
-0.006705149603946671
-0.006521691569435227
0.007556410556799204
-0.017176786605956854
-0.008915528805821176
0.01588249470953352
-0.04215660466844335
0.010839944154745472
-0.027343726313154293
-0.0315031371226424
-0.0359507383015668
-0.055537153770522873
0.016900373815188753
0.0012956613290626882
-0.02035452146651761
0.014731694186211406
0.05170917458991833
0.07739546214844766
-0.04061332759055213
-0.12495999269949049
0.02025789840322591
0.0025929291513898988
-0.013413353213432358
-0.008867799063774169
0.016463286946961527
0.023872920411928934
0.032113424081223176
0.006492057940356041
-0.03069067144498879
-0.018696391775587205
0.02418339055072364
-0.011410679010166068
0.017573421953040652
0.014671785132883652
-0.03280727186193596
0.046656996539483166
-0.004951681187498753
-0.0007908571865425549
0.0009751530597681955
0.002030556014140626
0.039275939610070074
0.03330681786305431
0.03171214978132817
-0.031717013097939964
-0.0037256514735651072
0.01564420767262475
0.08865945494441392
0.0352894679916993
-0.024674232396386536
0.013004445320706036
0.025854756053761162
-0.015275190849289817
-0.014572240712498576
0.03823112514556417
0.030420779836102755
-0.031346375432671686
-0.03220676945758268
-0.042337565956597274
0.026438678201008575
0.046833753790786005
0.029236563586922327
-0.06611646476353839
0.032570648992199844
-0.02427998214046431
-0.1436497375753666
0.007604440456519136
0.010470423998691365
0.00028471513613160707
0.022133455229614272
-0.020224086403919254
-0.0781096868939598
0.005282570545547361
-0.015441603708101414
0.03468682107345202
0.021854639435582312
-0.018763490958894485
-0.0072157113858286916
0.04374728628619245
0.005755727844464286
-0.024778943665666985
-0.04930561358302058
-0.07395197743361538
-0.14913015661412998
0.009009292212456062
0.044551761640361606
-0.0073091216589356595
0.06937109577132036
0.0995824961368727
-0.03344420006745792
0.006930008916089133
0.030400662975128393
-0.003256342045477322
-0.007500425155203893
0.06541696968043728
0.040051970052001264
0.012424022890874012
0.0068043378020160306
0.016215967847695127
-0.00534342224839699
0.00597492888235727
-0.004924797409610464
0.000997315134320254
-0.01222220516090838
-0.0004740440267675069
-0.022046994215498994
-0.02859177512063425
0.03860824444218077
0.003179339718688896
-0.022752733024118815
0.026596796620487927
-0.04687393236030737
-0.008196662733941665
0.005959031062037401
-0.05655018455985893
-0.004890349072746193
0.032544363247663514
0.016007129838582455
0.015803198527491878
0.030302429832226606
0.0007350970953484814
0.04017065622684621
0.04790723360019089
-0.0079971276668917
-0.005232273707372561
-0.008792239495463814
0.031988595578418065
-0.008416047761562708
0.04711164655922144
0.018511285399035855
-0.039192549430504355
-0.06461932405078859
0.05082395262176914
-0.06230889826471362
-0.024440690299116444
0.0212542044234942
-0.012498434144808624
-0.051208463882729455
0.06728643120479887
0.12155664933261125
0.015951432033696783
-0.0015811078359400544
-0.0660357210557599
-0.14168622728237817
-0.05019439101334572
0.004883551053932041
-0.02762540087071357
0.043961181870206034
-0.002281951614561973
0.04005239441790067
-0.15548331321714617
-0.10174869609746003
0.03963222810046408
-0.017893731453180566
-0.04166482761301461
-0.004630362012884169
0.014020919531481033
0.002315753737392499
0.053855417703901676
0.009051535827759112
0.061834739522413175
0.13341028682352593
0.01506046699212884
0.05553238146350032
-0.0011600940117124329
-0.02593552900209786
-0.06392020325515997
-0.03683405784616462
-0.014919919491691896
-0.025408605320675497
0.045914400734397606
0.10096420672607899
0.03869561706531785
-0.001767436336291847
-0.02395911324987211
-0.009817604527890536
-0.009490654806714599
-0.025612581176671277
0.00205833016067157
0.0023826848416692503
-0.028403929330445058
-0.011160195797457214
0.020834937137227613
-0.021349152029113215
-0.02076450311175212
0.00513362076034232
0.032674826940274085
0.005234601412888334
-0.030137596089357253
-0.01316111971157107
-0.01096857185417925
-0.005725686176547332
0.003993385311740774
-0.025059750210356106
0.06873773167425395
0.0018286042335113452
-0.01455270926163422
0.034176516000704295
0.006506651499414774
-0.006526743154684992
-0.011686788459520491
-0.026477846905197933
0.00044067963992025635
-0.01623634091602918
0.028795682131212353
-0.04182616790836603
0.03347533975819905
0.029170582420689768
-0.003906295368661714
0.12588857677949997
0.040447218852638495
0.04345630227631792
0.03908707346134948
-0.0028442396788744056
-0.007894193018203561
-0.015298995269646159
-0.031730869927304416
-0.024470380072183454
-0.009472540192413953
-0.03499405136776417
0.0246029792912903
-0.0035735316692922297
-0.13580008525002116
-0.09977319111567193
0.05077621207610099
-0.05453415860944643
0.07740239784722211
0.11317534955588887
0.019777851424257205
-0.15581349039075781
-0.08095594236726478
0.06775132476772439
-0.008389697751103594
-0.0037714275034450686
-0.014929022067855275
0.005737396911368016
0.013704082109171824
-0.010438060922785654
0.08112499773909058
0.017753164152196996
0.001396752176781021
-0.03839993360318843
-0.03839057600745982
0.014117696692905208
-0.00675540922209748
0.011240182752667381
-0.006705009168304868
0.03988305620646443
-0.010668597059131067
-0.02867142171912699
-0.023061996855947252
0.03631928791325288
-0.011481945432545548
0.035277403740361445
0.009172665173528577
0.006995930042596181
0.009154255589215891
-0.006416503977375705
-0.025443174346163888
0.03525091136410996
0.04550963901781088
-0.01827965388591575
0.005745560624747359
-0.011688486111073823
-0.004697000414729552
0.027981042144349495
-0.010962357020686595
-0.027751090191806754
-0.022658622941655056
-0.010194475505558714
0.010308647372221598
0.014197749598472519
0.015092432986125889
0.027664617957191006
-0.01674914422640265
-0.031020572678136932
-0.0219298346692837
-0.03241971176791653
-0.0013417405929261074
0.018461813038665658
-0.07002508437220718
-0.07796578446721178
-0.01098067882610732
-0.033213770889909136
-0.014389343536106915
0.03137108846660657
0.1626801637216142
-0.0009859373159939516
-0.025762156452022525
-0.00310605492915692
-0.018262759163791154
-0.0019893810238862802
0.036879061512204075
0.05378471869844726
0.011675339490404186
-0.00019622242640631398
-0.010269282153581303
0.09832121275242779
0.043166790246054826
-0.03285177267218803
0.013058870404716419
-0.010269047595627192
0.021039902061800557
0.027721305076789396
-0.010218549766609498
-0.01322276470442088
0.012091652106171235
-0.031623309566992296
-0.046632778974824395
-0.12101115453610875
-0.07451953671913113
0.009739339748962876
0.0006431429623140372
-0.028438651642778947
0.0018761206373345376
-0.06804829817744247
-0.1026197558294739
0.08807211364739032
0.10686552105301612
0.058292206763950194
0.01840242319311457
-0.02746935851167271
0.008698032473981128
0.024995024575207886
0.0014237532946685108
0.12031180884358278
0.009213455560687466
-0.05722337342970699
-0.012852169423728885
-0.030874215263423484
-0.013165271661131295
-0.018037896332599914
-0.007366909961491975
0.0249734333290898
0.016536864790233755
0.023521704883266464
-0.017890294122704833
-0.026479391602634173
-0.009637502183617322
-0.014451315959926155
-0.002311991873353176
0.02742661135540249
0.016075978298473226
-0.08640563832028987
-0.04249441227476919
0.15817637262985149
0.04871145621390282
-0.03563109405428661
-0.009373850281102712
-0.0124286499592126
-0.017276725767876037
0.013422177910358641
0.01323895845917601
0.0008923751915358269
0.0012191067180257228
-0.02968360999525719
-0.024282382036140176
0.012721434472774169
0.003732786562086228
0.016312937851591013
0.021949763623192564
-0.029881073831979885
0.01588704116503943
0.01232284176089024
-0.008835236643589987
-0.023424932789919934
0.0006999315136222903
0.01907369640399548
-0.005886826423278208
-0.01240837448665264
0.0023596377033688136
-0.037581373114076576
-0.024905876565242385
0.033863452821467806
0.05862486278227418
0.06470006236186052
0.051648157794322296
-0.03343990321735767
-0.006228971780487564
-0.006274260318568474
-0.012366620746698049
0.011045073210110255
0.01641122796688768
-0.04543828571074621
-0.016781890410183155
-0.015496135101430844
0.005596946537073909
-0.03651327443692016
-0.017736654810213
-0.02069737307160024
-0.005317408040378787
-0.010265306779756378
0.011748558141794627
0.0016242268009014189
-0.05358311737424692
-0.00274587167611627
0.023068285062777825
-0.014779851966986383
0.05853748749086762
-0.02510696807000245
0.016306561459938845
0.013244657637974043
0.020126352792220095
-0.019577733740645593
-0.01833543850324023
0.035948777626723466
0.05980309233910584
0.011169036290153646
-0.0007849906003729942
-0.02461223195271427
0.0291981618588517
-0.006073444878439404
0.007094715639208729
-0.14493169739787762
-0.08772865093492827
0.02543077492461142
0.06085905534005307
0.031237418596806163
-0.03306764491623908
-0.019919147651857944
0.027870970110601568
0.05857465723859532
-0.07388931924643272
-0.07140487048934979
-0.004283891587756202
0.03764170089818647
0.013411192023472863
0.04478445864805181
-0.0016173215478676106
0.015013974236596946
-0.009340184715946763
-0.01783108341748207
-0.022935457048185635
-0.028735900600402955
0.01970410404163167
0.001209649092407327
0.0229498771930433
0.013785149743029185
-0.10950355340997357
-0.03507910034087123
0.03630114099472604
0.058908721067110266
0.02932853651815671
-0.026295188740173656
0.0492314582934031
0.06900099692767726
-0.012382420550290213
0.002731077866812593
-0.017725263083632398
-0.036744530288011126
-0.015846996216566645
0.00521524053219811
0.008127926885987931
0.03437031577892236
0.05173488516540041
0.042339629227984094
0.025224783008090872
0.04674945614887602
0.016396063953348788
-0.005931676351182634
0.02693711457828052
-0.03552234550072975
-0.016806707702299663
0.008630991178175123
-0.023209423799463863
-0.007980211211921865
0.015212458111392373
-0.022108670458891685
0.006920325758337723
-0.01160056189123278
-0.004584303926206919
0.008511490805463802
0.02771087789450394
-0.006134959035488845
-0.14032107694463167
-0.06154801970030541
0.003136436040642646
0.024952437972721137
0.03759385342390878
0.06086259155826889
0.0068072570388754035
0.039670998831982364
0.05268459438955806
0.003293666419812276
-0.0007063055764260031
-0.028244150186886363
0.020230363015369082
0.0055075733090788025
0.0026001163396385044
-0.041877088429330654
0.05853879749800131
0.029501426899593047
0.008059168861524333
-0.059558373483243256
-0.10517575402821495
-0.02717395048662603
-0.03795897050042407
-0.093183955779068
0.07914664570167258
-0.0658280433795082
-0.08787506999659975
0.04373490822418543
-0.006384090564155324
-0.007853751740923218
-0.008250483557134031
0.003910509796125153
0.03386881205421644
0.03241257677020135
-0.0023715782669769237
0.005230716215287145
0.011050141068939527
0.025523044482840856
-0.0259060752791405
0.037405080480967884
-0.014259455995884443
-0.07405983940022763
0.01247722910925136
0.01843078840551841
-0.0031370268676732126
0.017497732079114994
0.07061242831300572
0.051753293081286046
0.016837436049883494
-0.057677794683898914
-0.17927668093588528
0.017143280883368674
-0.043873651149900834
-0.018197537472957305
0.012706207679998912
0.017934144320678785
0.03339151793101676
0.0019280923571754684
0.054541891529083564
0.01247657807459726
0.005944652454107974
0.00759696782963008
-0.00399017954617002
0.03871535522554218
-0.018297232169737523
-0.010026722147751944
0.012898259667714044
0.0024321400706825065
0.09303476038480755
0.1311916714432343
-0.0069428567839304196
0.01736217976417495
0.01121246618611393
0.021344981659014377
0.05889895454584406
0.04550782470036746
0.00906224491656151
-0.14379455622918275
-0.11046083114513515
0.05207656792626232
-0.012660818065569682
0.027062481360951796
0.00623308031947043
0.024315401446551744
0.0037895873076300977
0.017990078275339095
-0.016968830912467363
-0.07806331376861701
0.04237700006561705
0.08254846937915493
0.03950929255819442
-0.01834625597289502
-0.060411198837253675
-0.031190503779060866
-0.03286825122749742
0.014635727899902178
-0.01900999519503379
-0.019910278276915494
0.002528233250996167
0.027468279220970886
0.05276253812730772
-0.008016260142180494
-0.034544965945763874
0.033720377744723924
-0.08088162847351507
-0.043654052269318885
-0.007527980364948382
0.08102230864557061
-0.00011696618243844999
0.008089726222687912
0.06263727014769148
0.04948846854005861
-0.10080985891760369
-0.08262400557498133
-0.036208725883954275
-0.1786040605965402
0.021447566088352486
-0.02128232942930468
0.04006093045313031
0.013432881011235447
0.019255404999613594
-0.013971151154653963
-0.0062281677014311585
-0.17004811252971622
0.006173210595584448
-0.01541039306090546
0.019630134963130486
0.049729539141818664
0.07721615782032577
-0.04338276213515836
-0.09364202149081471
0.029190772550214867
-0.027401022395436906
-0.059592443737819537
0.03899415884502911
0.02170288073380355
0.0251393770373566
0.01307468707735963
0.06611056051640068
0.05901189256421428
0.03683810084646874
0.039593472225275345
-0.030461777366578395
-0.038620398716458205
-0.04579790622340793
-0.001377362836237039
0.024475713297924074
0.010858416650930024
0.03769368190863193
0.08147767568031568
0.026248620005617597
0.025792496427510435
0.003678805710709129
0.16431538257938832
0.005795991353121227
-0.028302956217470084
0.024067976914611964
0.025020903636429576
-0.011915730134643412
-0.023729360731942085
-0.03286196083166759
-0.027081221577314955
0.11905279136170667
-0.08674986725692842
-0.041361334410381374
-0.011449939754068135
0.045688497297902524
-0.04519334732896769
-0.1795712004764374
0.02844088487071281
-0.01791405978011914
-0.010728421943556424
0.03629781041129111
0.07954420918842812
0.0030664930133457793
-0.013348139369546696
-0.009442693112464947
0.013654295192232309
-0.0347302051346973
0.08308997813101712
-0.05198446160557728
-0.02137624051770741
0.00764438589721774
-0.035018770357354
-0.002521125219929499
0.04760964006855249
-0.014946972834082124
-0.08199233296540734
-0.003795414232945291
-0.029204813850522864
0.016179642130542196
-0.0018024166827106582
0.013487643708787097
0.02870654387551169
-0.046570158900657965
-0.02604372521831791
-0.0027731161147788964
-0.08718646594582354
0.03662899996118028
0.1180524912491493
0.0598599852328383
0.055275274963939476
0.050435447594055424
-0.024106760238500457
-0.0140003340084129
-0.053201442978419236
-0.01925703981934843
-0.032434253847456816
0.05653542856798919
0.022985404000520425
0.012770730352185376
-0.010977907525536675
0.028525227215308112
0.06674159045537
0.0253277669708268
-0.04786293639462692
-0.015224053871703043
0.04454033574887652
0.05897631967176934
-0.05074628254010309
0.0434131573612617
-0.02250445685383998
-0.13757721893721805
-0.0054959665176180315
-0.034266655114104
-0.035920376743498
-0.03984194060051624
-0.013218221626583437
0.03850657531595229
0.00712670116725926
-0.06158973694770266
-0.051187651414937765
-0.0405101203798153
0.010030302511010242
-0.04666847206970329
-0.02734034143843607
-0.004513958372725386
0.12428410230405211
0.15429634883005072
-0.17630940286784888
0.014744868748826596
0.025973109349185484
-0.017758789221470082
0.037271266771585994
0.018297735705833342
0.03723655363497608
-0.011482335340844836
-0.026472952054399767
-0.001567350288384147
0.0028059716543925466
-0.009133090698154015
-0.02037650194884462
0.033901093006932635
-0.023938239636049317
0.09405005214243227
0.03936646503141202
-0.015754200478994545
0.021766234285227146
0.0054350789780247405
-0.03262958653385331
-0.007593410207375483
0.0007338866325756113
0.010481777792284905
-0.01293892522154966
-0.04972152654092812
-0.01802475645927719
0.00937726106856878
-0.002292167469308479
0.011209903256193183
-0.030743473363477578
0.06824779222615734
0.04139211314804917
-0.02945310822324737
0.0016385960195715178
0.013776779315449279
0.012004264955462956
-0.04150335033645786
-0.005000178991342477
-0.042878186243993206
0.022222104851006362
0.11866032113041887
0.02046238359987776
-0.01294795077238324
-0.013931616635602275
0.023185760146769388
-0.0221555661890996
-0.0039058146082332663
0.05969301656644688
-0.037070039528871564
-0.05442248658484443
0.006799260954407202
0.04875205664171763
0.06552950028643355
0.01462892604746988
-0.025288870745314298
-0.08768307459193536
-0.015423717240616044
-0.017537916470250936
-0.09619829276159886
-0.0016631378096444549
-0.03318635526351853
-0.036329974538083565
0.0500206927901329
0.06756362555704419
-0.012601220342611408
-0.012078751084167878
0.017355564395441763
0.005486697362040537
0.012013460444354166
0.06777867340788855
-0.0034073702308023445
-0.022890862715662045
-0.008822270380410353
-0.018968412710290122
-0.01803782605846788
-0.025147775696568495
0.06865986450370623
0.004364595602909047
-0.0190599525361315
-0.02294011664106738
-0.004598506786324116
-0.016189642264019907
-0.05715800264191319
0.03301805337054262
-0.002096369572408407
-0.04202661014741633
0.021046457712680964
-0.02466476477302354
-0.007039579949887206
0.036890117310390054
-0.029148554455840216
-0.008900393812780799
0.010398479524333037
-0.003980997869911426
0.010369677063361409
0.020405965902491167
0.04289883255299768
0.007720325224090359
0.029788897366963628
-0.007132296653046803
0.03271987343869019
-0.08347791664294033
-0.07606982928348319
0.002430686129853667
0.05265226267859865
0.09558771726754256
-0.005063114745987803
-0.01219474270867625
-0.005787324167687922
0.023968066247516715
0.009990001064108543
0.01884274966323739
-0.02779044602642293
-0.03126318919515837
0.0025161577841734725
-0.021516999152796278
-0.018509993783802713
-0.05659367817805461
0.0005962027770378376
-0.04958944546019597
-0.020252134578119065
0.012710764103427892
-0.008572709493987378
-0.052091864427743204
0.04116449488395021
0.04375761784420893
0.007167434001024181
0.07451998789516308
0.015695049821448655
-0.0407299424833324
0.014691287177506299
0.07182147808247422
0.07217306147855551
-0.028761735396161347
-0.014647456147199749
0.0057103751830850065
0.05461850018713593
0.006815825444346588
-0.03464678774904523
-0.00394576590215037
0.014214951720108488
-0.0775088235206773
0.03162799475043478
0.0949305641847506
-0.04859177122793656
-0.018029710742661013
-0.012459432452268507
0.008269283326592027
-0.055637393427921
-0.010601436799176708
-0.004453494015522473
0.01325127512866903
-0.01093588260735147
0.000948387576361437
0.010688441200616901
0.015139018170704144
-0.0010819379074755834
0.009584485163575511
0.024541265449709172
0.01740135668708812
-0.02577897170784489
0.017391395467416637
-0.021737444261945325
0.02711238927488672
-0.0049787934445377205
-0.017498428507940852
-0.05010963784829464
0.037321402690598554
0.062127256718626685
-0.0035788739316265465
0.00837160103214246
-0.003604583946593861
-0.030879512111711676
-0.05208141828146611
-0.007123534960137856
0.001504163868079191
0.01604995346105284
0.010662637090325285
0.02888337194568959
-0.054124428741850666
-0.12675608547649117
0.004809766737052951
0.016355580236066255
0.023640347681663565
0.01647065662161473
0.023949587067462752
-0.023636384237220122
-0.0275363568442529
-0.030798253784306923
-0.02636300590781513
-0.021428468354277422
-0.01637677926899024
0.009631232423133452
-0.04271399199513427
0.0018119460488908643
0.04223716547498115
0.0032273155785840905
-0.005842137560655211
-0.0014144477719435398
0.014124112681887641
0.030541169760203535
-0.034378516702528006
0.03691808840248233
0.06840166626534284
-0.010219246212648582
-0.010402071911133091
-0.019426349345349488
-0.021561989151195525
-0.00409673517615496
0.08945091395996388
0.005057271665623401
0.01337998899171408
0.018281446420067828
0.04422229081516159
0.0337439131303825
0.07425106888804404
-0.04612246006956176
0.02997825317117272
0.014472817898070502
-0.02782023575353949
0.00920478772196
0.0015757557982620009
-0.03569067298259353
-0.015900038473405882
-0.023132157155087634
0.011882157465509215
-0.0020690991323139003
-0.016329549739406292
0.0116350375022312
0.019027450946744302
-0.009886674164315287
-0.03269081352877143
0.0154363871499132
-0.03285753304964389
-0.06991051356537722
0.03307519040705348
0.013524768006937906
0.015891865374076868
0.0005068193970862026
0.02197035727543925
0.016587647704349104
0.0022595604607193415
0.03369230226374363
-0.007296537390073411
0.012128181335833254
-0.00039404458138525393
-0.01477684655529905
-0.05196437376321743
-0.07200153998828654
-0.03265624079440785
-0.010520526403662439
-0.021908192689333594
-0.0013293891050966376
0.0018124426825531909
-0.02641423567362671
0.03328996181214955
0.014788618731117515
-0.014059261079996851
-0.03151407835454079
0.011628392132471554
0.004807043298997518
-0.02369543993187901
-0.02437967484512416
0.10178805218052667
-0.03258768174799573
-0.007342524138131808
-0.010179881046921501
-0.031510337340267244
-0.0049234405686914605
-0.019170278782053296
-0.007631083320695799
0.06292970923896643
0.002025480250152882
-0.001328673140305076
0.036725802289576184
0.013945020732916192
-0.0037762488671464586
0.007971113008972462
-0.014311805483191052
-0.007739103244447459
-0.029242716601059607
0.02132580585926559
-0.020451438313200537
0.011250442330129203
0.011597985761991319
0.020872623606035243
0.011659221991456893
0.01249913458899089
0.03122484371387992
0.023831435169822696
0.0010171477620229336
0.10470744584967683
-0.012792029152772099
-0.017209206350381926
-0.002431042332474023
-0.04643819004519107
-0.030167350927806487
-0.013174889892321382
-0.010780792145761059
0.0762324922822604
0.043753522361122635
-0.05691653930171054
0.010297885680657752
0.0010536805571504414
-0.015910539848804042
-0.024188960261262056
-0.018648796547962566
-0.04629768298285858
0.05100678535098475
0.06459409916573595
-0.005092594060979909
-0.007383432395161901
-0.035419304890650774
0.001312477860866856
0.011011912901601672
0.010995916960566308
-0.020668310877424528
-0.010951388784277063
-0.007520668699599474
-0.0021827033388610952
0.009101162617644609
-0.01858607795827347
-0.0017536457246669357
0.009617872314325522
-0.01156440518428423
0.04161722449462436
0.12350505051444977
0.00914880597607523
0.006551955713718145
-0.01927263642199559
0.03139926360593412
0.06826380938644815
-0.009092781976156488
0.029967139586819364
-0.2325030514137248
-0.1530576477444728
0.04719499948215347
-0.05514564466075504
0.016989233271677815
0.007552864120446181
0.0037174118261064813
0.011215599306248252
0.008595705046871344
0.008578556714587461
0.007136688760481267
0.012508623544491185
0.015432798083986387
-0.0019467276023703147
0.03897810743796527
-0.0006197608695778039
-0.149460378600745
-0.00305270117784708
0.024585276345758193
0.007607184384868492
-0.0014433783259534799
-0.012366440136090692
-0.001462509459864292
0.015370856692322288
0.020702768918897017
-0.0026772751233159926
-0.06611823771915154
-0.019332594607838767
0.022804682566622513
0.0011873697135438893
-0.0014429568281915965
-0.0004641959638453471
0.005053946656668258
0.08363702502930638
0.029771994992200755
-0.007936130355640928
-0.021726648986878924
-0.09862236427218145
-0.030624320556950455
-0.03022598028836767
0.0038590577311427786
-0.0005872938536586452
-0.029496194315189097
0.031340414348723165
0.012847328475975826
-0.023484874542007036
0.022525831379466656
0.016666869723040947
0.1086510511762333
0.14541205481487268
0.08536405308864815
-0.04782512459080388
-0.05463666605531248
0.04418412673164279
-0.02977506242105855
0.05100698680950755
-0.017798325437580857
-0.030303057691356675
0.025929002610812768
0.1038323584204292
-0.007446688835490586
-0.036193323500361606
-0.04051349859265448
-0.013545816979677966
0.03538386778987373
0.04474996294293958
-0.007464036322671578
-0.02525606118687248
-0.06016674673245116
-0.03710291826895817
-0.041141746910558705
-0.015090267006967799
0.07043647527445081
0.08564034116610826
-0.058150901317442306
-0.06990713125109708
-0.031220261462342736
0.0007079080142359445
0.0683277558928985
0.001301377604751846
0.024096600820224794
-0.044688768828164804
-0.09509419783163475
-0.007398517116205756
-0.04795464882447577
0.013874876138011295
0.015900074715892238
-0.04329191397680044
0.0181936781010427
0.0359748915061054
0.0050840140537714885
-0.012490820491791286
0.02580990263339161
0.02928605649287126
-0.01564341147680973
-0.006036488656852564
0.004298405951789718
0.001898326900762213
-0.010433838518107905
0.001895148209306045
-0.002286431012086119
-0.024517709107788513
0.032915272174516626
0.024558170055683663
0.009663656016700977
-0.02766914735670214
-0.014249967689806733
-0.043564054977103576
-0.03992585183063094
0.024545869937689823
0.007934037809420619
0.0009875767721784906
-0.00617641021088382
-0.01853669554830503
0.12378274966631711
0.039404043471030055
-0.016534391307668657
0.013313809561311979
-0.008064343853712163
0.048529119408646605
-0.004031603099776306
0.0003802970279300278
-0.006583545084326048
-0.029568383039568786
0.039508070742994186
-0.031916624153173666
-0.057868671227341635
0.012614485142325412
-0.006137323934950977
0.10077843006448906
-0.004019281529940018
0.032939895092513466
-0.021989514399357844
-0.008590175040188398
-0.14533834866114198
-0.05095978174647609
0.008310837541565324
0.02417565516909329
0.04697303805944554
-0.012364566325861264
0.026527782263287808
0.07654343715632278
0.031085102050821864
-0.019400981958703614
0.0015996441245510378
0.014683104986859664
-0.02342460128159026
-0.028122177661873093
-0.0218988075392663
0.00613948769875515
-0.01866860586235308
-0.020722428741603852
-0.010512513155108937
-0.027777971522413424
-0.045193560050140386
-0.017976188707560566
-0.01277219916339413
0.018451616251090323
-0.008557092900497937
0.03494128276387222
0.022729673539878453
0.024416529369730704
0.03972826904763707
0.0012097164370846695
-0.005356160969902058
-0.03596454797933939
0.01063317829394236
0.042390302258323076
-0.1408618097475331
-0.08079126078488355
-0.0039958244874205885
-0.005182627980389003
0.054891607515365204
-0.042882701168486664
0.08962375894572462
0.08160582159352561
-0.009477977520195219
0.036498497695627304
-0.021617873433045144
-0.029611714200644425
0.025542034970475833
0.03192529879313173
-0.020064930026369644
0.09342212877549609
0.04337442721236941
0.0007976345708826974
-0.04942120412083405
-0.029943167163522234
-0.04902976280148247
-0.045890908447895624
-0.0386312648590621
-0.01016617220756967
-0.0038268580921863703
-0.010349404805635952
0.007013111780100093
0.018772238141877003
0.044785402998608094
0.004542007673159691
0.025058823674954215
-0.07385675654611176
0.02170511752502284
0.028524339198875513
0.007982346687549912
0.018223058206294506
0.008449397426115009
-0.036117639739508815
-0.011131709489674006
0.0939197585248658
-0.015792693336501396
-0.019134427232568477
-0.014826680515837971
-0.008228357712002003
0.04399654228833951
0.07893193323856848
-0.01687414372042466
-0.023492434724403162
-0.03841468785463087
0.011022547024900574
-0.0022888059529052366
0.008809072158450193
-0.04117029222693342
-0.06764438800424843
-0.03377466688079501
-0.029729311463192205
0.025972924035732578
0.004979518751068066
-0.02746358997813351
-0.0027880710953860255
-0.005580666134758509
0.006411584940291927
0.019466987978288948
-0.019195712053860534
0.008449162884784466
0.10705346995904293
0.16476943782872688
-0.029159612000475996
-0.018574688449433732
0.011925646313153963
0.02434729614202252
-0.024617360742043393
0.0393241636051339
-0.017584847499259634
-0.04084268668601214
0.018820703205493637
-0.043557425508598334
-0.06784617524486504
-0.019590760117464648
-0.008543647453263744
-0.06453876794769477
-0.0176335317164113
0.026809916462988397
0.019024457666931588
-0.013525677432745475
0.0013065332323526119
0.024829233609220652
0.004898136489712334
0.04221640323254451
0.10504457594289338
-0.047409429369114506
-0.014825337868087927
0.0014914069501557187
-0.008738572069786982
0.05516813238478006
-0.004041477682138225
-0.03305728818117905
0.003453634609944276
0.01223791762376289
0.015493878232943846
-0.005576544221301747
-0.06026506893523743
-0.026872428654927272
0.017185544780860457
-0.015351025233625346
0.007310336989228005
0.027689948349450797
0.008272534181004595
-0.016540778299842504
0.04870615459520346
0.01605543600949169
0.08436501804574163
-0.017383696799219993
-0.14236056783255452
-0.13956054072113447
0.005205307580147792
0.002447629290598731
0.02754594516709291
0.012937455848806368
-0.0065490102552543655
-0.0013114382871431817
-0.00852210686183872
-0.002630643703778835
-0.008272594179768052
-0.013669075357777354
-0.045741981722345205
-0.03398346194700722
0.016489662047697622
-0.0036696188450901683
0.023251753624225113
-0.007537098160146079
-0.009172482930714826
-0.020168540842988927
0.014914477972742056
0.031277490253804205
-0.002517090215988255
0.014348523687921895
0.009058899628300423
-0.01630884405868974
-0.006191940154188922
0.022542307297884232
0.014119605537131945
0.039885258517108044
0.04068121258765005
-0.02873336135563968
-0.008274247627915034
0.1300714552302926
0.03383010390959373
0.010020933435175489
0.004551896694560696
-0.009872974657199657
-0.1064479697838431
-0.025884283961640154
0.14135284750098284
0.04475144408485885
0.009517530302858792
0.01627331641281654
-0.016449953433748717
0.0003345961786895217
0.032675995899311965
0.010834722063970187
0.07467544072362373
0.04599251309107925
-0.003002903653647346
-0.03213796794995567
-0.015671984115933988
-0.050853820994529134
-0.1483295216322649
-0.02993357473329301
0.010769124426316785
0.0007192004657325994
0.00998022523713914
-0.0052821324159034126
0.02521718208411028
-0.11005209775056007
-0.12814072244693295
0.04013821820032628
-0.050777464823554073
-0.09710389821455916
0.0008883857979313796
0.011229141573319494
0.034444522250424034
0.014895451088006453
-0.059103041638529745
-0.04980874158057882
0.0417671592343893
-0.0018763605669073818
-0.0023562223335764298
0.013546249227221877
-0.02211989509765744
-0.035170401476079895
0.01568846840181279
0.04429424621659808
0.05999441818417012
0.01982023294892804
-0.025009926613986325
0.0635804248177244
0.052635982989859796
0.01568802020969213
0.12917410080181058
0.09774294240210793
-0.06519080823728045
0.03318115527059585
-0.009226275637602224
-0.015915038863529508
-0.01965497060093396
0.07645862888431218
-0.014788088723810114
0.0004727247585619996
0.059385693727181055
0.0034937449472173723
-0.009361633406793222
0.01974850890288187
-0.042041237389278854
0.010616131322208497
0.025155898837322475
0.010920004963156746
-0.11321740864710736
-0.02604592679057966
0.06582962059739525
0.017509864297210208
-0.023402215394753866
0.012154918358285987
-0.008971809449723617
-0.04849742816133176
-0.002287242151796757
-0.10943749756776003
-0.02193360300859452
