0
-0.010972523699965629
-0.027781642119798618
-0.00325167965750472
0.006593278761347548
-0.012214224265851224
0.03452224760754185
-0.032108885916293246
-0.11766871015520886
-0.00603538583804656
-0.02206542402258112
-0.01500260055903129
0.008955006263101292
-0.08615495088703287
-0.04465643307751174
0.012849109036738778
0.0003363097817091104
-0.011057506895661989
-0.023203542466911985
-0.029315873896408377
0.014126599204194205
-0.030451888812386533
-0.03870390270878648
0.05434426782468793
-0.000757403439796522
0.02539226772062085
0.1937750330150196
0.05190774058862831
-0.034965468586424804
0.02632787156638553
-0.02356466984429624
-0.05940976288905434
-0.02298203541351998
-0.010188339938721107
-0.04029568455779135
-0.018413345592442298
-0.017797159106202564
0.007369740800496938
-0.009745205580398257
0.02022320712885982
-0.029393191368032565
-0.017389416393940243
-0.03738245315231834
0.04176747185939902
0.01806169997487421
-0.026268865147573248
-0.0001130243663476121
-0.04539095853557201
-0.015000236684333711
0.04317394342373649
0.015524341688907012
-0.026358916486727706
0.009989754542717645
0.00039197696383213963
-0.022850531726778544
-0.0060146727179862716
0.047220714397739116
0.1496429474063986
-0.01616014560382513
-0.017686675618115454
-0.009395590827931219
0.020524420062544218
0.0005233661789709456
0.02145518480148804
0.05089386456922416
-0.01019054972809627
-0.052791610191075776
-0.01484447295178984
0.011759235013067384
-5.760956748241021e-05
0.010392492321829426
-0.006531985243933866
-0.034810164130429415
0.08014678589377564
-0.0024513515958878847
-0.021959411204462077
0.011286266110567579
-0.018939289749233593
0.016029651032503072
0.01680982693528473
0.010695167788597991
0.006351955582344408
-0.014622303636424125
-0.03586707742817751
-0.016448567292891587
-0.12234422994346092
-0.0972875080267276
0.027219904954677885
-0.0022296970107556755
-0.0002472752112664972
-0.011635829091106881
0.038850889346777516
0.034234176962908605
0.05059042417070684
0.018795801014802865
0.01518739377005127
0.0022596768819186644
0.027153152903726215
-0.0015287492700928153
0.07318199918286197
0.02114708811993447
-0.012133836292388662
0.022459460180676856
0.0009966876145965041
0.004774454173655743
-0.021550650739477206
0.005238123287697236
0.006752147286767113
-0.09802934331673212
-0.010410659296780348
0.014825148329284636
0.02286590044952256
-0.007827720788885216
0.06800327375985188
0.039169762123558056
0.05254902569728096
0.018892126808338003
0.011062006249358018
-0.012407406683165038
0.04157273054439412
-0.05143684411881266
-0.10265399207455227
0.03993281817766318
0.0231664555009427
-0.047762081907838656
-0.044295029899059146
-0.027156783939120712
-0.013906272910508671
-0.0010015578161302033
-0.0018233162993597518
-0.0408547925918377
-0.12168504222838081
0.015001565794619209
0.0029713552220887005
0.0063201340718328615
0.0025989323530212225
0.023580812949838707
-0.03552088379817675
-0.025451105209645407
-0.013925020515775446
-0.02761851655298085
-0.026622944249718044
0.007258857194419697
0.06283670794697989
0.04363880192505236
0.06880263327016825
0.07784790558306023
0.034621739450083365
0.0018993406177675637
0.016253125238304397
0.024143523131417793
0.026927009368713964
-0.03649861406388207
-0.06906164636782512
-0.03949130952039873
0.041290263057063625
-0.1574768163990655
-0.06978671354828114
0.02727007182262337
0.023105540431886246
0.027390303516791743
-0.06412141179239857
0.007301501808375219
-0.147302337194503
0.02153462312848516
0.11636972360791269
0.0316235970717732
0.03422409181301192
0.004648372772968989
0.07066026472934454
-0.0017975116108394356
0.012474793771767327
-0.06948779272532718
-0.01928285892917903
0.013735628686276672
-0.03063501942794945
-0.003137732084394047
0.11630051373326246
0.08923893164392918
-0.014228866174125268
0.005789340422514186
0.022786147044403685
0.016722341362024495
-0.0046236572787343375
-0.0337077969222456
0.0023409259379831566
0.032819470958665574
-0.026696935791676497
-0.039092201520930715
-0.032348007769634875
0.0443517720984642
-0.011657696295596152
-0.01732422577948153
-0.03713827471908327
0.00543013413582318
-0.00573879240170274
0.014528368655687702
-0.03752071762560836
0.02114445143821109
-0.027328427107837866
-0.0008111974983625833
0.002254141378955159
-0.004287508074136457
-0.015463772397143272
-0.019051079727522117
0.002227087098687911
0.09520444321843362
0.025880116044157974
-0.009782874378285707
0.041690110933232875
0.01855689040035438
-0.02774570774023816
-0.024525943867085235
-0.019202985120407308
-0.003244989260254082
-0.01358296186161277
-0.015741655892021582
-0.0037230138539771293
-0.017233436641742945
0.020654458105947317
0.03520595002213911
-0.04279065691415628
-0.026456164179127946
-0.02738841415467074
-0.04202175274225674
0.03209485065193484
0.04773609380633731
-0.027548573897035186
0.019392044852644667
0.04719057518955568
-0.005659329848238142
-0.0059707076822388605
-0.021926887170741503
-0.02956735857737584
0.02835513773612515
0.034224479747352696
-0.0010526844831608721
0.021279166767168286
-0.025840649535261443
-0.01464653340163874
-0.002068353244584086
0.0026676339245689856
-0.010606865719497918
0.001967345139860317
-0.002686817326126278
-0.02922137888948382
-0.019047078805302646
0.02064253520162595
0.041409200289426344
0.004508596547066391
-0.017502520643090654
-0.022353200313269938
0.004522129798530459
0.03478235488838503
0.08763086444198133
0.01878321455585976
-0.05194378143225112
0.0224318355950983
0.043338379913030356
0.00970285479323964
0.010027856038019173
-0.016924742637861173
-0.018238243931423023
0.03321772198831965
-0.07736223461005061
-0.01847989911277549
0.007036736653710051
0.04682023463804579
-0.01521931316352128
-0.020227031918080066
0.009492493171601845
0.018867403723198093
-0.1208330149219693
-0.05237640034625042
0.027147601127612834
-0.002267798635407003
0.011896361064578144
-0.0022437651819385324
0.07523341012637831
-0.016914980768504784
0.013057996855029726
0.033382874743881734
-0.0038600773527780858
-0.010405990629084568
0.009162690882547848
-0.0376630887212634
-0.007476991671069597
-0.03829089960832707
-0.03822545524884488
0.015410862348559231
-0.044990685220120404
-0.029620389937813293
-0.014846399399694189
0.007317841241310283
0.02676448880375894
-0.025005425432384716
0.010708317700975484
0.005638095509738101
0.007566310403416225
0.09061590628226485
0.0004794633032328597
0.005546123117819056
0.05632304420985971
0.014810180719100736
-0.01610109646448663
-0.016639948681295383
-0.009928145808047784
0.00041838005605423226
0.003796281142962557
-0.015294505863403998
-0.007549371304245323
-0.00011008229205690077
0.013987015355867353
0.07043637957749023
-0.015280888296878981
-0.02969448508414631
-0.021566227297444146
-0.011825132414796847
0.019260635542778622
0.1066892818557453
0.012691361209418951
0.04518758701435782
0.02358501171451959
0.01939200822789737
-0.04337459187160526
-0.005286962300949484
-0.05084763845441483
-0.16965070655369752
0.038471908568218915
0.011371037878299328
-0.015794127168563744
0.05199624472208753
0.02206809511618841
-0.006882831249743736
0.02675857670072229
-0.031781091530483294
-0.009325889367353344
-0.0022258567396302048
-0.007412866271038888
-0.0379401657945074
-0.04549662632971592
0.04600673095084205
-0.008337819182414054
-0.06376482386296196
0.04799102950596694
0.004550670642691176
-0.03567447412718823
0.0021643582544488386
0.0066490268784657885
0.063876374383304
-6.481273718986945e-05
0.0058756050579267406
0.01737202001976468
-0.0041220872227786766
-0.13498254670552862
-0.08110033313680173
0.10428120660876695
0.11088278137326173
0.024661222517384528
0.02292910312781974
0.008565957067887247
0.014680681381267954
0.03402424857502243
-0.06630272050112855
-0.03859483923323435
0.009199187866308358
-0.11607894902302367
0.011675357578109058
0.027363229806526994
0.01388499628480547
0.003652275042407576
0.02822303420221307
0.011447338904035225
-0.006630258828338928
0.03006633475444633
-0.05175081648483363
0.04525136895011559
-0.03718273896732978
-0.028826714001859856
0.010805379315024377
0.061763173790979876
-0.07860036861893761
-0.10829412219488313
0.0853364818260687
-0.02622462093169239
0.00800214651309619
-0.01583685945992478
0.027054698953337734
-0.05377819365936709
-0.039306475514405505
0.0019164754366589108
0.05184571945259407
0.010053409261384694
-0.001184732968851764
-0.01622274270915085
0.014433930140699755
-0.001799204167623927
-0.008748196992527362
0.021327584123417547
0.11542853239680054
0.03543668991802048
-0.012458735364341543
-0.00805388111434482
-0.003822398827142109
0.029719677910098136
0.02671965100313094
-0.03189947131295535
-0.0352405949435501
-0.05007405945432002
-0.0027012557396965614
-0.014788710732644355
-0.02919996297811159
0.007692419601582099
-0.017668717916697184
0.033724818849971645
0.009233958984724537
-0.00590391925479059
-0.00541256269879769
-0.06923272304154642
-0.005849139563365815
0.057196289581970226
0.08929316924031352
0.03303812393770894
-0.029161969182672765
-0.07914035602964001
-0.06612371907525842
-0.023149854579223982
0.03220335621820724
0.04997423769129713
-0.012759020253228705
0.024745396185356334
0.015793801773282257
-0.02181284131553151
0.1302496434247691
0.08849819086373131
-0.001217107379342934
-0.003477807547570848
0.0038965356917928886
-0.05326952869058053
-0.051785082360411315
0.00622173460085277
-0.002213506223251919
0.007476113868583399
-0.03293624396886404
-0.006498091752624485
-0.03462785495480005
0.014373676770893344
0.1025528785428996
0.01215736017044799
-0.007724959071887159
-0.026231460910611376
0.02445426523240204
0.0530339608941811
0.0014968702476013745
-0.08745179202133815
-0.022317617729189637
0.028213301165827123
0.019001787942041447
0.005432798177501773
-0.0064815825164438335
0.0027598038117521784
-0.004661951131077647
-0.029648967684097038
0.006173127195608998
0.041763826221426444
0.015263608543369903
-0.026126913282778663
0.024506618007076472
-0.05107398515230721
-0.1642111374141099
0.02760318684337144
0.028558796368467452
-0.002358321552354322
0.003150525647304782
0.011662470514808555
0.012790881412668638
0.04843113172899552
-0.11281355606624383
-0.05113401406425161
0.03569539932288143
-0.02103223980304686
0.004636790142488917
0.011714320815376489
0.02550617564104267
0.04377338097127294
-0.007889700682854725
0.02725218285955572
0.028302507074530543
0.005706800878403267
-0.001177401223929699
0.0035753650461538005
0.002844777117927264
-0.0681268363328083
0.0068785800835725
-0.050335385569603396
-0.15230712230004897
0.058459639924218904
-0.008266049758388787
0.0010777249094158228
-0.0059595161732633834
-0.017246935015619726
-0.009217385532876652
-0.0006354058005552912
0.001585468769588189
0.018291935831058585
0.033532854735300016
0.1462524279264985
0.025581183668062234
-0.013334274421828522
0.06818990208617938
-0.0420704711233681
0.06990833462953219
0.03857223122133878
-0.06297595710254401
-0.0024484132408217896
0.029676841994032355
0.004534617784271194
-0.00021869143082196623
-0.012742074840595237
-0.06661675895219533
-0.0002710476162458831
-0.006734886591113191
0.0031008217057342715
-0.02430448703835188
-0.03862905084388576
-0.008171870235090223
-0.01456621107574247
-0.027323917249483905
-0.003937403489595779
0.009997280732471896
0.0056147430712848246
-0.011623685752014702
0.10498070111691378
-0.028414221257215107
-0.013725043268083624
0.01088174928418745
-0.03508404720323326
-0.01703867259186273
-0.01591433405106248
0.011368413611762064
0.03712414512618679
-0.003969944560872678
0.008099167506427186
-0.001077362534793707
0.012122913604849551
-0.018484872496306964
0.060150503196469564
0.05372479591681086
-0.06005600391097749
-0.050389651712216994
-0.01669035178708058
-0.007385921929532217
0.014755405494392464
-0.01700751034168457
0.01497175728443122
-0.009452106525143666
0.009514279387570546
-0.022360727135138012
-0.1509211756939811
-0.021841854740321895
0.07219534574384023
0.06635029851158623
0.014130444566718168
0.04559644217312823
0.016695302657795532
-0.06346600363182224
0.07491762502799235
0.1792588872912132
0.024012756119239805
-0.0251677481720912
-0.018306571572418044
-0.011152633837349218
0.009856197408424035
0.005251231315753284
-0.03827576499149142
-0.03716984320452797
-0.021948218239649004
0.0033149129326100154
0.001638644276510749
-0.0014589380260967757
-0.02715308984300818
-0.007940862229405734
0.025311589749108417
0.00016138671601301796
-0.007071263470090388
-0.0019541412620009287
0.020313258710906928
0.0575701381822066
-0.011750272000583923
-0.036807757862859336
0.034803600985578276
0.05696295960418817
-0.01150995057018372
-0.016134347133445203
-0.02198592819004125
-0.02231330214851275
0.002756018777553549
0.00862685677059586
-0.025276531735903066
-0.021287956569682787
0.025928289670868465
-0.129798702234607
-0.07826309749544848
-0.0049778407348545625
-0.0038819513972628878
-0.01376864700692942
-0.04981939033421383
-0.006095106330688518
-0.019950755740730377
0.034869985149698184
-0.02748461317678137
0.029811328493720854
0.0916429852582798
0.019436247852607978
0.0036901620711239855
0.04608191458938574
0.0008580025020839346
0.03804376741681516
-0.01572425204284694
-0.006652604998832259
0.01797271554339034
-0.046885661237679156
0.007118622312221521
0.006851512119732738
-0.007595124008142464
0.019714916320280863
-0.010454577671607386
0.061670695146163745
0.14883349941441185
-0.01481330978480866
-0.0009769462158278654
-0.08946659783774967
-0.07479550231815167
-0.023477226986041426
0.043296822824043776
0.0011053088758899755
-0.0831287266775944
-0.014506917437122804
-0.014712244791337764
-0.02055482829834521
-0.0022867019776329177
-0.01482878939302014
0.06764514004483539
0.034414037011621434
0.006430640253116087
-0.0036856826442221305
0.023834082808241768
0.03941399597373176
0.016165098529297657
-0.00359035335259202
-0.04432461182384946
-0.054869072259812905
-0.012148782759023768
-0.02635064732929882
-0.019350809257222792
-0.031962503795126204
0.14735786727254532
0.05302148130812119
-0.09433177956435183
0.01581848687050191
0.0020879565336796033
-0.014466885424932232
-0.018170307432655783
0.0002445760625811891
0.021495363027565786
0.0027437118765545852
-0.017322320227685505
0.05262151531617617
0.0057347847756724826
-0.012556588361111776
0.04335695105540046
-0.0030218551792014934
-0.02936464647017016
-0.0019212880970394361
-0.0007640858458575977
0.0041339756105423005
-0.1301498802180761
0.06173009429353513
0.048743847669115235
0.0011109925804521459
0.004907752231816454
-0.02076937022585808
-0.02912542075529033
0.05075219152653018
-0.01530922206822213
0.01964694146692666
0.023577548239416084
-0.006515107887297374
-0.026522293579570245
-0.03821750513548789
-0.00577001434626509
0.024595617097806912
-0.011415246379986642
-0.036863636124585854
0.0062779226149241255
-0.00487192799436911
0.03912883706639245
0.028627448410124056
-0.012091135564677438
0.0398575656654677
0.011600685835931135
0.013606375814626181
0.017223032764178053
0.05128911537508376
-0.058048526080496536
-0.11144210563567121
0.04228783870073695
-0.0004132388499376908
-0.0056485470081654
0.027334295460465303
0.027537947536787136
0.019920232174023677
-0.015780786996997958
-0.011124308075950905
-0.017773824785069017
-0.04021523146849483
-0.010913260366189781
-0.0009716087755884629
0.038548341678123196
-0.030727103736161818
-0.06654910011658174
0.041256390264989444
0.0027912492635850917
0.0070316603750130826
0.022504828010519288
0.03359296771760322
-0.006938712870181525
0.04284698273729096
0.025755707118374764
-0.01901635879920082
-0.02023582876777852
-0.013412996106627486
-0.043803508980922404
-0.0711345101795947
0.056733237501766696
0.14992850308073982
-0.0038888018909000945
0.012139965085404146
-0.01697487498854764
0.01526963399722595
0.02952805858184147
-0.059294580286420887
-0.08989855620543809
-0.04613374456745075
-0.040383099739877644
-0.09503730959724721
0.009832785140608794
-0.009193050211124569
0.050403017785697786
-0.0071742323074043875
-0.009022980912792487
-0.006628133129631051
0.02150044743304776
0.0005581988873635079
-0.019863020258369266
0.02987926024118656
0.02537680130199269
-0.021850790865226233
0.010837565791414518
-0.026297959378268627
-0.0003762985899314649
0.01167401066421166
0.027922823819555066
-0.00810041112769857
0.04148754533580803
0.020177939290280392
0.0043058025790887
0.03765180127274668
0.07388064433105966
-0.020852949174815023
-0.012274374334405308
-0.001964137722369198
-0.009548963888646447
-0.03758121441408281
-0.025710863061110527
-0.02660593625625817
0.057175517753448965
0.033635280712838556
0.017162991227613635
-0.0065974844913872606
0.029274150040840254
-0.07339922804980693
-0.10885418832100537
0.02088648633689524
0.04737408548204871
0.008334335192973642
0.04220347194905568
-0.012303111755560472
0.006366308880698879
0.013565989622507522
-0.014031551125289565
0.021246883237189044
0.02427426789730062
-0.0015212104477430098
0.06601035923174402
0.009804486191459034
0.012775419898622891
-0.01321119490804721
0.01268470937070639
-0.0802806060898476
0.001144703701954432
-0.003926295263531803
-0.02852643458417818
0.022443502355325128
-0.00037411248556957767
-0.0101386062070935
0.006575502435679913
0.021480384903200304
-0.015008344699856584
-0.008514409078713382
0.047315633265895336
0.0009235131549325571
0.0017075022937081696
-0.053103996852202094
-0.013721622904678231
0.00039476257555586436
0.06007070197343274
-0.14127766655029067
0.05175800561389456
-0.10548436462425827
-0.15905209756901628
0.0643862802615626
0.04110220505588302
-0.0016991350003207582
0.04991330834993068
0.042695737010690356
-0.03588589555866132
-0.020553612914818564
0.00936344515351158
0.052848522865567404
-0.005674317531209452
-0.001837053536114614
0.0068147940680472014
-0.00024522235873159566
-0.011527136204833054
0.003608888153484681
-0.007319627418961405
0.023003705698984123
0.03212369283282898
0.029227927701678997
-0.02731430993909918
-0.04527611255274582
0.016305009534719295
-0.040313507533886635
0.012220461403104461
0.006854829867166662
0.0494544067437326
0.041463980715450995
-0.0010084696399691793
0.029678750366499994
-0.0805083115539468
-0.03381167108401325
0.049314415599463444
0.05698865246541939
0.003333072293645957
0.007315143931751343
0.012774229654424228
-0.010190168791499598
0.015617264569917137
-0.004759439061270445
-0.009812543830992974
0.01824524877745498
0.04046086977117083
-0.0026389618630630954
-0.01866728388101578
-0.039918744332203146
0.06279471566874213
0.03629511380222554
-0.03589690863602037
0.0018442739418668632
0.0298785187361769
-0.06289531385436024
-0.0486904331559234
-0.04166423910613659
-0.050141135123832885
-0.040547082601367156
-0.02910621186565198
-0.004439617558266322
0.025569953136694863
-0.03563651077394247
-0.027407613780116954
0.009355216979069438
0.09305344513330915
0.06511672480014079
0.026362205154185754
0.015029833779578585
0.008077016506443798
0.03246425340683797
0.002288749743260114
0.022361979901006135
-0.07427858255640737
0.003415099907733241
0.040419521609639984
-0.00850954716001485
-0.00149790945808823
-0.021397515066767625
-0.0012218808494336567
0.01040281422510434
0.029496915916409662
0.021979057998572464
0.01651356939282468
-0.07263118468233017
-0.022987382058137766
-0.004849352221255023
-0.010330427821686902
-0.027025602722501478
0.0445022208255146
-0.11988802732520099
-0.14438202385534404
0.025939412105140437
-0.02640094254748705
-0.004281110259930966
0.046633176080544736
0.02819341896920741
0.040250627590438084
0.02514819609634539
-0.004502994454079883
-0.004852099505235412
-0.009179473915741762
0.012775796263940388
-0.0005635055065616795
-0.01101422746649989
0.0026017165265284623
0.15199147948023992
-0.0034018477956816516
-0.01223857677793237
-0.011061037320851244
0.03317999114370923
-0.030104028239318237
-0.0401620361436194
-0.009633825159759864
-0.006323172748709908
-0.011969341529102494
0.020894206663561957
-0.013909623764706232
-0.01452958814700466
0.014204430062599777
-0.02203894073813262
-0.019934531655110516
-0.013601366004356814
-0.012336626370295149
-0.008967110065600394
0.006409373882743895
0.0027057609527878215
0.03741338611743962
0.10484933359410892
-0.010597476248087077
-0.002237777253553689
-0.009426319554471721
-0.02267914381999133
0.05977312027324271
-0.008229091220412205
0.0059569647494772835
0.04640616473178223
-0.05603500237597857
0.015120555529027328
-0.005760475251709766
-0.05239468390151142
0.0007007639726675565
0.010094563945963454
-0.03293005964198853
0.03145239421869544
0.09411936726304648
-0.0012430474605544036
-0.07310175478830176
0.022293558836136533
0.0909177792087267
0.02468521207322789
0.0026008077872027324
-0.007023751663803873
-0.004372111848345356
0.04113234691883246
0.01387012355681263
-0.007892051864105203
-0.001952104544663568
-0.0023908528233872873
-0.0004903784950494494
-0.01914965235996693
-0.018222923825721785
-0.008473342272077643
-0.01928080712056273
0.025171391531105678
-0.13826630646991617
-0.07240083073554682
0.0507104209481726
-0.01300550782779515
-0.04963607272014171
-0.03978983878658314
0.035804393465905276
0.020425570295206797
-0.0008751174562529006
-0.025315501138891132
0.016350624714696206
-0.014517343619672466
0.03463812110725973
0.05177250680287685
0.02122069896048071
0.022482156337895645
0.023437212838719856
-0.020081075714761473
-0.14362446847564614
-0.14607857393336315
-0.03951197589643286
0.03480541117716333
-0.03012312414140635
0.022094517252876762
0.14772063749719022
-0.02207640545227734
-0.013608769714031934
-0.023163582371717156
-0.050486863878497566
-0.06149109529430639
-0.02232462466019896
0.049071148912660005
0.12164448123519674
0.010888593682613884
0.059125621577612295
0.03437884528031418
0.004780316143588585
-0.022125301147599915
-0.004503744303589355
-0.0451259608417541
0.03207390923588191
0.06973407905974345
0.023974399077118243
0.04440961198472334
0.021061735323926748
-0.04049699337096994
0.011175108544783617
0.07870993421259669
-0.04387077422869423
-0.04873631108945168
0.0049187999958452255
-0.009506006016160393
0.052821398550875164
-0.003935641438340141
0.007269686600187034
0.010273892576301338
-0.01755472632073108
0.010460833085395799
0.019437732499511324
-0.046787452751551606
0.01235034111722189
-0.022430447981673166
-0.01277112777993483
-0.027365279577812592
-0.041306593566986516
0.0496169902662209
0.034461337261470645
0.015370241013861733
-0.0035141474000464587
-0.011376397218554185
0.004353940191054181
-0.031757075271685226
0.011280892439421365
0.02811695260951525
-0.004330244848369376
-0.09128359995066412
-0.026218599890796192
0.003986348747087716
0.07623717047668468
-0.02688641729840802
-0.040733649266315924
0.04568907436620654
0.036493028106441984
0.035671777822797957
-0.010563222540520115
-0.01458351543207197
-0.010584947596551535
0.005460266882383804
-0.012320584970232269
-0.01331394670248881
-0.013178172547575357
-0.018214132411860432
-0.006725030461615292
-0.03256660491686947
-0.17149810794296608
-0.03790303461334087
-0.02055842028598859
-0.009186466366165144
-0.025881498266449414
0.08189151080844109
0.01722887775285043
-0.021125234412900838
0.03940806037721064
0.0021331634723605127
0.02617801576642456
0.060852158606838874
0.030711991311192923
0.004147980789930102
0.014159175569626545
-0.016352674166452818
0.018802910187441898
0.06904478003822374
0.031051096030237393
0.015732823636430852
0.009482466238815412
-0.0024720433601334406
-0.006876999629935997
-0.017799131891931667
-0.019012424589608546
-0.01010639375019903
-0.03746277215304119
0.025474566683742383
-0.03660500725705483
-0.023145484924265085
0.005236116341153635
-0.06893827650112479
-0.049326496424045185
0.004207009865219338
0.04349500373044457
0.028060030824336127
-0.007650337279653004
0.015624629026250269
0.01849329746266687
0.012279353384845513
0.015460915641784397
0.007745040663311266
-0.010935258873864425
-0.026567606563010278
0.02718655896205221
-0.0006878322780332518
0.03546822516991109
-0.019729853275839017
-0.017027978211844107
-0.0029885396455807964
0.07363423518968944
0.16823246009634443
0.061082941055318744
-0.0432568251768487
-0.06148323584945837
-0.0075715425217252495
-0.007831636365676615
-0.03479963569181528
-0.0025464131868620445
-0.06060871801660391
-0.0135084494484083
0.003679313744997719
-0.0351536773925357
-0.0652964488513326
-0.054450001105714206
0.05081753448898253
-0.019520588731907106
0.001387276156052029
-0.022667958287831417
-0.06046316728980844
-0.014016842970491102
0.05512119332034256
0.06759205482146906
0.015304300490051088
-0.011280695616393702
0.058548337445935864
0.026428536899437517
0.07524345319919944
0.0013173047007867162
-0.012551896699943431
0.01302993680036941
-0.011155899986789702
-0.025267612163899403
0.03339607274148658
0.0049985028779688774
0.04292822431709099
-0.03211345527899415
-0.016279798966310304
-0.027660208118269563
-0.020335265758376582
0.02883299938868754
0.02079577592979591
-0.038239622970000255
-0.1506632431692033
0.004210415728443266
-0.13862951262710574
-0.018187712070179583
0.033558977502714936
-0.004262154975021851
0.01927884977601559
0.00859170984451289
-0.036303701923003
0.0344405939237037
0.05830158046349575
-0.031076506438821913
0.0008236393877121841
0.01994724717841017
-0.002996106322322957
-0.00409756862085114
-0.03088725867927988
0.013023254590605014
0.0254087310720964
0.03848812420262313
-0.045795987471146035
-0.013993128815964952
-0.03144614765801279
0.038478096953216266
0.034399517314568036
0.018963983864091156
0.003763960489195347
0.031306720829877996
-0.0043172781854047505
0.05046702594252107
0.09229372309193917
-0.006824843284936141
0.0234806771427378
-0.02113040641254684
0.05829821066815663
0.02576785831228563
-0.1374489033621829
-0.12530815503608586
0.007774104266629702
-0.002739985730599994
0.06961605400141932
0.019592174346308944
0.026011888481223055
0.003231315799038875
0.00809695600736995
0.018794005501728838
0.009202594636170382
0.06680414132907048
0.019798253266692566
-0.0127229367739113
-0.01708719223467839
0.0252248476049586
-0.0049255628047180635
0.009999727455917101
0.02690435121379997
-0.03727391408353524
-0.047284225206498304
-0.009138764428134888
0.024093402014803488
0.014374206311625677
0.010769012063906977
-0.021168785960572967
-0.028676595530164266
-0.002658218451190967
-0.0188453115105177
0.019368691924224624
-0.0019829537665375908
-0.018786848062714658
0.04811532170709777
-0.028121193258316243
-0.057744557658083985
0.03709074123961042
-0.0903056172506563
-0.12485932784607033
0.039832259649260675
0.020720347370778144
0.011148928973481591
0.050043729511336885
0.04454136578302252
-0.01748841837006844
-0.03741532297927574
-0.018551863295787566
0.01728182277708257
0.011902852692449287
0.02271872111845898
0.005660667913238946
-0.009468256304024264
0.050693669745015615
-0.04526187547369076
-0.03540914365961136
0.010655535812631758
0.018661768422071366
-0.0578426431629136
-0.002856247420858618
0.028650758758772734
-0.012285260811270638
0.035116534073441424
0.1060686528613622
-0.05078739600264843
-0.16227584459252942
0.020008421259716202
0.021282715335833983
0.03225104311767835
0.0029908413227356283
0.02981459423864194
0.005040037544647641
0.017478339895368247
-0.010231299784101639
-0.10293225161915963
-0.0070072776320610364
0.016191527094717637
-0.0059156764564362845
0.020517549539566384
-0.01004532733071536
0.014066086674947931
-0.06593728502751589
-0.08565943371862465
0.02371107615445136
0.02753329498312451
0.010471428157492612
0.03813956793864613
0.05136128315535333
0.04499297791288891
0.02750345543631986
0.018666654220742467
0.015039991247390343
-0.005464776768510396
-0.003168768697592159
0.02070321538989598
0.033236378966263726
-0.012212951177922786
-0.005078947343086542
-0.000988445010315235
0.0829419264948079
0.04462776235180975
-0.07214900081799402
-0.006313636207515776
-0.024612496846421392
-0.0029826213419259437
-0.0205482403875128
-0.003007268839964356
-0.013002100343263642
-0.03609323692627892
-0.007483337401530868
-0.004918353390085634
-0.008788573119277828
-0.05170386370626383
0.005300919452250647
-0.03373832386390711
0.03662878604241362
-0.06933319733218297
0.017365117258242115
0.16392046486230843
-0.0167814952909468
3.954912935798326e-05
0.02028135861463338
-0.006802847431650682
-0.011398744232146332
0.07966029655951493
0.0035134158075157385
0.011232817874245855
-0.021233274538237444
0.016393618354123524
0.019279951229064674
-0.01898287808580923
-0.10940442139819857
-0.0075943489980922554
0.002184488597079731
-0.01820785800236433
0.006967934123685993
-0.015291784385451047
-0.04169314005012241
0.1513885400516202
0.014113306074690298
-0.0016669308326003826
-0.004030014514496128
0.01210123873547041
-0.14747247064640737
-0.060954429260617796
-0.022656384840283803
0.03074353367163232
-0.04223646834461992
-0.12485814246895735
-0.018565957131754553
0.08149139795756971
0.1785598358061005
-0.003080301467646953
0.004157009299364581
0.015341366427635436
0.0049820093414207015
-0.05423395210724877
-0.036991523712055774
0.02080340795985189
-0.012962093005659014
-0.01829653791876237
0.03276358774755658
0.02961262673846843
-0.03958369313646823
-0.03669093798228989
-0.017526753980063287
0.026246796430217774
-0.008228741509960552
-0.0007660669620765994
-0.014327072644549372
-0.01352788944282825
0.06705292261617497
0.16201901554401235
0.045438155554713845
-0.0490768127553984
-0.003737179690492547
-0.03668741015017939
0.02055970128321673
0.0075398697831107545
-0.023608228467029188
-0.04045870549111238
0.02346145475109165
-0.002000367417855547
-0.0239941504897757
0.036054648883297825
-0.038703904610444075
0.00727894229095747
0.03873401447622046
-0.03540524607886515
-0.03415479087830953
0.010026086265315141
-0.013574019381869976
-0.08702031205073138
0.0941873406892917
0.11503637292684302
-0.019155377408198417
0.0014797761116011393
0.0006156477650588601
0.02281322432013368
-0.0014230715877851044
-0.11325418892853405
-0.060787548784879075
0.055908815663957126
-0.03174358902367849
0.018935561401305125
-0.008223957393986103
0.01628291688232678
0.011525858501792866
0.026517057131927244
-0.021805512792420018
0.001259483723821303
-0.10165076268905998
0.05575684507533128
0.06738775896442596
-0.004537308018663914
-0.04286826776353146
-0.014332350255433859
0.02149773803100277
0.019043236317208053
0.011132504713016774
-0.023811427843857376
0.03018029483838974
0.039100370870643004
-0.03380964734397994
-0.024334393436340633
0.018591233630507183
0.04121284942999252
-0.001594967988672241
-0.0005081480848679638
0.06732020519334467
0.013389206978690794
-0.005619741923720772
-0.04927478901411261
0.035052310586671694
-0.00011665043652717642
0.003646544302460164
-0.022241067198101275
0.0009658281257996151
-0.032618396452942344
-0.012991343061687687
0.006247337157527922
0.00865021075416486
-0.007650433140114826
-0.04413951525426554
-0.023990227581032548
0.001578290912284212
0.009400755439584711
0.053308587182513995
0.006679932729500251
0.01358715496832564
-0.015239510285439756
0.004588921663441715
-0.10170273219898769
-0.01805901592867295
-0.002153761332500838
-0.01744770075599857
-0.01224873896006921
0.0008862227919520374
-0.008834656050912446
-0.0007061641411958611
-0.0009502671454554128
-0.006605720913678005
-0.018636097103522698
0.09160761746464924
-0.03271224612874005
-0.008833062648527408
-0.08057795055102981
0.0007737047858851147
0.020927168960264322
0.05276546628073532
0.014589645321942351
-0.04552912680135861
-0.05701926954263195
0.005058793702764913
0.05114526956975732
-0.010551907720973619
-0.041671802758334764
0.0014593838249611496
-0.04807956000306809
0.059400360805175724
0.16354314144703974
0.03941237291134431
-0.041562885043114416
0.014030393251021211
-0.05307254966634629
-0.054091701855926086
-0.022516661183874506
-0.017302129793335907
-0.019843534509891746
0.028304307088366114
0.09653093787036889
-0.0059999075642324096
-0.0075308835251840294
0.037094324992158104
-0.003300655371529378
0.00963337669160706
0.005645801731889726
-0.042563503486696054
