0
-0.01634668520701539
-0.012292565463778653
-0.012937767307555609
0.001528225041176323
0.05735102780563986
-0.05680901403494587
-0.11430416346789565
-0.05490267815824578
0.08088485536888307
-0.02936296412162716
0.0314653241025249
0.08140947734710027
-0.015875736957246585
0.0007140803141700405
-0.009119233489071092
-0.034642653692079355
0.023252623154684026
0.004211928957775728
0.00036229668647050817
0.006964326126474797
-0.021968586566107322
-0.07136866801851305
-0.0036043798045953114
0.045124908465405955
-0.0134826622163944
0.016717362663959706
-0.06603576069291198
0.08829782283807228
0.1421119339818033
-0.03345670238376006
0.009275479964926558
-0.032438753858409185
-0.014416253465936295
-0.032395818985553534
-0.001182122994042118
-0.019173258618214707
-0.03890515540382849
0.015428669007002993
0.020157731072888062
0.062398811428485974
0.07246233606980577
-0.050972772858036
0.01105803294852407
-0.036822736954674036
-0.0034225842524374145
-0.009946816783561602
0.008896730042199317
-0.011257979027142455
0.06595609921840354
-0.001116460098811932
0.023763817053182888
0.052907898110924965
0.02603778382801729
0.026157627626829612
0.013709911686872767
-0.036208658308263225
0.013129328009188092
-0.0157185003814055
-0.01324602850091945
-0.13852377761326395
-0.0664397669218163
0.028406572712514
-0.06835197207688265
-0.03224670285563794
0.039553762798447696
0.017592426587528392
0.03389728392800073
-0.008213737557235352
0.02840336219367011
0.05320639365987235
0.001184930920992596
0.0085376579776612
0.02743990057715687
0.01776306748141297
-0.06288315480212857
-0.02546139500396861
0.015801502508819537
-0.01613613356744138
0.031248868382740217
0.05697719391187112
-0.035618287396629325
0.010905230756296395
-0.14759265434286603
-0.06939567121344287
0.027782328270348107
-0.005036208199703697
0.03347146321490543
0.038788724787145575
0.009913988690861752
-0.027060871484111623
0.030774454704887294
0.0001577508147404582
0.012674096621567358
0.018253286740942364
-0.011382547352452563
-0.01220960183088428
-0.029929796493822054
0.07632303965924846
0.040697208399471226
-0.03493761944870443
0.009525837955120787
0.03863162402327153
0.038702604469049974
-0.06611179602615049
-0.15585323981571753
-0.010074097883903625
0.03293256051718478
-0.03031063975165757
-0.010852333412495863
0.0007652387143390937
0.010480610085148653
0.03154351459866788
-0.0049157799370195526
-0.010165650607455784
-0.009979038555995304
-0.0025298710061274986
-0.0025427502636083026
-0.023989984410869174
0.04147637968412435
0.02391889820648107
-0.02612136529385747
-0.007770229095227645
0.040577949978731015
0.1250537129368168
-0.008367393581003588
0.006226521684335282
-0.02260321395041859
-0.020719108869672147
0.021005872712761997
0.017780108744730457
0.036730380973127454
0.006755110784404833
-0.0007821893875035347
-0.015394920390242466
-0.032699880496946714
0.010271039289443637
0.011912679163251075
0.011289931214962844
-0.04319956173533772
-0.056517695946912916
0.014780618899306283
0.027086099676499147
0.00846079001090917
-0.014593805209851117
-0.025888062436694316
-0.020498706096138943
-0.05271390997181954
-0.013782706641767431
0.05701008238619011
0.002310382411693888
0.007914598043721717
-0.02248423738370497
-0.012366180380754386
-0.002591908837998642
0.002741326411781444
0.016491044626154364
-0.022762107178960905
0.0070640188449538795
0.0667803234665462
-0.04311494685996833
-0.010636474363110012
0.0004418380130921409
-0.019786532886456862
0.006517665714839661
0.014393455945465783
0.017623739787388435
0.05337230422461624
0.05346098236365035
0.025579240377072276
0.02733003963867163
-0.002342107578009221
0.0018001216072241573
-0.0011059206123323554
-0.00923528549783364
0.010009898868157369
0.04301491200649182
0.07779714045186267
0.025648081891385174
0.036912464789427446
-0.07343937483189132
-0.10068578957959723
0.02198522309493005
0.0015234445557370515
-0.022786869892944282
-0.028407885892571344
0.0603662432082746
0.038402604243786234
0.012654151981251088
-0.03130489409127246
-0.0386633283694065
-0.05245960509807168
-0.0920598305436339
0.010753560564329056
-0.02076139556132801
0.027370127218372595
-0.009306578319870166
0.00589597924864313
0.00116430785657939
-0.0926596125185415
-0.12919075918907774
0.03283550528003622
-0.012355305154085928
-0.016190452747514888
0.0485012510999107
0.05012984631108594
0.007433771768402945
0.03457164030266031
-0.10504838847318856
-0.03617427072234232
0.007817054138133508
0.029236390977179186
0.0082292162635429
-0.0161715705537698
0.006263177192235029
0.00518655440256501
0.016022009582910193
0.01450171834174264
0.02043732416960871
0.024551737924605025
-0.02339518466504708
0.00392692012850278
-0.01142574962452709
-0.026150543993327526
0.0069687587505559805
0.008272135802949832
0.0221417290038103
-0.024286894718352325
-0.006237416096785622
0.006144997807923748
-0.053678273234392934
0.018261140021353452
-0.006370279132829371
0.0033396440314010477
0.010499161580248488
0.06003512553743185
-0.021634446999798218
0.14144532538354812
0.07600423800836884
-0.014894888824918382
0.01148602669839791
0.029512340152530556
0.01893425565578909
0.04106631129659927
-0.10640737855404198
-0.0626014607780491
0.00815989890301266
0.00967200188622623
0.06676493665596427
-0.002728200388646804
-0.035461074952412665
0.062044830289778315
0.04882917452977077
-0.050371086755494746
0.0049575496524197574
-0.032826118780752395
0.030116817473360844
0.02215549655849463
-0.011756109353786567
-0.005179953104034062
0.005017712886707464
-0.030895040449464006
-0.011627112316800506
-0.013112141563710687
-0.024598325200121826
-0.0027045532894327345
-0.026169853401123735
-0.03984119368502277
-0.014381944081362794
-0.001040502411723908
-0.027504317455544172
0.0007873939178593102
0.02881453544218905
-0.0008969307340186821
0.000498662468167124
-0.0365684552621789
0.004150389018242389
0.006302223336889842
-0.003958003457582533
-0.0029399787580089666
-0.0001520635496093368
-0.038481503284315606
0.05824595765624811
-0.05193956782035517
0.018960364969804147
0.07908798146285086
-0.027119441508326566
0.06488908843228454
0.012229644135943466
-0.013018978633099818
-0.09674153409732396
-0.06259178037199133
0.008537954684581923
-0.024360823370276983
0.032276271116040256
0.01603478174777173
0.024862904085847588
0.008138549639481777
0.05088470720473424
0.06365034878178776
0.014666345818125552
0.0033314286569133497
0.0033345640378975644
0.014537775267106886
0.009869086411298663
0.06231196642859671
-0.011733489580018509
-0.0058552098771257706
-0.0019839458235753017
0.0064197522525076545
-0.08944969350632044
-0.04085306835418854
-0.002573634732850547
0.0015303401857339007
-0.00318955370276613
-0.04354884101144396
0.031014581881883888
-0.07516520642349768
0.035260858027464634
-0.00954679063985829
-0.016431476147499045
0.04032992661164739
-0.029283918844660094
-0.04094811290381671
-0.0028444493034344496
0.0006370267784762276
-0.02676697776880188
-0.006521493625751767
-0.018147303022901386
-0.010569437930606822
-0.0017507347731378316
0.03370207406645217
-0.01886605609470129
0.008806712838070547
-0.006782863841281862
0.047427880553980034
0.016421637437056255
0.005722337897893576
0.014166157913789498
0.0637773522562383
-0.14301802854115092
-0.03883428754458933
0.04479170468466777
-0.014084285346268785
0.01936332610672389
0.051385211755296555
0.01277280473790969
0.13989374791190157
-0.022914395517626397
-0.017167863626204958
0.06288162639664613
0.0059818578801073465
0.015093149492679987
-0.015154483803224964
-0.02666595629570384
-0.012819867465470283
0.004720196329566289
0.01353342482300973
0.04249914901416562
-0.007261185363220201
0.0652343569106877
0.03483688869940555
0.0319543819476778
0.03605689330774589
-0.03322760781783428
0.03606926557461677
-0.07510450657756992
-0.12608072439544682
0.028104659956405532
-0.017148968607681527
0.02817118908066201
0.03329042486802035
-0.05874342027563237
-0.16364479078499933
-0.07325890021019578
-0.055651013766778216
0.04859646095332789
-0.011704829989265877
-0.03602621575596225
0.02200943508946205
0.0003001373185711257
0.032237179808541634
0.012176125542549508
0.018027694429721703
0.010332234963166828
0.04579045993684076
0.005677425088138853
0.018970870048503993
0.02888780637091407
0.00949928990157511
0.0034188326839504255
0.0244999526462196
0.08336986632536716
0.005669690005678577
-0.0006109383848877988
-0.0051685836252569495
-0.012590202185759259
-0.02021794786115908
-0.017095471775306854
0.03138065051747636
-0.10400947941212327
-0.17447932465621777
0.04177917555023336
-0.02954639817545783
0.001178688797524659
0.02559749727409313
0.004198761777228517
-0.0014911766210080918
0.059504952204136936
-0.03149826996884942
-0.048078760416969055
-0.025843352103735995
0.019179533924050148
0.011075553844144315
-0.0216181604720679
0.03014897247969409
0.009478054502306257
-0.011746182816548484
0.0334274563417141
0.013242977048636577
0.0031771728881631487
0.001819262128171335
0.023956111677756558
0.031804991244971624
0.003639930247562372
-0.012727034849215228
0.0048349815987495095
-0.0036393435691160314
-0.009053168042643427
0.02370045342997688
-0.0037040601970084936
-0.0178640421495635
-0.012492677417477758
-0.006955106224696718
0.011069647950284239
0.03751226577271008
0.025373582266645815
-0.010273706129633839
0.024757704103290916
0.009465624237012683
-0.03642428457075267
-0.028406582257834097
-0.012120833047297799
-0.012588402657086951
0.012049751903479173
-0.01746276817992813
-0.040077266629645523
-0.012991463102026245
0.016223409883488044
0.030858247658585334
-0.05859019786030533
0.004768438692179401
0.014581903602738783
0.01409815866914972
0.03527434427603609
0.09381914091215228
0.07250624660607627
-0.005699993950861214
0.0054319785886546785
0.02916292976541911
0.02100578020047944
0.029344929430681208
-0.020371390655517144
-0.030690451427251388
0.014252586733759339
-0.01682662211832187
0.002842644520876087
0.03901872946318385
-0.09747503648917305
-0.04476159968214893
0.01424063762011311
0.016921264840100564
-0.059843628933773374
-0.09927323068156627
0.11769296536984036
0.0575606710189278
0.002966725773146563
-0.003616440683076253
0.010269188334538297
-0.04440130846420319
-0.01778553101372003
-0.012560566031003096
-0.011218489258265107
0.012906122249393616
-0.051174400773464634
0.007614862675865331
0.006341541499359097
0.018153911031238135
0.03336798603803098
0.005758789443026071
-0.017160432491767765
-0.008068217516126125
-0.04458609847156208
-0.002227226308282586
0.024986644043885595
0.008930884554141372
-0.10831292975640754
-0.06944296524226476
-0.008760907512094426
-0.009626933376950976
-0.017655031275806945
-0.024322153677174628
0.013311557515496557
-0.019144428606820255
-0.011809836424031474
0.014675045157936746
-0.018877939073375732
0.06584369098015978
0.1502470140763133
0.04810955358879011
-0.03805422310778213
0.04127419380504583
0.02094185162926389
0.02379718924847657
0.016742798560523884
-0.01710611981705937
0.011028006391597633
0.00012598731344688272
0.01707800815151083
0.014290686413949151
-0.018671176326622987
-0.04499513875018569
0.028789552524111202
-0.0176451079534828
-0.016991105227458073
0.0026892835923097856
0.0033242466162284336
-0.014119426544433164
0.0033586865283573943
-0.0032855026934934966
-0.03010041874825925
-0.0074561155474745875
0.019274677321847098
0.12713383433607292
0.05205158331109253
-0.12773872409096781
-0.12603329652728468
0.01233558122879848
0.005392729449638971
-0.008030589793537242
-0.0139162050646537
0.01241193970066815
0.0192982576867817
0.10160371290402896
0.12958523230109603
-0.06585410324219682
0.01685575592189848
-0.01195026492788249
0.05125191974588723
0.005119880065516229
-0.01506546514329455
-0.006629496778966257
0.029851272978170692
-0.005667412648316333
0.01228827705638972
-0.0719983123476823
-0.09526110819707263
0.023506103053460736
0.0033700797759755852
-0.00952646351027785
-0.05580152610083892
-0.011434999664936938
-0.031137407161011443
-0.03186707372520669
-0.03209958148942731
0.006042228833223201
0.025583051486747607
-0.02639221333901142
0.03678099210962394
-0.023152345686893457
-0.0024893357787832303
-0.039640229261344716
-0.003786052588944156
0.0629753672438305
0.014342903845574068
-0.013326765287958018
0.00586658293335085
-0.04396080709092166
-0.06874750673971039
-0.0016695930258032057
-0.0041298885484948485
0.0013393444474733684
0.008977970950655655
-0.005580761531687871
0.020895901658399958
-0.01887738034308456
0.0026542779845435092
0.03157532801129641
0.004026043866440403
0.02903745729271468
0.0722496132983798
0.05155542708763269
0.00853497678895533
0.013946078719771047
0.03162598355613981
0.011749393866036354
-0.03707323521438107
-0.014575353538016358
0.05106525123600957
-0.0544888360379468
-0.011718247661554985
0.03766325553458197
0.018355400310418383
0.026374316336468584
-0.03158041539304379
0.01687476469508122
0.011052805936363043
0.023741694578901105
0.001914900728850233
0.008361708809642444
-0.021115073047775
-0.0395297143627774
0.0021127741236067316
-0.11118903611139182
-0.03697505315975599
0.026165572962770202
-0.037972046851085274
-0.053054668139206416
-0.01311887919989992
-0.012636741921854804
0.040298002939751346
-0.04320722464930474
0.029222519958089287
0.0021752489970956533
0.004877124441924139
0.03205549908457802
0.02880752256166996
-0.013685184492114724
0.013957044603953937
0.13374151813671312
-0.002521577347123457
-0.010919119063140177
0.017107824741787313
0.0380143942773891
-0.013468249536128001
0.022021255368008655
0.0686291070683269
-0.009964429142325286
-0.015468575808703465
0.008317556296441375
0.04013869963782196
-0.023440488677965204
0.013212498711282187
0.0015538124839142816
-0.016331965506047607
0.016460236924936526
0.027954203576330237
-0.13987796089807442
-0.11154115720622433
0.026346824763133173
-0.005268519762087071
0.01248153815639405
0.01931000883120501
-0.03866615162479591
-0.003512808289567116
0.006139235860973189
-0.04702091726615279
-0.009157711531794064
-0.005484223072336906
0.0015824961109328131
-0.00866677635382783
0.05095407342105563
0.02408775325034696
0.028748592337041707
-0.02454078284051363
0.05621552871084704
0.0014676278326822524
-0.03050384099075329
-0.08880548956865167
-0.0904548356588152
-0.02586716233463452
0.0544298653461485
-0.01316144443127936
-0.021580466205942433
-0.0041825086066495385
0.02423072228037862
0.016462074843428095
0.044919252923048394
0.0180260823442854
0.04659387571535935
0.010005401190884573
0.0023423830592825467
-0.024642592130428704
-0.02029991404153159
-0.07474450793330242
-0.023517873690011314
0.01863799064998644
-0.002643738470477873
0.0996706988113979
0.023376508762179213
-0.03989831783920659
0.06134961617463619
0.053720549288468554
0.02722321366756065
0.012109646627215398
0.021377208528847558
-0.03004143139302581
-0.0005341961729860275
-0.018342894468057307
0.014588004268626482
0.06188082521558493
-0.041846498917173895
0.007393312145180197
0.03377423631161939
-0.01398409327608709
-0.008299516016692576
0.006198619083534511
-0.021831981104591117
-0.010024766272150423
0.004133498471822418
-0.039799585335804924
-0.039814072232095335
0.0333884714737686
0.07665306286568073
-0.1309274156424063
-0.03315234803490955
0.02090299071429699
-0.013500811027843302
0.012600637930954202
-0.148433660464154
-0.012052504479438519
0.08737056044279183
-0.04594131896028132
0.027893411580491512
-0.012967825941420888
0.04786409477957226
0.041430540292432254
0.030790607218238685
0.019208388885199806
-0.020354628329825524
0.006449822501114527
0.0018837708823548744
-0.004756173142566079
-0.011046954006941678
-0.041453340386760254
-0.031560170079689746
0.0036800940417181485
0.05185161601525641
0.0180988014560185
0.01106213155079874
0.013376083476798587
-0.028608625113041023
-0.1097703001696682
-0.03492722541209794
0.023225254873211625
0.009780348737588396
0.01187974962176708
-0.008533150185521142
0.03919895953325513
0.03158330516049733
0.001085356937284997
0.028301432800865993
0.03755167507998336
-0.00046416173721782996
-0.04976828797547274
-0.009882813761462605
0.019234914269011392
-0.04382134020053662
-0.029860136270760066
0.05346258655975782
0.04089295012395847
0.016361194545283796
0.04997788609502109
-0.013622269658999736
-0.0072222311379432046
0.0015896464368609945
0.00727424041228566
0.009508997155591151
-0.015363822199347408
-0.02034253613992681
0.025087914917134236
-0.001966440316319017
0.013816697632925387
-0.0005681864784563156
0.031635779418350746
0.004403921284814535
-0.028118232542209465
-0.007565863094734825
0.009407724444595261
-0.02130780879973233
-0.006470198340005687
0.0676407025715709
0.010021725678334403
-0.002257413957828586
0.02244867920040684
-0.019275099572883602
-0.012610945347818918
0.018535659381931153
0.00389326597665549
0.027879135376180607
0.010742796267961945
-0.15279221573631405
-0.08742119172561676
0.06529353936184785
0.028480102004639175
0.018188388351271838
-0.13363849473897482
-0.1047208123313776
-0.1409539089630216
0.12706503852797296
0.023282894540807317
0.003272157288881263
0.016610731331939927
-0.005276404920135006
-0.01244888382021718
0.003932370572636467
0.016239866432628737
-0.007174387358096001
0.006764056157117765
0.004430161082371799
0.035036731637542465
0.03098557561387775
0.011749429350086512
0.0054613587235143035
-0.04038169407056446
-0.04721527656817346
0.08426396017937819
0.015522714202775048
-0.005711001010063462
0.07889532897435234
0.013072670495697724
0.024080801304415908
-0.0029199261858322595
0.0012823867076451109
0.02959193628265712
-0.07241282064231556
-0.014790126653114978
0.00218529224146537
0.006995380344157603
0.05337335859018094
-0.02825227400798253
0.010316042642342569
-0.005113031936145996
-0.0018342264751254587
0.023869240437290596
0.011118778349395278
0.0007552527336935997
-0.015150365771525242
-0.028512224546434258
0.020960736547678233
-0.014232463798272836
0.09855010807068469
-0.023045786052416962
0.011646532849181929
-0.028573746098069428
-0.023776708184607913
-0.012230324241163042
-0.023112888095323362
-0.05524158963804312
0.030298854331996364
0.046326143468658966
-0.0006930032611092192
0.006042223622594311
0.00447339119714189
-0.011051634960207075
0.02279610323285153
-0.015346984443703367
0.022271408974224617
-0.11966556789013877
-0.00566584677768414
-0.008989501265661172
-0.01448571984107262
-0.008305884162749853
0.038580483992885106
0.03747865755318987
0.0014708528009235622
0.016609674725208436
-0.0004574170712373635
-0.04982704210506063
-0.05108848942523092
0.0028549169782370316
0.010146961602826798
-0.0368421803037935
-0.033944348196105936
0.0465473620519919
0.03884859596971064
0.04057957697739329
-0.026305040077541367
-0.0062913746480659375
0.04235910695413029
0.04313674620721183
0.09040895780703277
0.06645284669354669
0.0038766230075132804
-0.052975707722875354
-0.08562391980833756
-0.01862391828493914
-0.022197278704537964
-0.00032880004648024464
-0.017616426164036508
-0.11517417309936114
-0.06257714762005875
-0.016100078970190775
-0.08720135408881463
0.07514891199899774
0.15661451806432133
0.0046122915832293955
-0.017223599666854918
-0.006628656698365175
0.0033839474608584334
0.04211059542301523
-0.004697489086404398
-0.04283311421923977
-0.03502227192043615
0.02406319904007153
-0.033545465195342364
-0.010779402898866561
0.057925107710322075
0.01698484558074335
0.03542831079816122
0.08350560546827601
-0.014080009237864139
-0.022093098279512852
-0.05602033274028478
-0.015872671881767084
0.08797339281581179
0.05623668593458251
0.011744183870994823
0.010763744286747754
0.003104845811530699
0.012332498997942455
-0.033960510241200136
-0.0115237565337484
0.0024640163422338397
0.011330034343807641
0.003005553957630899
-0.022594128436815648
-0.032115301379785105
-0.03085664397022104
-0.010499749718123843
-0.007735301406845149
-0.02031947585954854
0.012211175750511472
-0.0035576403461632347
-0.0077152450492483475
-0.004926362772861868
-0.013397534361278145
-0.01812908852267393
-0.020746152452432363
0.0015840430723354996
0.01484113258640176
-0.015358076367404383
-0.013436195284709006
0.002228095818045847
-0.003281543989536012
-0.008589699058051873
0.001182303563127407
-0.012480982172602765
0.030135316059403047
-0.03918742361761625
0.004255553837372723
-0.008207720498136973
-0.02096109262997148
-0.018105645545821798
0.09909816854551957
0.025572238145309872
-0.0036758125081085935
-0.009430850961482632
-0.004377974049631861
0.07461304497557465
0.03369825265752321
-0.015210354884384597
-0.004982507595487051
0.017825872786228145
-0.03479570787897052
-0.023929271036796696
-0.031285043566505265
0.004588395139618262
-0.04866563582799601
0.015036844028954284
0.010300343201714716
0.004874540882632911
0.004715632479412281
-0.016540352501834044
-0.029780417333895793
0.03935737400534866
0.08116402749965074
-0.02063847572388016
0.06164511182540245
-0.03726134161819272
-0.004612152206704556
-0.004198455489053653
0.0468827593548035
0.0061300796563102805
-0.029859124317968604
-0.0349875641099307
0.03544631963137358
-0.01618558061990288
0.024752964895734506
0.04783434350815498
-0.02261475834611826
0.003659208079554946
-0.032382929286954056
0.028246068235518146
-0.020486890172323427
0.008775499254240487
0.00031778894157525814
0.03711622244004123
0.04519511599556097
0.019792838803310973
-0.007859476409533269
0.04905150567461904
-0.08392362774210839
-0.14151509271071605
-0.001314899703639043
0.014124161142240133
-0.0003941716338076496
-0.02894841715021255
0.00775486472852219
0.0012053964304996755
0.010509575987704651
0.01609349632681085
-0.014842546313955802
-0.020162028537467232
0.0027357142925504728
0.012573255910559291
-0.0013597850597464774
-0.0032936946493090074
0.011232987085017106
-0.007629087207901895
-0.01643161127420058
-0.00424404897789478
-0.016401865837862954
0.013216708858582574
-0.030598410882126288
-0.028269689870534815
-0.012176672352614123
-0.021429581224953292
0.0015255453679020729
-0.010081040749384219
0.0012259377810405077
0.01602435358681563
0.02708547742092752
0.036703636371702784
0.008422026075236986
0.02872281825232635
-0.01991764408486786
0.015770181571561247
0.002470576780845636
-0.010154720208904974
-0.0227036522273574
-0.030768590393733194
-0.009792642191550186
0.002500964708550533
-0.04225608338577757
-5.567749279367889e-05
-0.012726090760978975
0.07935949693479892
0.007556188355031244
0.0960248626732327
0.10591204834428135
0.0017116735657306467
0.03621546623686332
-0.0996839184530195
-0.061184979155259035
0.01342092364660665
-0.003950424337850161
-0.00713183448876472
-0.01920871100770131
-0.014445669491766809
-0.08390054692523351
-0.01970536075483555
-0.016490938787036384
0.01230343975409622
0.01094244718311523
-0.026212798727328162
-0.004160836807638548
-0.0101971982724148
-0.004093008026746173
0.14072962710419917
0.04625460286727142
0.041449229974755614
-0.020225303970522208
-0.0064132614439194185
0.013761337187016214
-0.033367539830634924
-0.01655537200924897
0.027561701206534825
0.00213859136136131
0.009217694849548251
0.01287656216600714
-0.022775267631827315
-0.029358352703491974
0.007369000292571177
-0.020407995494428892
0.012640970224960931
-0.04079476813936685
0.011188032507536486
-0.004768787447479905
-0.011412335657183956
0.009435815618884147
0.026233050480255052
0.014717210397688193
0.011926517410206706
0.017861530748203843
-0.026495036705243107
0.08936403731324644
0.09876061568679081
-0.04282683515547912
0.003997451051859379
-0.008235486388700886
0.010172145209702457
-0.11220054105631318
-0.09563208391817439
-0.026162581297648604
0.0025843991684219507
0.050546167721505046
-0.04356435566641903
-0.04576935232403024
0.008411004472329928
0.01897528238968937
-0.011636318583392237
-0.020966645775084523
0.0015615901537848788
0.030874705209183572
-0.017112916966326268
-0.06401579435529951
0.005691617298525045
0.04167020689673603
-0.016052144982931418
-0.01240751272829638
0.009234919657409376
0.013323556190975184
-0.019351123444173272
-0.013819340530675583
0.09902008887379322
0.12236272844422312
-0.011344510597819466
-0.002388733793268942
-0.010629597921993765
0.047933850169097174
0.010871408787789664
0.030406333301102262
-0.03613322081365684
-0.006915547198246175
-0.02331240473259775
-0.011484912448191097
-0.012864699557466334
-0.0591405141547701
-0.18965065378388946
0.028975552616844202
-0.05935704079286322
-0.013450336963594673
0.14539028649386798
0.07170703676652422
0.05943673027724055
-0.0274120023046746
-0.012343553240826591
0.021346144151571718
-0.015636482845706578
0.02545033213678557
0.0612477048395373
0.004633354724223958
0.0023498921515628097
-0.022768927646592104
-0.019477134082223284
-0.021530627666697607
-0.028632796376423252
-0.008941310017407172
0.001408665389303966
-0.018625250277465994
-0.0354767281028937
0.02964865666655953
-0.004551310987820253
0.015043917342878807
0.017566686484913163
0.004830684428966506
-0.00762659148264506
0.014049027703462495
-0.014723967088876536
0.011902128282713753
0.03033918961060003
0.043767359434501614
0.06140859538058983
0.026057932669452683
-0.015354857718962457
-0.01693982394451246
0.019020948329088034
-0.019826278684710152
-0.014582736002583885
0.013052029628760887
-0.04293176567718345
0.020275236745019267
-0.02141733076144704
-0.06131801193109228
0.00512849065404299
0.026264816383540866
-0.005959892767934871
-0.005536005617081124
-0.1682853168443194
-0.03878124881826191
0.05244596416875325
0.0205198422558722
0.000703314895875668
-0.006525557913648831
0.04462677727369565
-0.023712325365171892
0.006667344130052374
-0.007228773433090267
-0.0026218363524430463
-0.02562511155888275
-0.006791093640182238
-0.023899954983515277
-0.020968432053185423
-0.017096803078463795
0.03369979123713195
0.05099094922045636
0.02118097261298624
-1.3583556030177163e-05
0.01314827549556933
-0.058181280577621626
-0.10373526522869739
-0.02023730490769407
0.04151591124932426
0.0032227313994893686
0.08940308716335786
0.08502030352014084
-0.01743564694092941
0.027962146455599093
0.0133133672194056
-0.0036549519645951113
-0.030303914826493392
0.012751578159287047
-0.01583876764449965
0.0027920635852369006
-0.02409707900890515
0.04009306100225681
0.0002942988672603103
0.0029068567378153142
-0.017984978810385313
0.008131752145132504
0.042701842729513176
0.0035696204001608753
0.03475255271550344
-0.016942515495770322
0.023943217756258375
0.03455340398052728
0.011315861822981886
-0.018581752594852213
0.04099151697186777
0.004119607261453203
0.00450592009294327
-0.017426611868570436
-0.048773951501376714
-0.024660996507644996
-0.01931923220622727
0.0006339801178890813
0.03292727645571656
0.02967205760101173
0.0020888724059893553
0.02925110736499582
-0.014320287329727273
0.017385763017974874
0.032517799655106656
-0.001736204015838792
0.007459287509641862
-0.015807153558489082
-0.03139351659125185
0.032966910436388774
0.006416322625983772
-0.027821667390020424
-0.12223835549784114
-0.08264155815709537
0.00919779976284229
-0.0001752718400759939
-0.04624984910729505
0.021373708784582435
-0.007016632859930803
0.014540489095176658
-0.06519140206261696
-0.03226342684654171
0.002797988423841915
-0.011078070740841732
-0.02435488120181157
0.07627725058054892
0.004791446927302188
-0.06702482917581759
0.008583597417776971
0.004782038026614558
-0.04104660078279731
-0.04457425370561372
-0.02201006006121013
-0.031053193431068736
0.07239906456940942
0.02538528775336353
-0.01247600179478889
-0.05651532275663401
-0.021091185396174387
0.050685802271904855
0.0046359662503462325
0.0016104410977772442
0.05614054979869776
-0.03546061649310207
0.12835219241213658
0.03335356703597539
-0.04098560809785588
0.119105813528612
0.18244897547623048
0.05142690266013713
0.019779825889828396
0.0003513407814551895
0.06281769362956238
-0.04154559564246093
0.021557043710777875
-0.08304112995185263
-0.194336065883985
-0.008379972382652303
-0.06886016424660732
0.023523750178757914
0.020546851238182468
0.014952511239196095
-0.027347446472014113
0.056699261243050664
0.04856999821077378
-0.03556687214405087
0.02428399315891945
0.0378395266981916
-0.013433931790442385
0.004986165689649058
-0.07352682021445144
-0.03542065919927183
0.021238002462202716
0.016005924412675485
-0.012790758327530155
-0.016364804505407102
0.09677528516743625
0.031064621856025716
-0.04506992329139251
0.0223258023866246
0.005385856687093047
0.009086059076496124
-0.0241945794787787
-0.008019496810612516
-0.05206115864108726
-0.03832894266639171
0.001969669343504862
0.08083011764450716
-0.0249195463062845
-0.02604853262451563
0.003953244749406651
-0.007469551581680023
-0.008548120211069286
-0.04107601692723113
-0.037085445652498404
-0.005682877393136038
-0.0537776851428189
-0.02778500423021042
-0.051907267807385284
-0.0206842909241606
-0.02488147962569145
0.006385549191554062
0.047069625062976496
0.04239350599154175
-0.026850740415171336
0.04183100813194482
-0.01702389713940429
0.01237842802625335
-0.0006670150189865042
0.09921105261780325
0.09544687102527262
-0.10483031108998127
-0.011065764203127836
0.03361269637040302
0.052655609877057065
-0.02716279227313623
-0.00532406740404168
0.004480146579366502
-0.02529843345193707
-0.030110244113231845
0.007263212502707501
0.04991078029823189
0.014913789551894511
0.007477674055218095
0.04559894396747979
0.05452678222193114
0.013534557344640456
0.00622974822218794
0.018723343703523944
-0.022545517500572845
-0.012745424824799486
-0.03177432430620478
-0.03221869007604299
0.012861989011760187
0.007124123391139497
-0.03298219173138666
-0.010872800559649558
0.006970066655554783
-0.00174296508907484
0.0036411785801148257
-0.05105796983894661
-0.014817763338803308
0.008151802438588917
0.01500630947945508
-0.036359688747510464
0.020651214396407176
0.012264807176864475
-0.061977921550720835
0.014718780968429213
0.020469282482332436
0.03222040160568774
0.0002746121005918155
-0.009724980208810678
-0.03568031940390332
-0.020328574742650946
-0.04251503158200414
-0.019157417557643337
0.0018963224917756135
0.024901062984189225
-0.027508481130060082
-0.013950756440304165
0.005186149435236575
0.028418658120447908
0.005335297906708323
0.0035089032503961056
-0.002721881283656203
-0.012806338932244721
-0.01405239832976988
0.0009371826083954403
-0.040909042312892975
0.011042146948496543
-0.009982388689312637
-0.025309891530642486
-0.05348809139605167
0.004031356619146774
-0.01576909287565507
0.08741827557613864
0.07824486574167648
-0.01134075486109905
-0.008267053010594346
0.06540013053845549
0.07819660517656403
-0.04391140919250878
0.0020837132936783625
0.018126061590975642
0.09428802880708335
0.11649547823744634
0.0022304214232426183
0.004490591493245907
-0.013234872541305669
-0.027984975576528286
-0.05103859238418672
-0.028714359377411285
0.009760626370487534
-0.02296703274954021
-0.027814004075347332
-0.0038372362319052025
0.0004901723721107763
-0.0173997797064725
-0.02374438517423177
0.04157464109612389
-0.13380350659190365
-0.04696952510384686
0.07708276674378638
-0.04266355792398614
-0.022336029344624763
-0.020663977472403932
-0.0072044474543170745
0.04401288704493673
0.008123535047950322
0.024281875378283413
0.021018684985121234
0.047294554555460964
0.0353575518066499
0.007785664916441464
-0.01531755813377033
0.01036113136408517
0.02122531020181407
-0.020086937345219297
0.013247563574072632
-0.018565673384949445
-0.016697769772428202
-0.024635299531829292
-0.004626190571823215
-0.0013102135385420538
-0.02118077468888753
-0.009471245212240721
-0.009380338335705793
0.0586066111349002
0.014034860329677193
-0.01883956794731332
0.04471696620715979
0.06457321403528628
0.0312598285725478
-0.126810156027298
-0.031073884743094637
-0.027418315973701313
-0.006384737944876276
0.017950503343662456
0.013669834616907597
-0.0012606632277142099
0.007648738905702225
0.016713452832903822
0.0278194368873319
0.004343377171909681
-0.02390611840020421
-0.033225662178654046
-6.64730326797016e-05
0.0009833491479047704
0.01202326727124735
0.001078293029013892
0.009058042337364404
