0
0.02519909479414935
0.013264058771288518
0.03370815364779443
0.0078792094220018
-0.02556489749793592
-0.0024920353858048456
-0.016522379703669033
-0.011379207305246507
0.002032058016953419
-0.0073445263009861905
0.03819166801369807
0.01586896884269905
-0.01941417615998162
0.04351169651627641
0.015508423021745226
0.10937583403704881
0.022296643564204494
-0.011290574021213163
-0.01141573773488619
7.315932555843108e-05
0.023272378135826065
0.03762679578342286
-0.01864029627547654
0.004476431054213296
0.0071414878695447844
0.026289102601641086
-0.06686804212325619
-0.017053057736001305
-0.010337586566291093
-0.0229897504575375
0.0403956247232529
-0.08338838620804882
-0.06800310804696227
0.13549911657587876
0.08120333679931292
-0.003537688295396106
-0.1107462248168091
-0.05345312222106112
0.021357643144042152
-0.016544369147292737
-0.0031557473483035917
-0.03301740391187671
-0.03162320562139394
-0.0024182398913523
-0.027691195701038722
-0.034298207601169854
0.002868529248793894
0.0006281173574532668
0.0072040268401956445
0.0549756978659959
0.04948902071365383
-0.0009991197447495111
0.06502899029021421
0.010634111841593586
0.0010451333092202676
0.056912628570828384
0.025236204632866775
-0.010096812108639183
0.011009578461335096
-0.00934721487131243
0.035126378805761374
0.03038430380628178
0.045772994338143545
-0.004062998831536021
0.0038559668761858046
-0.0685645296108806
-0.24871856456533403
-0.062210476527081025
-0.013023848092609848
-0.0068950399270364645
0.00561087219194908
-0.011432714184040219
-0.018049826716139198
0.03450477310806787
0.10184178650147525
0.016602105904009776
0.03458334524917298
-0.07114561992180164
-0.060479160320993576
0.035614909675011956
0.02270164970889499
0.08456349938554941
0.02770936518484748
-0.009332615387204838
0.0023703198727902134
0.0065492866901474605
0.002847891660175477
-0.0077995037027722295
-0.03897604224143325
0.027855242483033858
0.0501328218581789
-0.29988203478562037
-0.02987506107824231
-0.01811795345482941
0.14630762869580077
0.1155882876444093
0.01783797157575768
0.0009088552338568158
0.018329851622821774
0.0313432696705652
0.0011051323010530334
-0.048774453284368455
0.007352379722667024
-0.06493002211515934
0.018328758880451865
0.014560675970038014
-0.009800321594688254
0.020130714280735332
0.010501604028633841
-0.008192940055687185
0.0050314107506391976
0.024758632582722977
0.0014636288750753657
-0.014024092198289656
-0.02568768555293292
0.0311592009718735
0.021869571669568984
0.04842810609190823
0.01994083411444789
0.01710882394089718
0.005494439332727905
-0.0007367294448808131
-0.034751433005831896
-0.05985638078300145
-0.026472040424106995
0.0008577699038869196
-0.1279964796722471
-0.022198510435860422
0.006596123533622386
-0.025733352799980045
0.01838846426128207
0.01939188184795815
0.015579778576546315
0.04268948577906105
0.012359712254355858
0.028042228000142614
0.02077534742945005
-0.0004579185568118099
0.031182749635957154
0.022435523974461847
-0.033620170029249545
0.0060533681099755356
0.06210032344280949
-0.005318578558283839
0.017939233990291324
-0.02236070204430858
0.02629976852198315
0.03269870668831976
-0.026616954430698045
0.07329109366846365
-0.11603295085580415
-0.1539325718165629
0.002466286702686291
-0.015459430040036118
0.07811164382552194
-0.004918336812217617
-0.008971804709808495
0.027740828978277125
-0.009461192657041803
-0.010937984779497648
0.042660088523986305
-0.020124962091148925
0.020039315569124957
0.07914507799800727
0.024361553325976698
0.0004331950427617157
0.016456357192437307
-0.03405313201083287
0.05175373264335184
0.012625945054720415
-0.01273310396139155
-0.0469510899542477
-0.08130027136194815
-0.009115394712349737
-0.0065317381533313975
-0.0005008768944209925
0.020933404103661145
0.02982021563123374
-0.18707644079456912
-0.062403079224176476
0.014960500814860377
0.006647233381464739
0.02517146607896794
-0.009448872623452944
0.07792932406662054
0.05163253449109363
-0.025285842084744735
-0.004893996536802888
-0.017660998493587477
0.02734419116944105
0.02393534510780573
-0.0050024606702833724
0.0017801027399154447
-0.010603753117700048
-0.004763778230866613
-0.0010108830956481773
0.025127285430723418
0.0242416126096222
0.03408101103624395
0.0060617961827111365
-0.0040113186298571055
-0.006045604055600501
0.0012978853390751826
0.013917977312935127
-0.016407687875495253
-0.021460809676026017
-0.0030695631514460853
-0.004996451639428672
0.01862763202299252
-0.07801882021953646
-0.03025785037655405
0.030186363307078367
-0.030374499751158524
-0.004080972355007051
0.040467845129119336
0.0009836588157622179
0.009508919028607586
0.03579385194712322
-0.010765950792150794
-0.004385679899584369
0.007420234498855448
0.040154347182851
0.0092053266047805
-0.04712407092324352
-0.00038773746733899284
0.03223521211269406
0.052358647427107365
0.005941182586038192
0.01055687800845457
-0.027376289858586304
-0.000860698504426522
-0.039279256886989904
-0.10414481657698191
-0.016543889730834847
0.010191038988109753
-0.012748454163588744
-0.026918579882129236
-0.04001997347528693
0.07979853731427972
0.0856226378858543
0.03527801980292046
0.000661544617227314
-0.026120098509452162
-0.020770736117918923
0.0776067872606381
-0.017869775183412918
-0.048670712723528686
0.02738354356073017
0.019586044112159442
0.009556086878519037
-0.004725895848036051
-0.001666366180615821
-0.013783562838964158
-0.027804412250874336
-0.025523836503162953
0.0146844702579385
-0.02299913740494576
-0.08248500418151286
0.01041473894435123
-0.016539003693811852
0.04682927773306013
0.06074251600479576
-0.01695822037567831
-0.023855993909347974
-0.01659800933739463
0.013673167829692195
0.027644992016172414
0.004016923698650726
0.004238794296277689
0.023897503110307878
0.01379154814786177
0.05962448282891722
-0.02831786182610844
0.007344186441175838
0.0006759351600858134
-0.003610821947797197
-0.01871611251879615
0.0136361119110961
-0.02419916676101496
0.007109835688620495
-0.0009702163838572148
-0.016336651817961727
-0.024671111652824762
-0.03548288244938203
0.026422736544114294
-0.016737946827848207
-0.0063458045243285615
0.0020258069850346856
-0.032577952066090356
-0.039593083150541324
0.0672480309595875
0.07437438164450158
0.050513434740890185
-0.0014842576934679691
0.007487714847829116
-0.10741451212578836
-0.030870877326978075
0.024205161627175314
-0.017853447705473733
0.014882823531466539
0.0698729065882874
0.04556705499119539
-0.002875710035249674
1.2595792035777901e-05
0.00752428282114754
-0.04218667934944794
0.02385543715108285
0.004866026770314818
-0.010045603993401226
0.034753946915237595
0.03627247896803786
0.03916443104329559
0.02535089676153884
-0.013807094458730646
-0.03680078756683729
-0.05236661279911026
-0.11256185227118597
0.014644023373102813
-0.07348393403668897
-0.05806905706893129
0.036176629565389105
-0.050872342310715545
-0.02322705609512138
-0.01008566095043938
-0.0018669989178321986
0.02462487108847905
-0.018998907943259234
0.03801154666223166
0.07078238245102639
0.006482303958330829
-0.017764495913244152
0.01745955462354229
0.0044286936148256704
-0.022707640686488107
-0.03169692534364785
0.016588387695741377
0.03163223627649163
0.01696907444398532
-0.006478432594395677
-0.03987745057238236
-0.020769008416949487
-0.004573265451361267
0.01921538123296255
0.06152330887181164
0.11393968952150142
-0.04173983311499999
-0.023601965927819386
0.00042900295444904345
-0.013419227363190595
0.004660690000015243
0.09071247664416528
-0.045202161640652896
-0.019950954914349606
0.050698184909826846
-0.03629487281030946
0.0048249950326245804
0.0046964249607026245
-0.008612070685755507
-0.04618707051579737
-0.10336000008826261
0.018969720740377474
-0.037463792843680156
0.06577268706693484
0.027373707975960452
-0.054340983650823654
0.007791755340445751
-0.032302165317279447
0.02378827324869102
-0.011787676756862814
-0.028360260572353267
0.04279553239615003
0.08072506368679877
0.053017385912339184
-0.026938909322382763
0.011804755514791748
-0.0009518796043805769
-0.030559536328456493
-0.021864240104905362
-0.026416250718191172
0.004735063054258446
0.01776095911213645
-0.01929160524111469
-0.006917882484618912
-0.0010699285771841867
-0.0705732995116229
0.14019601830067444
0.12382028102601204
0.013567324225718323
0.016916485708839826
-0.01675204826464825
-0.05101752587028754
-0.05187113974580099
0.0037662462795601684
-0.020633232041056892
-0.002790356549765235
-0.02843065918031353
-0.029892967901334375
0.015180224363116859
0.028677333496091435
0.01794696810579991
-0.007803867852381804
-0.043145710948922875
-0.0012299583712940315
-0.01934422421739407
0.03285116894497047
0.0765895841990945
0.05884494637730641
0.0560229685253799
-0.022033294087912166
-0.0051910704804667175
-0.006771932344083413
-0.02096567567808081
-0.013640481542778981
-0.03622389793262562
0.00822243551777995
-0.034794065445125734
0.012638680714059304
-0.08560285757098675
-0.10470534094549697
-0.012244365144097926
-0.02083521245020609
0.0045323397604659695
0.019675374194862316
0.023614883874276894
0.02776587164706381
-0.0095558882882218
0.017939824462507768
0.023192571445728186
0.01153972321907855
0.053504186793102815
0.031450020806578084
-0.015337473321034382
0.03169528986366281
0.025930856163859872
-0.034432762094339264
-0.024516828771059023
-0.019295950312897155
0.022905425233910065
0.02194293146915129
0.0195263635047921
0.004782782391991985
-0.14296416145560883
-0.04828723786914073
-0.093424252844105
-0.040453909916511765
0.03695560322355473
0.014839279707290461
0.03359139465033819
0.027875584598531518
0.03921188951243977
-0.011437483324931776
0.028975435285695253
0.02296923903160829
-0.005969779037592923
-0.03834068309762324
0.030016483732287345
-0.1144722539743499
-0.11153403990336334
0.06469699656839563
-0.008851627952017152
0.0635785676408059
0.08584160394519029
0.02473080693119619
0.020496122784031758
-0.02039834752113441
-0.013057889680708444
0.007911784741972898
0.020793573392056258
0.0374780554284103
-0.00929387025296671
0.02158316569667584
0.013908518114364776
0.013164970666647227
0.02363366398391557
-0.005755222085337229
-0.015076669807449941
0.01618552538758667
-0.0036002976705651925
0.05378249622330393
-0.008696804194029044
-0.028528560763705108
0.01920680247805651
0.03160786412928414
0.03598220783289199
0.02744965140000154
-0.024516376973350316
-0.039204166985915986
-0.024083068898565832
0.022803394480536976
-0.009335918557563584
0.01501776602616152
-0.028417993522352455
-0.12248333024776958
-0.015015399437464633
0.0038196187967979626
0.004899174875591063
-0.025325795573577795
-0.05561539496148351
-0.000704694945098114
0.021955177498187463
-0.0007356694329226055
0.08804205388235042
0.043805178069810345
-0.02520266769759319
0.013850868234854045
-0.02776858989850189
-0.022638575980229725
-0.03505487955102267
-0.0029500826816880104
0.010622279360687995
0.07941897900600195
-0.015104835399543187
0.01521718613883962
0.0048976990439953995
-0.04845812671776084
0.05109543650225118
0.025463961796795304
-0.023444952519255758
0.04187207131465123
-0.015670590256379596
0.021756398869242657
-0.025806716077034834
-0.04041711335004986
0.017159058679951548
-0.10607745210585731
-0.0569313328617666
0.000186313013421625
-0.017542142554715784
0.012660985633179845
-0.0034809286323893808
0.11644773844375386
0.1876662011435149
-0.05350336733820536
-0.0136613310393519
-0.0029136558109363777
0.031783030519248884
0.005690762178557156
-0.022657358622372146
0.011462660388368611
-0.03392399777057379
-0.00013494805683514908
0.04850203331083158
-0.07617858576196204
-0.21063289763791115
0.013760177187830909
0.0027845842805100007
-0.08657734370842145
-0.0011353239480681677
0.11950784749503338
-0.024045365928731584
-0.0026188182018615862
0.08595959117250264
-0.05605096957601395
-0.010788617749232446
0.02921103034481637
-0.006854806291886929
0.019345154841258334
0.005946992873733811
-0.004322775833199555
-0.0029461615450746066
-0.015705995202192555
-0.021459318497185298
0.014488954339323384
0.023999197113163204
0.0403666807442185
-0.025178779956487932
-0.01715626408880496
0.026527550219863843
0.040651483002902986
-0.01046750604799596
-0.014534761925179683
-0.04016556219925643
-0.01515745220523092
-0.006427520445177054
-0.009091272015402918
0.05945038703419644
0.015966021094490513
-0.02511781598401821
-0.00477780105058654
0.016064358312701685
-0.052664868721786835
-0.030302331337713376
0.1626389915497455
0.0396103258118351
-0.024824921537531044
-0.011171864074105397
-0.017989897849689906
0.004737304972100472
0.01221775010141178
0.03980252739164546
0.015018581644285931
0.024508995634711872
0.006258194234470523
-0.029541011654794516
-0.004307686494030012
-0.0294741487693888
-0.00673127574340128
-0.034186484498656876
-0.0023957195917530152
-0.005299534500306432
-0.007677066815770848
0.006591572343549318
-0.0021171760139626515
-0.01229846124827085
0.005609544155637138
-0.0052716114292354335
-0.017717313368629486
-0.005923917892485807
-0.003264888873309872
-0.05162339579216118
0.027986415790650098
0.0391305845657433
-0.007795674234134824
-0.012071308390692304
0.004623358210622795
0.04089296768897044
0.007071475579882878
-0.014842932516212479
-0.007021745263868165
-0.004078134218774549
0.051793787534790366
-0.00438747355071233
-0.056571664211103274
-0.005606136256973144
0.013470734087224791
-0.02206703608215261
-0.008895186330235626
0.057606583950000345
0.019283134342355044
0.009351622462521705
0.01768905008367106
0.008191800512182455
-0.026471894728367883
-0.01304139785649895
-0.0242574411492832
-0.034285283587504364
0.028792302994736098
0.05348123121348295
-0.021230500211790765
-0.08274265635064498
-0.016714217799877053
-0.021104849078068453
0.0143161669297988
-0.006747691865578502
-0.040397548773748036
-0.10523978218583785
0.020318830471200467
-0.05415067247485135
-0.05526508563182307
0.06425768817600425
-0.01511834810322006
0.007311774710212195
0.025099664352341542
0.048945343313784556
-0.022753646371857405
0.11170894358823583
0.08531254659173886
-0.037887207425771195
-0.02862515578388081
0.020863892010335172
0.015852331842870507
-0.007117784366348026
0.0525323830841224
0.009677476666428741
-0.016677650027644347
0.014516014968521156
0.05293744923564097
0.00831486722228216
0.021797059547376065
-0.0003030588046436198
-0.00873933051338866
0.0005926409498089271
-0.005096479300059584
-0.0034512965559286334
0.021779760342232207
0.025504811853464437
0.0013808779197947356
0.010336091510114779
-0.025520264005116883
-0.019617005889912095
-0.02557397679833921
-0.03378924070747764
0.004503628813402392
-0.024222937807763148
-0.019392552583635307
-0.04724252455443111
-0.02182869702328623
-0.030965383444737756
0.009927148770117623
0.014095073062462656
-0.0046828838307910155
0.03489164267539711
0.031050126788120722
0.027341117645937704
0.03204370460651939
-0.008695849473998828
0.019826285111550396
0.06887716826097529
0.014348541334678402
-0.044108127956137194
-0.04533368788336328
-0.1358197705133866
-0.005867833280132488
0.009824618158809775
0.017440561694545654
-0.014687135189650844
-0.007785657783531375
0.0034341904063843252
0.01189818775624863
0.0011355323109251564
-0.006021697210019755
0.007853258990139876
0.02869739944448624
0.0230359903418917
0.00481045547147606
0.008189918090640758
0.008038297554750629
-0.004818017760766446
0.03760319712964436
0.02222511481511016
0.0022977671353154017
0.001172288367238875
-0.006179208922072523
-0.07356000859030255
0.006189473049308254
-0.029777004334797137
-0.00721642678092036
0.03435085258634832
0.06389188072285902
-0.128554947633601
-0.043497794896824704
0.022410903641818337
-0.020774867854427285
-0.006410039338537035
0.05691672894757307
0.0769334538699971
-0.012694241788751967
0.016200023859818103
0.013909801328589523
0.05717598216175786
0.03297699959754552
-0.03403687968951848
-0.002606824436821857
-0.01793603247618473
0.013220165272409615
0.023211043592060904
-0.01794477931560498
-0.017777076174244247
-0.022069286780808255
-0.09235276388441883
-0.038960265864594765
0.02262327587678212
0.005865907473429493
0.035323732077789036
-0.00243492910620957
0.04205034019351739
0.0384679429436274
0.025204447915146488
-0.06634518819340872
-0.02895941891958557
-0.058624740574448594
-0.019889829309066683
0.04530902777858832
0.06072784801684094
0.015632254456018072
-0.010970464850917992
-0.04922228588072179
0.009645989031120131
-0.023363672397521962
0.03157938794090021
0.011595676108199787
0.011286340651160827
-0.006873390271801677
-0.023089911539205758
-0.0018087417941241716
-0.011556613930032841
-0.021588174764522232
-0.011458017710047329
-0.012348862259405588
-0.0004319928401587509
0.02032046051636644
0.006415276276748481
-0.15113943497120788
0.01679599700295735
-0.004936320938942527
-0.018129437248908743
-0.008583815676421726
0.02027877502120685
0.01911646129765042
0.047692690429049375
0.08091913632141742
0.02898717764780558
-0.008875909560860432
-0.010324405547193837
0.012285210556001952
0.07033877640068467
-0.030351649366311514
0.01455372023826335
0.01532784786444211
0.013152918342982723
0.013342681930065369
-0.016487099249868548
-0.029103345821050234
0.0317013250605647
0.030091152217638646
-0.049077476751684945
-0.005204948736568428
-0.021096941923656538
-0.027118276520144365
-0.00819682159603629
-0.013022541347257733
-0.0024260694582458582
-0.01008294883141804
-0.0023832862242917988
-0.008836092188724524
-0.008845433891855775
0.015916895435345368
0.14382351507387256
0.07991541163888066
-0.008419116707593424
-0.013253545613159839
-0.040680093394564555
-0.03598546262510455
0.010188162970013305
0.0004310060558829193
-0.01664456778350109
-0.022304400986853365
0.00020872888682784302
0.00992225691662311
-0.03889734513951648
-0.013551693992174443
0.008514436592096617
0.012959590674922902
0.005028659999219967
-0.022515411238176474
-0.00033598035486353536
-0.024261065470671844
-0.01837405030611356
0.027470485458400733
0.035874801011879134
-0.012362975220192593
-0.03025975847903496
-0.023872725144132557
0.01753872048434572
-0.01600636155456605
0.0013088097283249166
-0.008305641944713168
0.0012292760508312885
0.029825426010541625
-0.014203028404783798
0.03538971439549446
0.029106034059814937
-0.03572544956626038
0.007331429653169005
0.02068382206366137
-0.006280710122093212
0.005274163277524247
0.030541966178937414
-0.03592786252098166
0.09101885456572481
-0.053548664898344304
-0.10646824831380075
0.030002216901899834
0.05978306123291257
0.029307900578136325
-0.1391474218164055
-0.022726735293739617
-0.007653384351606385
-0.007154028545041936
0.04466271462992918
0.03531995309036468
-0.017480934687854707
-0.0070637691380135495
-0.01825991545089901
0.007082612746998452
-0.0035585816223061514
-0.008996470788070724
-0.009794896595090386
0.032696063441226546
-0.04247269891306199
0.008388338521034452
0.04477720848511358
-0.006517038658854962
0.01888774945451976
0.022965759437503716
0.002897510660899442
-0.007869941618548175
0.005442882498132195
-0.06866592981046724
0.12121683924180121
0.040988826643709876
-0.04268721918535357
-0.010196119121909868
-0.007821819670074373
-0.014297734620233205
-0.026335975588705405
-0.03135238796678609
-0.02015215189062863
-0.008021160577271133
-0.029716289174986466
0.0632632191967824
0.01037832446345778
-0.04623122576301207
-0.07538477605097708
0.023486394055001043
-0.018234308641264227
-0.04689745191885518
-0.04481566874110065
-0.018407746290033136
-0.013015721917803971
-0.035268758088711515
0.029027801704762487
0.14633718141796243
0.03891311994539728
0.12446684669553536
0.006547406132888521
-0.036564098305325844
-0.011237678120641983
0.0528496684020219
0.11411312823112145
-0.04220798182425524
-0.0319500557067706
-0.016925873596772605
0.09890756235085657
0.06220778444807562
-0.005563815525872451
0.0014303131977088479
-0.04112925461679288
-0.0105854745649613
0.07789230881173298
-0.02889680776742056
-0.018392378937466293
0.0016631270502167127
-0.017754833471373417
-0.02660407738228592
-0.013254402791342376
-0.010201408702683504
-0.014449772427377362
-0.0063209311472776876
-0.02142719237825794
-0.01651207659699645
-0.02562615808251105
0.004025602580574604
0.0019216880947195653
0.011993016685193095
-0.02617056015580389
-0.002725647799466405
0.002785031892609469
-0.025111640396252237
-0.0047158301040774704
-0.008554961948874618
-0.04896293019936537
-0.06590551184389513
-0.03530705687982542
0.05146355338738742
0.03695853651563989
0.007520959366903738
-0.04598683875131942
0.005772360985161198
0.029162608557280843
0.0762322832625533
-0.024711197355413862
-0.011462999875429791
-0.038362181947107374
0.038241473457521546
0.037758736917591726
-0.004180976061773476
-0.07682496744154838
-0.04868819065067507
-0.019599389756925444
-0.008653289021777776
-0.02200352230889393
0.10930089852409341
0.019022721734315604
0.03397359939419977
0.016691486335096036
0.0056387605504432895
0.03221298366455143
0.0011596341494865138
-0.04336081697303708
-0.008629508044643311
0.002748150179314673
-0.028668532273646814
0.01398339275419103
0.027417317956463478
-0.008072701128966235
-0.0034347620863315665
-0.09422702331268634
-0.10340828633831087
0.08934575695318991
-0.01095153608704382
-0.010177347821004273
-0.02794493668301932
-0.023253254278588976
0.012878257439247935
-0.026910868451237403
0.01769235000601931
0.022857295718695648
-0.0248473699203308
0.011848156312863296
0.03256762214028681
0.0027165504292270847
-0.021105555987146456
-0.004267938093100261
-0.04271644424055831
0.0024288150594492797
-0.00023097019113138274
0.03561610966720613
0.028274772318090297
0.04338063039825738
0.05604994591066237
-0.03880178236871497
0.08686767913244513
0.050461523183731774
-0.03667438402814478
0.004643442493719756
-0.0027187864596218674
0.01979570165096573
-0.0011675786713574105
-0.019392083459808043
0.024900045695397468
-0.060573624184078516
-0.0014268299754281928
-0.001128554786324841
0.044921130573363485
0.06501003409675665
-0.059650460851525464
0.01091297434457528
0.12958668627008224
0.014481375983303372
-0.05791225361234772
0.052131362199635996
-0.015955407363972336
0.03465127379246033
-0.12248474602067659
-0.01639481702057245
0.04108555218857204
-0.0177685398125811
0.006153683366789512
0.02827526778083409
-0.013502193606710537
0.01876628071303201
-0.005588474093629708
-0.06736893885816317
0.0031297269358445123
-0.0068418458352488346
-0.006632348501960038
0.015003781958766466
-0.026248352169463973
-0.0028866038425837044
0.010595383840365031
-0.023042795145212194
-0.015369055569701345
-0.02338519559956058
0.0005502524497838977
-0.03371601733373537
-0.03720944563987024
-0.02536788048657801
0.044500795100323405
0.0268862789005275
-0.013349044568910437
0.08208743118423457
0.017215020599656256
0.018979750386566244
-0.01810981606929211
-0.11720098109499051
-0.03533878517285161
-0.046833598089469054
-0.12690050056166582
0.0376103231423114
0.027816162994644247
-0.044006300193287176
-0.03259429660293324
-0.0035291697651265324
0.09197443942015314
0.00923348294471255
-0.008482693105963621
-0.06113512327472212
-0.017311079732303572
0.09739688254375911
0.10535635005956251
0.04667461118147272
0.023760989007005184
-0.015470217105312519
0.054227520746432605
0.023616567551437716
0.008554823962880539
-0.011036326091466948
0.03463985509059013
0.05577336311438064
0.10961121135997468
0.1054354917158679
-0.030930201433564203
-0.09161500746003587
-0.02164831506680567
0.013917823571644857
-0.04451879861057655
0.06349476787019699
-0.012641230414737624
-0.14882733593116357
-0.042463201468195225
0.0228256072558553
-0.012570968231043415
0.0009485308667949788
-0.027071218322010013
0.029089251856447975
-0.0559571375747786
-0.11013616654479014
0.047538736093173786
0.02962851201026915
-0.011656554778009856
0.020818123614233325
0.025176042629952933
-0.01828863175558055
-0.039645587807298474
-0.020272353062384337
-0.010015047156587471
-0.0047799866339910575
-0.018228780287870987
0.01213915796304463
-0.009525250977536221
0.02678769421252028
-0.08188588872802083
-0.024354725426107598
-0.005549631153763917
-0.0017270034371800198
-0.0040543607514578915
-0.015030204116614721
-0.017658420468304983
0.029122087834429614
0.013880842069229238
0.008621489779611914
0.05600427075273686
-0.025286105704707768
-0.01720929705181576
0.03092454735491099
0.05699209476904988
-0.0017667934483725045
-0.008859134239399165
0.042828074048454394
0.014356091325367484
-0.0109479986854783
0.01503510901987366
-0.0024791928303848016
0.00458608233394059
0.0059040808690653665
-0.0002373849254692216
0.0011259876281923607
0.028155107435789126
0.04677117850930552
-0.0009635656643159865
-0.04808786064740551
-0.005407053400885841
0.026775093362109512
-0.06251148922543938
-0.03755728149714732
0.05035536509106262
-0.007657120584658186
0.008519325890238176
0.019747131005089298
-0.018800118989518257
0.02151278933515236
0.01074849097691509
-0.029894455058172793
-0.016099513875747328
-0.027968140003615225
0.075298391213806
0.14744788747650073
-0.026781910721390967
-0.01945942308996937
-0.03637754254336696
0.013414597344947151
-0.03436414690168263
-0.006233420723668688
0.05517270284833856
-0.0051446998298278306
-0.07859046077101893
-0.023746097693851123
-0.06578635639939405
-0.010695969304832523
0.05484352971595833
0.08538616730224691
0.02545043581407485
-0.051071687411435085
0.00856438335441951
0.03691664210469857
-0.018981969158840966
-0.016690942924175303
-0.043174145065312114
-0.017815175347753107
0.010505924769907396
0.01432299720378877
-0.01746713547028627
-0.017534027228924855
-0.03508016478541266
-0.02046153139544094
-0.08349957672724073
-0.016863138391532556
0.05927265379405296
0.01489731669067848
-0.02272652507172426
0.01985779410471683
0.01711666286390764
-0.006066572433080519
-0.04179660089164921
0.1217618526013335
0.06762244874949717
-0.011992752132356482
0.04425804300954253
-0.019961895113960765
0.004598596093376774
-0.02997869194106946
0.005864109626816169
0.0076987756992710574
-0.010602085533005023
-0.043086291685967774
0.02420232094296883
0.06416805448858284
-0.04041257338530951
0.015435488385728063
-0.061034987658215877
-0.04036413622387233
-0.015220764795467554
-0.014159252089626897
0.00559222888058853
0.012938978271196548
0.012612518796128161
-0.021274400914018027
-0.01749339243688808
-0.019324696381667266
-0.045079374122842665
0.005625590766319629
0.03507518122920183
0.011479857015359808
-0.0019778975615315528
0.01263729493090706
0.0023039107070680414
-0.008087235150420532
-0.03167474178494464
0.009591864955461642
-0.010905535036498428
-0.0005957021654204343
-0.031054701580879834
-0.04801717488485721
0.027425696059127924
0.01229870476244867
0.013062554144163458
0.04382922717756005
0.04044377818017924
0.029903869650209716
0.020170502394592085
0.12234677435859566
0.0645811417274669
-0.07018094944775073
-0.06166212205236633
6.649636881178998e-05
-0.0187923598084745
0.00031907448721265247
-0.03598119575542378
-0.00966320524815312
0.04361696311439036
-0.0470212801476145
0.04473104363227032
0.04126016618143633
-0.02780509005914636
-0.004807663080692004
0.008630525575367226
0.048381119133158526
-0.0009226387500400506
0.009883889785168683
-0.018453554689274135
-0.04184791012826795
-0.02907189183719283
0.0008002986839343018
-0.006646823961593121
-0.036531438054938144
-0.03469447325840164
-0.015461172062784679
-0.005577857108231469
0.12345436904771336
0.022697112011511773
-0.031355405034457856
-0.015499526877613587
-0.034682174814216316
-0.026329329503104387
-0.0030179614416862514
0.013912135102201227
-0.014583005563809774
0.0055315783456985545
-0.04178580802108101
0.0007212684100644951
-0.019538536512044822
0.006762605220407564
0.08341400403640274
0.05758321529617669
-0.02629383664736157
0.019330609839423078
0.006450052495991514
-0.011704216126597057
-0.030298452508858285
0.021313113451334978
-0.04377434727655819
0.03114532623837125
0.0348570860049219
0.011345860030731994
-0.01359127650303036
0.0042760828182105215
-0.14545447400841405
0.04674626170230292
0.06156703808731601
0.006490239462500955
0.04798338792966481
0.007667655730592627
0.02983220425376317
-0.01168034358822165
0.035815560372819105
0.005541170519004355
0.013197898897236583
0.01050489968738889
-0.01565838215874649
-0.043290228224021454
-0.02609571433479823
0.036061353205054866
0.02281488921831347
0.013956564283910235
0.06874447155925772
0.01647399986416447
-0.02856708291886425
-0.026291609534007023
-0.19724762781485242
-0.06893793126737989
0.01371265124965911
0.002649674264867944
-0.013438774403725907
0.052122611780062486
-0.065573963770919
-0.050605887618758984
0.022685187061260697
-0.0072439870262321895
0.017201323533736868
0.036651162053210014
0.03115349936936893
-0.007982840433930284
0.002185835423344847
0.02167570938988654
0.012571718097193253
-0.018540025475295527
0.03754488237175469
-0.06163669898445445
-0.13616448974608553
-0.03069865737245106
0.055867380809024994
0.018798812164679855
-0.010835067991067135
0.01568804248794671
-0.07948836937911728
-0.056050729331788826
0.05387444370201529
0.057935859224369016
0.06875534921207523
0.0377416305027489
0.013750744317579658
0.02605763715815526
0.039033684725073056
-0.0008631042798522746
0.017658080920001862
0.00805245550111934
-0.010721510939671127
-0.08765204006598305
-0.026585265222147176
0.0024272271173580565
0.00414931071425547
0.022630542369563085
0.04781736936001818
0.039453946959315325
-0.022180868290779386
-0.06011923729101393
0.02438428550009338
0.013179778196751854
0.006355963758079501
-0.002439957947748015
0.014750701237128613
0.0021644694005062927
-0.003378670986102533
-0.005895074915419239
0.010456850349716301
0.05242924786193767
0.03450532940276284
-0.07366893625830108
0.007512885838508849
0.0071490053628192165
-0.01364938560848616
0.018840345395448866
-0.027437064227133316
-0.06954403356193392
0.037539428737216815
0.04371884659367172
0.05016087722775361
0.006776907695928526
-0.04524051605267391
0.014365033549001871
0.04918294040457812
-0.009764218334128221
0.012415653791449802
0.004555242238335089
-0.006964965565482074
0.0062244184115420095
-0.01225086230121409
-0.07884807702211007
-0.005020532371009829
0.03525687789164928
0.0007060584151234393
-0.014422096654573526
0.023687406050217956
0.02505164099203612
0.011989437576980662
0.04182026452912804
-0.0023247651799020758
-0.15102186055201908
0.018741785314413714
-0.014569136322085646
0.001203648602133797
-0.0308538534733634
0.03020308650162225
0.03244725241159469
-0.04261648991365572
0.008253563868446615
0.028888505034912155
-0.0072553318720513195
0.0011983790889534543
-0.03700909815426328
0.033995383322705366
-0.021584034336479978
-0.09044073694603973
0.02504694243564996
0.037475630629780016
-0.008936294212918564
-0.012953185389843148
0.006544865520240491
0.025404991797717928
-0.0013265137743175
-0.011802010341881868
0.021075592464580965
0.0017199525928170507
0.020872099678773893
0.048368315651088435
-0.004291089069864922
0.037010809262163845
-0.05239148682949807
-0.05378951438269604
0.016479944401022118
-0.003373430551981038
-0.020536097793628173
-0.0009154928094342735
0.027753275404655053
-0.0012109709658303664
-0.006933182975708155
0.0049329403556263906
0.014992510854048673
-0.007774558657596198
-0.003453142124338532
0.0063413995449460615
-0.031617882705590954
0.007235565249456556
0.02102412899488224
0.016765599645753637
0.015520432473816279
-0.009990013014127015
0.03590444684452989
0.02948312531722744
0.013546209231866368
-0.020834186612234552
-0.011525465616817996
-0.006435988648726918
-0.010960130304658228
-0.014147294552676493
0.004455231515275772
-0.049234021696998274
0.008640697611310902
-0.05185843463748884
-0.0576613419893006
0.05470909424795233
0.03795336213704798
-0.0024205329810557037
-0.008753263027782092
0.009255916682380632
0.03618272769613477
0.05448902325328739
-0.004388880431409105
0.0007907962882368044
-0.015194083584219805
-0.19109745287699195
-0.01972008365312915
0.09307748825673344
-0.0894940965246633
-0.06670739846204132
-0.007838951958034593
-0.06699047424199918
0.026210176996656547
0.028020452009222208
