0
-0.012424691447098657
0.0006542548543522012
0.06912158476262277
-0.008636476247404892
-0.021990368793901385
0.055904666523776333
0.06581832168132769
-0.00245988047238897
0.021850400636658805
-0.012759643854137578
-0.01162439803432621
0.0061863165750895245
-0.01995558982203714
-0.014232310981483002
0.017353486748159192
0.0029911445862219536
-0.001216067266026362
-0.030761097480458424
0.0202975223936501
0.04981718200499689
-0.07811974831956763
-0.15659511088217373
0.015389321280141142
-0.009178572709825824
0.040470021674199066
0.026564619467359475
-0.05993789284424253
-0.034864508469454415
0.02447526389923391
-0.013875777931391931
-0.0008965178993457322
-0.01355306276089562
0.042157633141830846
-0.021078744056171453
-0.015418092679267699
0.014352251918749592
0.03951166851594414
0.1259579925620725
0.03328484376087074
-0.027759417581899454
0.011305280742710783
0.006515437034527828
-0.021044008773186528
-0.06005295091447486
-0.00618022169329578
0.008580776518692835
-0.005158356730104824
-0.028197520685345225
-0.011370651331988967
0.007063613672459915
-0.01957368813831187
-0.004366495639090368
0.034703782838402183
-0.008499818824425564
-0.02043787003888125
-0.03103397888984584
0.008151914897991186
0.019089751340021836
-0.022038142030865078
-0.013436915616819443
0.020974765393815965
-0.004514360475736118
-0.030563340783500887
0.027318146892644883
0.03683504682878762
0.026548817211212883
0.03585366684585531
-0.008123138323817865
-0.041089132786162955
-0.006983555301083933
0.02902451024347892
-0.00038352823541645326
-0.017945220736293805
-0.0016262190026857394
-0.01487557914584376
0.022365746289069562
-0.027086611916209563
-0.05138561114770964
0.00024126782858284885
0.00460392882485751
0.03895434465943536
-0.007997012143903097
0.0034389069677562153
0.04490525756895514
0.023744760600691864
-0.027108866584332272
0.0003359717233227414
0.03022568265035712
0.03547367233953977
-0.048916550471721235
-0.03708965599856583
0.03345467076267863
0.1435693717183464
0.03152263368795999
-0.01617957665783475
0.023687671207413493
-0.005161353422182012
0.014326092256539113
-0.014433601113207913
-0.011664061549145094
0.0027608575008788616
-0.0032644716703806803
-0.028930312827692563
0.005627148546770769
0.01985820780611631
0.0007504710671093341
-0.008189237866472935
0.031925848827080064
-0.1399577017713775
-0.12692352867703224
0.029676378681557553
-0.0031898178562341476
-0.02698335653189932
0.005282023657075631
0.002132858043304344
-0.049425337493125596
0.03451501224192421
0.020341134015352598
-0.003442730467955507
-0.16380715523002126
0.019272950018121775
0.032292712656867645
0.03134034334597655
0.0121787970217705
-0.04008498786728037
0.025838123820625926
0.08306129971285534
0.0009354862071470852
0.001370045457027151
-0.04116443363155993
0.06359936378232053
-0.10580163944136678
-0.044105098712925
0.034332833798571986
-0.02282701143504032
0.034347924516709975
-0.02916841175420925
0.02908226401378789
0.0030743017792676337
-0.023093740472498587
0.03840443631891537
0.041751047860151845
0.0048711358804341956
-0.00026981835260578193
0.042700080710395445
0.012968781445827577
-0.0019928962442115694
0.02041006897338393
-0.0020338645160877743
-0.01850847420646045
-0.0036803283213148073
0.006784318705511286
0.012475547994493739
0.058771106203129565
0.02479384824787009
0.021115394677590254
-0.18178887381271971
-0.10304895093542782
0.01238537987079918
-0.015376019872731147
-0.002847835680312109
0.013753580128139114
0.021730609909385332
-0.03024768478059451
-0.005480907083506231
-0.015316316857791203
-0.021808044261006007
0.03594385461722452
-0.00899402821289888
0.1827457977024881
0.24401345417507933
0.002800027446452905
-0.014734133461516545
-0.01890886359265458
0.042543748405400726
0.009445715900798478
0.020284086364713284
0.017292034965423655
-0.02013207961634121
-0.0062635256840480645
0.03732224740959529
0.02448564733272864
-0.018606350507576662
-0.04563673606854333
-0.0742138489793513
-0.036082598175630635
-0.025343916302777037
-0.018949392097748454
-0.003441235176412024
-0.03855270121216057
0.006682380476438502
-0.07376627464579984
-0.11338815552690998
0.027069663668149953
0.025068619154180072
0.011599755446319911
-0.013840556851989242
-0.02475126010826786
0.0020930863191318564
-0.006072610432519366
-0.0022840980706172963
0.02271541852544736
-0.03841651862665405
-0.03479612741290008
0.00824249069431579
-0.0006828334107994141
-0.013727121678753642
-0.0002455951167542286
0.01723223816865856
0.03218982458160749
-0.003855672891180811
-0.06079810935173732
0.0026051592948317884
-0.006519829112632093
-0.01187238834156506
-0.023758441652296014
-0.022497392096182428
-0.03156881135469968
0.1658173232591843
0.10394701958753835
-0.03218577510557362
0.00042929186866777865
0.03118187277892253
0.04714215985178039
0.03418511844986865
0.003501113389219008
-0.005438698275737385
0.012989494662065127
0.035897414047306134
0.03768551815594417
-0.03036055087428954
-0.037963920907223635
-0.030239744149011115
-0.018726844380629177
-0.020212363269558588
0.0062980424275646115
0.022259150559117535
0.1258610752199393
0.01982698919824255
-0.04195749389196894
0.009305657846675041
-0.01134052389761013
-0.003416911875099259
-0.05744138430906557
-0.07339763709360728
-0.05174867932441609
-0.02480629837409905
0.00565583734509408
-0.017515972068316173
-0.02044687883560031
0.011459699722196123
0.02809366069713833
0.0029881229298527696
0.017759485138786862
-0.06034295355834678
0.14263634744179687
0.04963643811753977
-0.011773341706002104
-0.028176388638041793
-0.0015102777663630231
-0.013785143374098781
-0.03572600986651193
0.0502964962819162
-0.00226202287927631
-0.01514016808472304
0.019292007543453515
-0.015511601200858783
0.014337271018813779
-0.0702360120708238
-0.019084822808672724
0.011069872993700443
0.0072121895222255665
-0.001680114055450038
-0.0515458148890676
0.0157727155347139
0.02448897392201839
-0.00510900946393909
-0.0026666817101196824
0.00944019967257779
-0.003217609966982589
-0.008226379049312641
-0.03535615427221822
-0.025329320878418264
-0.01931821378391728
0.07443500797577637
-0.01208220993465514
-0.07589278155071454
-0.026398022026381137
0.02542506272212175
-0.03235064669526861
0.0022564778527377452
0.023438088318048986
-0.020319838868129075
0.015431795201630254
0.015612392053406877
0.04055251021547324
-0.011090142787699306
0.016519388332720146
-0.01526658949487993
-0.015760990204029497
0.027352841510561797
0.09149338347729663
-0.050380400856302854
-0.01843344763985385
0.0020919819178035004
0.003501447726507222
0.007292187240616724
0.03720021906315189
-0.016198009450291873
0.00650928042117176
-0.04404798808730567
-0.004759505660417064
0.012563763127395999
0.005433951844802425
-0.005457525424933735
0.0428939475202694
-0.06726048798584515
0.01946748205146359
0.12411122705546489
-0.0064162918794518995
-0.007254204497784665
-0.013568180246941333
0.002721075803112097
-0.024359688674932694
-0.017206123125948342
-0.003192917843694572
-0.03988189385235709
0.001991754396953922
0.014928410687465728
-0.028427627466607843
-0.035263466224271636
-0.006037981082665487
-0.008670195587399933
-0.027811892419491696
0.012380363624507734
0.013446675065896573
-0.011847523399774221
0.036978076072481214
0.1497871194279271
0.037005117032637244
0.0035095539982657885
-0.0035395638178835802
-0.011148811416329103
0.04552610542366823
-0.01088821222747075
-0.028479442578426627
-0.023214500214087313
0.006097706441651139
-0.027712962593027655
-0.04734431254533636
0.04191663257333723
0.005555646951895682
-0.014731159382275406
0.008969098181029967
0.028829583611330582
-0.017080052163063752
0.0020132315672960525
-0.02756481139765588
-0.026409913141132602
0.05614888926325147
0.005865782775012716
-0.006725933868044433
-0.0027877540294101023
0.01203359696850053
0.00838413833713285
-0.03465464922055023
-0.04748239613708092
0.01314417019330947
-0.05275910507082548
0.014207469618983162
0.018291133401085742
0.0306590720115706
-0.019968426637832177
-0.0548408743550276
0.0029813531996654825
0.05724632787447087
-0.059195501984565295
-0.04048143049336819
-0.045462289718681666
-0.03952705819786216
0.005474479962168936
0.03513875053956453
-0.007009754725633759
0.11830685975303344
-0.014026657954782615
-0.03615065337230695
0.007174758263009079
-0.06225904835544256
0.018143208080689484
-0.017393032523854917
0.0174036078663132
0.15891533766179866
-0.027758406816431214
-0.03949766773139314
0.006793669604144259
0.020250151686802546
0.024147945145534398
-0.007157215187732806
0.01161358992274172
-0.006634676589655041
-0.018666368919626246
0.04016372602658566
0.06244565728249041
-0.05045464890812477
0.03207514337163931
-0.0705324168260508
-0.049071808253447584
-0.00029322209411768944
-0.006979924858834136
-0.008082785708279172
-0.023625121051425352
-0.013461011937079081
-0.00045069643890789576
-0.03730896819599608
-0.0082775138961111
0.011105341943102398
-0.02874805626761295
0.023940779913242637
0.0038656747782852227
0.017062996693264342
-0.01599675035490697
0.020338430961075616
0.08322273230091104
0.017731600357557546
0.0027974648542452994
-0.04657401585067996
-0.03301729213401577
0.003383727109567332
0.03486629587345919
0.016886231415243133
0.01222084743268515
-0.0014245421985171606
-0.03638146862159822
0.011072547625838461
0.011964255067207318
0.020139657744544317
0.04416623165722262
-0.022202926679853074
-0.02156627976921782
0.030114423157846033
0.05225322289625514
-0.0026474742983780015
-0.051570292786886844
-0.08216544099572258
0.0049544526748935966
-0.02509358175676477
-0.003281373807231417
0.04570568637941043
-0.00012691940306980447
0.00784949492106036
-0.07346893712871096
-0.04030323160515232
-0.05473364319781298
0.06366441477039453
0.09684772446760931
-0.05754846756052676
-0.03939989871864128
0.10133407924332294
0.062285111348437554
-0.008457369866320289
0.018698343160960938
0.00519922712326965
-0.006377413761020507
-0.005246419547392776
0.08452549441968085
0.05050137402722217
-0.011433086799471762
-0.06619002055931374
0.010038174170327156
-0.025244554020166197
-0.026080344406832514
0.03149530423642872
-0.0432567209598938
-0.010121231467882666
0.02259076392373256
0.04251651655562749
0.0009189658365287404
0.010835373803215557
-0.03591540144927972
0.01461565691075155
-0.09923172314341042
-0.13453281507250645
0.02692510726721149
-0.02788330671899523
0.00034096787360131966
0.03454881281184162
-0.026203189246594823
0.013457270987786723
0.09744635559032569
0.013743815564884743
0.0701054831220199
-0.013392321869006159
-0.006402164849125573
-0.02581501520042171
-0.018485680452877663
0.004317600013455845
-0.007533497279431284
0.030306759400549
-0.023298823995595214
-0.05002493258743911
0.02967480470876373
-0.008361505066493056
0.006458999257500684
0.009817422352363657
-0.0032353596273311824
-0.013509635093800241
-0.06669001319480075
-0.07051652616121337
9.985560137137416e-06
-0.019779317399193422
-0.024906196669738936
-0.01187953780972759
-0.026746149825142444
0.03987731192446584
0.055698545304631315
-0.023998113484365615
0.01441381264577473
-0.0007813947963230352
0.0011639278793835277
0.06321601939578193
0.018509880146510862
0.05960566849868027
0.03811635929332915
-0.052068360310946575
-0.016176755873125104
0.01337300739488991
0.0161362603057177
-0.01585124605486694
0.05289155097223402
0.11299699319086867
0.1312126115091098
-0.025940021305647324
-0.16103977407539768
-0.039323945547829205
0.012844442425909392
-0.027696814329216935
0.019126677968103946
-0.016434923102993784
-0.010446123434350857
0.0005299488418598564
-0.00033201477248791857
0.025495243073333656
0.07839484298006245
-0.01994591067676245
-0.0344508108584633
0.011768321526588502
-0.015312395125440385
-0.013377947184040688
0.030640282880233693
-0.035328799520773134
-0.04185033439620681
0.007930154680678843
0.004444635804220867
-0.027793006249076657
-0.029876165133417863
-0.02080652906812371
0.019525050409300818
0.0012952147471999437
0.047659374824376786
-0.006516156405146627
-0.006384868015819687
0.018766324331265436
0.033612996518665714
0.00414511267448549
0.005271097647895763
-0.08524471494889375
-0.02125151775325994
-0.0027486077670326164
0.008335316267702945
-0.0011868665482582094
-0.018797408183901694
-0.01452353063152534
-0.004217616004172548
0.03714945907598516
-0.019272675037957793
-0.06113267656024707
0.018073257623800746
0.022887470433221355
0.006934081247228015
-0.007997983449563997
0.06406936288490242
0.02815148980998391
0.0014370284269325094
-0.02209009514011002
0.0014593685202723037
-0.010182483199640583
0.028651572927687642
0.025499973141806055
-0.02345343478330779
-0.03795872080959756
-0.0019657760929111742
0.032884158009096935
-0.02998277152614412
-0.014283411829479911
0.02196789547557839
-0.024096849056171328
-0.02071052900874134
0.06285274538895862
0.08288542967604501
-0.023871421918109894
0.024318339270077427
-0.03733657982878603
-0.009196890493816863
0.028878385578329877
0.021104492430646854
0.008839297928727424
-0.004951754335076487
-0.0020654170179721437
-0.0044673624212192035
-0.000944930460489283
-0.19607467746248272
-0.03863284786203839
0.0723572303554883
0.0015650892764168735
-0.006216545537566067
-0.04859793087294776
0.008277803330081988
0.05243289172522102
0.04257804079876646
0.005122263101344834
-0.01905698361741573
0.013964726685239404
-0.01637193223453275
0.0035313976130644047
0.0218967331809414
-0.014012134415549844
0.011126336516513177
-0.00641514396836824
0.0029362081048179283
-0.007386960950495857
-0.018586083272654975
-0.01245463921291974
0.013176152955048403
-0.030701471778357442
0.048486539349146957
0.03615689479570427
-0.024989405733485136
0.016057125068186056
0.04701271414175434
-0.024573984143460542
-0.005350740366924222
-0.008324797505196522
0.07517960137127871
0.06820181032034543
-0.00024217558090267852
-0.013787948972481978
0.007159090765523387
0.02628231256187942
-0.12628363874933082
-0.012606523666658364
-0.01686252848280501
0.06607162323547894
0.077192815257289
-0.061697021726788835
-0.009806668881962525
0.043421723042578124
-0.03996128352692202
-0.013505827808691483
0.007273509704888882
-0.05707734396721757
-0.024493527021225883
-0.046016110563984726
-0.01929935325941264
-0.046480851151987225
0.024170771570470928
-0.04507916370736684
-0.009472382714939746
0.03823142430498514
0.028973898597600693
0.015760559815178318
0.007795102379084582
0.005419569311775795
-0.04264613597740944
0.023076843150867575
-0.012372292604621644
-0.0210157546581109
0.003976600471564962
-0.03159774389441805
0.0007271680303897651
0.007299411342403002
0.012018301985752228
0.008417700402569565
0.028360711482868197
0.06909808385225108
0.00122020762142761
0.058486111726294865
-0.021585161767216705
-0.03884358150345514
-0.015410680621434537
0.0447807213996361
-0.0047288220704693055
0.034953429593961444
-0.002076147496675702
-0.03503705282543563
-0.03316484758391139
-0.03792077521650412
0.01716204039040825
0.05972570355450136
0.010489285404760487
-0.02151410571657528
0.02088105021358169
-0.010094889964411336
-0.035625492507735765
0.011718533564226523
0.013501200713497715
-0.0030927917765708915
0.0033055634776278198
0.052664458997107325
0.039856246554512975
-0.005172851891681533
-0.006244824459537864
-0.06037969290074658
-0.053964028315906305
0.02704270134273092
0.04325802543207329
0.002093547419918144
0.014370198761717523
0.015321501247329778
-0.0217197462672272
-0.04169845855071605
-0.06919287769443867
0.01658064951882154
-0.02393278980810168
0.030338500767640088
0.05184244010531946
-0.016355088212094214
-0.02101274801905323
0.0020486236131417243
-0.029827277264165092
-0.012223888484775458
0.026065201397400487
0.033289661050209716
0.005252699110535574
-0.0025709568258482046
-7.802060721135378e-05
-0.025222108879511703
-0.02894686667965985
-0.031186462084596793
-0.0007905842249508994
-0.03337044908888275
0.025654764599605178
0.058244776893097074
0.012840370240454957
-0.016825915383237917
-0.01679316936434394
0.034413166546809815
-0.010914004019484566
-0.027491994594072543
0.04170179712036988
0.06925189808245549
0.026793235455130644
0.023649882706108454
-0.08070724469241532
-0.013891373753965956
-0.013699003716054299
-0.03233745436541392
-0.012524673337123766
0.009759036116378197
0.010701117871542298
-0.031225178072793562
0.009125074062828474
0.010299633556189215
-0.009065106260582578
0.0064580523534716995
0.034798806187574985
-0.02979746233132282
0.0017949860343043449
0.010087377980568695
-0.05587219356321554
0.024059950685708847
0.008313086524829176
-0.02783511542480124
-0.003361948814483857
0.0216524245998863
-0.028982494306927353
0.05301678608529325
0.013243365441856439
-0.003979161072747362
0.014513252841872751
-0.0235045221376791
-0.008434865431833609
0.005534584113089839
0.04758200773043616
0.002770430190482216
-0.03545272671460818
0.006983634374020303
0.034194257157931944
0.0060259022476164695
-0.015237090983485206
0.026534099689737658
-0.02345841575793991
-0.001573799463641434
0.012724968338900194
-0.0066268134735865
-0.0254320394763402
0.02489221485884201
0.01613540923696005
0.004679782054889327
-0.005290630327916489
0.008137110213549185
0.009456150961669388
0.03282013799414657
-0.02588367901145436
0.016076329812695002
0.014408420552678375
0.030075256734046176
0.0010555427150353489
-0.021241451870747375
-0.05191818336718586
0.014798114663574507
-0.010664694202033425
0.11106846004278513
0.09276804946488548
-0.03751232256558683
-0.02998580464340946
-0.02702513988498719
0.001167528717872491
-0.0012190252179036434
-0.0035632018528940373
0.037454135999811816
-0.044513732824746195
-0.017318861254278405
-0.12066242764228927
-0.19315854735023558
0.02520065301113239
-0.003259222829774345
0.021255854319869885
-0.0008241023570913585
0.016207154018303454
-0.02080251690387233
-0.1053984353383498
0.004011979421221978
-0.009805551396556388
0.035202508703042944
0.0031375884798721543
-0.00033697421908701847
-0.014905233743175678
0.010744329632615396
0.031480731864621
0.03244849928695106
0.10922562629477174
-0.005591162828845975
0.025442535568804693
-0.015407499548317716
-0.01670854967520128
0.028819344730302312
0.027179382854139157
0.03774655548405485
-0.03253792034160909
-0.07331010538126459
0.006586639392775794
0.056648191802450155
0.026515398999853293
-0.0820368574285553
-0.052791400110429154
0.017892832639650184
0.04119191092391356
0.09386321196078014
-0.027688892329529435
0.01978232649659264
-0.046341757262131245
-0.030566614997274682
-0.012597030377158806
-0.047465537572046995
-0.052929471072085454
0.041748161955870285
-0.012747588033366978
-0.0018318641212489734
0.1407894024959453
0.061505982801425295
-0.003913198064813031
-0.03615318543864556
-2.4223296357097773e-06
-0.015647271294153123
-0.0036417760043164727
-0.018689649196871265
0.07496999792245373
0.07267872169239663
0.009653588232218789
-0.015761718832806883
0.009651464979347064
0.0015982838393245645
0.07114796657043497
-0.0022985895318976884
-0.03772456239273544
-0.006308495615981938
-0.05882001757403257
-0.17348275105676617
-0.005668004616685756
-0.05210752512759161
-0.02969783183129462
-0.0016587815342185492
0.016429015203930145
-0.024583126078888153
0.01552287930872156
0.022518492277705377
-0.004413825181390507
0.04179890250618084
0.06369026867459032
-0.012354133176690823
0.019883554886006946
-0.01532625624307164
0.12167702748945901
0.060117141295404214
-0.03838758505964523
0.03785534088015462
-0.004334737074824332
-0.009370115526785032
-0.029203083828335915
-0.03031601703744473
0.0019361899322462154
-0.0015143796962750168
-0.005860681445079428
-0.07999714903916301
-0.03488304669553754
0.12185917947243419
-0.0689401274222478
0.022276879544898414
-0.020489633808892124
0.011444805031052992
-0.04447019896446546
-0.018916428607408838
-0.03815568363574755
0.015293583057110661
-0.05223148598023137
-0.027784555804652562
0.03799992456945678
0.040708694115847745
0.02655241250806409
-0.026261923680507
-0.011631785359328196
0.036047734164467556
0.03306414944020578
0.03408338941247526
0.016615538579748478
-0.0013337527704532146
0.026754242111415784
0.0005814727892240031
0.008227419020073571
0.008667189598321667
0.002269840877700105
-0.032067828917435176
0.000218991994030872
-0.06311072805954578
-0.03555770026791537
-0.03649601242563238
0.007413770666870218
0.0228497447245035
0.030593964729107786
-0.021325113650628134
-0.015276633359313127
-0.010900561429971376
-0.004221330704501766
0.017459477678771953
-0.018719371025773365
-0.004951958262391158
0.024452245828508523
0.00916798928928736
-0.02485252287313792
0.030806339004337473
-0.0042677227995257545
-0.017388088108612587
-0.015953599987625605
-0.024055739349022366
0.047475548064618775
-0.031266883761029866
0.023738717361426125
0.07387653657546267
0.018419944434842354
0.0008576727755056568
0.0118086080464043
0.0038170634053320213
-0.014431477625981588
-0.011595490503738185
0.008424833719740985
-0.028720367070567285
-0.013184806218644436
0.0142618228485087
-0.009975380650608604
0.020315882278564845
0.013590669001552326
0.016852748710473993
0.009157296035639757
0.0304839087306376
0.06791834884845743
0.06804834089748493
0.005634673758460246
0.0002295335628970908
-0.015273102000359196
-0.08281694433956761
-0.002605920586500885
-0.014866435892777426
-0.012204675231502544
-0.006701377481341576
0.0022066350755027553
-0.01802953689152126
-0.018182626628706882
-0.03337854368996261
-0.07825583733435261
-0.07212734015540517
-0.17499670271147513
-0.05657785265671524
0.02840579775680531
0.013147633098591533
-0.0015319597995160407
-0.00825987286962287
0.0006612920301639261
0.031182964678844127
-0.007238023461409809
-0.009874779371402527
-0.01934601213375139
0.020757584194663566
-0.03757524599171156
0.03970656749261781
0.17396216890483532
0.05588337682526943
0.04855085146463386
-0.025089766551790342
0.0027672721159010946
-0.04522287207813973
-0.01297873900424859
-0.03551999056544415
0.029186527380004587
0.10908721404191209
0.07419295103209482
0.0007364409730599296
-0.05689003833112532
-0.0151711162641531
0.03539867519533698
0.09045508202527881
0.027062295497300503
0.04995656647929316
0.019303144265518473
-0.020120099531533105
-0.029615746868910157
0.0003787253161813274
-0.020781576216048998
-0.013671285872936067
0.023699979853497564
0.012491704131806341
-0.030274034403396106
0.012057903592113079
-0.09147509801437631
-0.042193684041645266
-0.002593804120922543
0.043620763577636744
0.021556328011219848
-0.011491616528268868
0.007797600718822205
-0.023385864013868708
-0.01617333541336424
-0.04266077757300926
-0.031934435449280735
0.009097549817720638
0.012742377335886677
0.008693737064854217
0.017254113755841235
0.047141101382846856
-0.0065824751526933735
0.007040425690447285
0.003503199608246493
0.0019311883045915565
-0.05753447009243716
-0.022640869713421868
-0.028447623127476736
0.05777793274097147
0.03263384195951285
0.0454037502445298
0.003453682823195797
0.0039021923080596434
-0.027067260883268468
-0.037105789676835484
-0.004272325677032175
-0.013001242896710547
0.0021391761160333895
-0.02480640434416716
-0.010592124031134506
-0.018247529584640914
-0.05006881010644787
-0.02529314435029543
-0.01351446218530056
0.026324019516682798
-0.024851102081140296
0.0013719696412292036
-0.028488641635729128
0.0463086580060449
0.04094194247866252
-0.0062300197517709925
0.03463229598616006
0.04906262156581499
-0.007719758673603962
-0.0309942345546282
-0.009698215389535213
0.019224363844656242
0.05671225320651334
-0.0018579730467660632
-0.014706678493493146
0.02550834385442636
0.037946513093462635
0.012308789485241157
0.0037739619017476142
0.02770188132298033
-0.04805509303546752
-0.09862587970551744
0.04695034377424562
-0.047500480326512176
-0.06996530672371705
0.004311222309932305
-0.0028849581312704064
-0.008025298691340405
-0.0031486031875314485
0.019852345542853075
0.009895435461941006
-0.00567203678309349
0.004761138830580088
0.0022005874761510287
0.013613140801041097
-0.02876979626086547
0.043288674981256735
0.06958757456155204
-0.005628320879868105
0.024709909941712432
-0.0077710494949264014
-0.00879677584500853
0.02002009474122145
0.023062124990543116
-0.15220374485565874
-0.051507795424696086
0.0420276967167089
-0.007342508078748233
-0.031742513741263786
-0.023570124812520132
0.0019856245455621294
0.005194938995091441
-0.013142809515035252
0.03506077273653309
0.043752874887033215
-0.00541076055212511
0.013460065599156622
0.024309602309499988
0.010313216421611851
0.0021112840785912235
-0.001236156491258282
-0.0310232402360764
0.011313475870751452
0.04423470411502312
0.06939283336315699
0.01390398513181637
-0.017222050890847627
-0.008902569538162918
-0.03181123370737481
0.004350073525509316
0.0097861852506971
-0.02686070831425162
-0.014961545896318432
-0.010404607632354245
-0.019025203585785987
-0.009260215359073825
-0.011442050883315402
0.03812806862989942
-0.03511215573222491
0.023414026408826137
0.03729004303201659
-0.021520488019277157
-0.011059864546903784
-0.07656023336349342
0.027452477674949557
0.011930879744265132
0.055420533131731564
-0.0027042332444089977
-0.04973479542043895
-0.03152050072297998
0.03508249549740694
0.004901333483445007
0.002417220093337654
0.12304051645290137
-0.007107117019278678
-0.02849706543727164
-0.021063101422551408
0.021717336578858354
0.02373743519552623
-0.007388470158796571
0.05665486955995094
-0.0015496305605832781
-0.021142025516130928
-0.017632314883658417
0.0422851202787452
0.07157857883458962
-0.11352231334946322
-0.1103262702599879
0.08382360909246889
-0.014295380510962645
0.0076821185138498515
-0.08122144142710458
0.02039030169772029
-0.00257455941296174
0.0024744950423702256
0.025514507333668456
0.0547745837525662
-0.008345165862324883
-0.03600198079370849
-0.07644275311064958
-0.02269650727377941
0.010765261917642896
0.0476789780374803
0.014726284130154456
0.03951224057640535
0.05696505589639925
0.018335463821595874
-0.10795946831231257
-0.03154897577212989
-0.01170515103996171
0.008436677064136153
-0.018735108138050734
0.016578064612278592
-0.015758546818678398
-0.014300952838230033
0.017233760775442107
0.007046643955807815
-0.0005584147197988357
-0.018456805843220753
0.011095650154033413
0.04265597361706916
-0.01893301112552669
-0.05067040047088081
-0.038370605783249995
0.006795523524306587
0.02449438329873298
0.019067773210215824
-0.04358480975589503
0.0038119144168996897
0.009690000265705347
-0.02832026692654265
-0.00706421788331988
0.02760862409548603
0.029639025577899335
0.0038385621358467074
-0.012745365649003013
0.03916486475873713
0.03554178168392341
0.0039964104664258334
0.016750323061383198
0.030541346045496926
0.02957750042052258
0.012652045787408445
0.007723125843918359
0.005325314888754697
0.03176560847482403
-0.04082116857851549
-0.028454080616634223
0.0009542204086852516
-0.022410232105891673
0.00025528224924626454
-0.004745942561603191
-0.005785599041668558
0.008436070634775462
0.0033637981966972786
-0.008277874862828391
-0.005026785994341757
-0.0024187510168773934
-0.02789531162383505
0.008573333302878018
0.04628647644116908
0.00446097157897907
-0.0306790690361024
-0.04443039826431107
0.01630686877041079
0.0341201533422676
-0.02782200264256175
-0.03560894912831825
0.06873584748070441
-0.028457370207549033
-0.038367171586990254
-0.021417521263526477
0.03890116191266693
-0.02850474829737855
-0.10227267755981855
-0.02026050843036846
-0.012773484976308416
-0.06555269955593682
-0.015791490699676176
-0.0033693130149260553
0.04331890550022642
0.033437347656356003
0.1252719847867535
0.019085301438370887
-0.01721352621227166
0.02054218745800116
0.09540800339409236
0.025269652080651354
-0.04653167997561159
0.030761397839390088
-0.022891584665406056
-0.012831394093436274
0.007408609154359411
-0.052853254652565886
-0.015623515123706395
0.030021858935083086
-0.06650603239077475
0.024423483138412104
-0.00811840456865555
0.005902053979376465
0.05702009297931192
-0.006185264126445217
-0.02241528200468404
-0.006627158417999157
0.004949973454279238
-0.013445149254944415
0.0094507288165834
0.04298737498240626
0.01385054244706252
-0.025928268599924854
0.056583051867255756
0.0572193616605576
-0.01077953434877591
0.00670802790779577
0.05771325925999589
-0.04030035359063256
-0.06248035670375682
-0.007760430080004261
-0.008186581774622056
0.0306195826403486
-0.055705861328897134
-0.06397794861386588
0.01156786975430862
-0.05909782795576707
-0.03332051665270666
-0.022442326088033576
0.017392755294574343
0.025137835598036264
-0.015305265921264079
-0.07150322986514944
0.057406095093201465
0.10861986809005204
0.03517107251157752
0.019157458928320267
0.009152440680351608
0.016260407126427727
-0.022650866387628144
-0.02640243490823843
0.014523818877113766
0.06890658365902075
0.04104198412299666
-0.10986636809057297
-0.12174019180567276
0.02493540177520942
-0.010808327669414948
0.12188019178212751
0.03315440982928857
-0.07174339744191928
-0.027062852838271385
-0.00504747474396775
0.03594205098872386
0.14535936529852914
0.024499283324547275
-0.03189012865774684
0.005223517284790207
0.05179266874509309
-0.015726833839703944
-0.05572928894615268
0.03182207258885059
-0.02606563696385248
-0.16900384053761675
0.004608314822921986
-0.026271224956730548
0.022329254740844663
-0.03098581268416534
-0.03178797139726186
-0.002040901369224594
-0.027759089924260728
-0.010602809811574633
-0.010576653235364029
-0.01840635856696301
0.028443567062340448
-0.029328221834406632
-0.0014241176913259571
0.06737649612281865
-0.02935487492464094
0.008218830802698683
-0.0019104262204276648
-0.01552672841440175
-0.011903426413347485
0.12531064731316952
0.03141125658970121
-0.02257414019813976
0.00016866870949880673
0.0077809088086972285
-0.05064350404733015
0.007203281811584578
0.0204307164325066
-0.038059671010099
-0.025915587011873725
-0.029525171977698206
0.020928605535686255
0.008910183594720672
0.055521566709324545
-0.0527415660253976
0.06955924425977032
0.08865672659645663
-0.0165780603486673
-0.005229780537262751
0.040848491139962764
-0.0014256009794688708
0.02041959760522804
-0.14807881032373585
-0.07776512152965458
0.10806071578981927
-0.03250353344967782
0.008856180185826075
0.0008704618998385152
0.026862233775009476
-0.04540955431421485
-0.04183155621561556
-0.030495601329682768
0.03144775773897163
-0.00019876332642572618
0.02681971690415936
0.00501424464614413
0.031547962326657325
0.14145573836255723
0.037955865094421934
-0.048925981638071346
-0.06464730979798249
0.028661138529517332
-0.001432508175403459
0.018361615133116713
-0.06541519018147161
-0.07482234881026358
-0.003928686610700803
-0.0014000767697353801
0.0062137960599302836
-0.004173113024952326
-0.013057235822363008
0.017482442997473407
0.0028829671369474583
0.006923186626807117
0.05284795762250554
0.02404993562345095
-0.0037113646015433676
-0.01443139619112705
0.004912021269760946
0.023727390712778677
0.09343237762402327
-0.017483477202958324
-4.885299135714827e-05
-0.025717839626464435
0.07785988424139442
-0.05911140846233096
-0.04843014901346103
-0.030907761137803337
0.03914868271662507
-0.14219593173678113
-0.13725255385754304
0.14867477137038057
0.06283004101228172
-0.14551587277997538
-0.0770566906298022
0.012576085242268442
-0.0020296866239848175
0.03365169425208799
0.03280432630247229
0.034671622505388355
0.02807706354336511
0.0016102053466600522
0.0529531840768071
0.10440135278417609
0.028192287128421176
0.06479559196912398
0.014595569907721333
-0.010413898275915948
-0.03455608861618697
0.0186914149045606
-0.04894224764326365
0.033129152029763326
-0.008576083066033042
-0.01991417312827272
0.03852484195701176
-0.05580636605842218
-0.16002864518694598
0.007168058066810493
-0.06766789937735106
-0.012688161262593343
0.010767860372171416
0.041879435889867936
0.05117327373336603
0.04340507693953925
-0.005220839478277608
-0.00524951982546768
-0.06531775671943062
0.024693930707255618
0.034006051255926734
-0.0017787519842195234
-0.05857798778779561
0.006178826537403265
0.06202472236732785
-0.037664505998649046
-0.011866896325460114
0.0022523705548861883
-0.013129152730212465
0.012707367702455985
