0
-0.005658974117505692
-0.04531674241361284
-0.04143925996304391
0.012026444511758756
-0.0178122365824867
-0.013882573630800041
-0.012715663007812166
-0.031031955230329013
-0.06393230611209047
0.0841214068579669
0.03615520433081419
0.06693856542629252
-0.006950131549777986
0.02696383345861559
0.05210430172833097
0.05770278080634135
0.03977043662647598
-0.129529981785765
-0.009512646711306033
-0.007900166731234516
-0.0310573114379198
0.0158443048455863
0.00535960214638119
0.01098818501834358
0.025614041080276123
0.022736487910340702
-0.030384624992280583
0.014807129273247673
0.0005212310909613842
0.015163058355648355
8.300907550842756e-06
-0.010737617665978182
-0.011378088391772782
-0.01386085872573288
0.013675218821991398
-0.013790168216897833
-0.032793793484538494
-0.006421865662017197
0.03826480569985349
0.04128913709266064
0.03590619615106286
-0.05478150755749404
-0.02549723972768439
0.01301919130378822
0.019493812350242022
-0.0040072093244970354
-0.0022768682180819557
-0.012973143845444382
-0.0033260517947212376
0.00414858978677609
0.05152953512876506
0.07002285354504781
-0.0702442035162657
-0.06515025781490433
0.008104311514674696
-0.02018331034319699
-0.03136185747356462
-0.02323183753489743
0.06460616101506549
0.014413044311913299
0.007636615176597187
0.029293816092361074
0.014574006617412821
-0.002309811508537037
-0.02593952469537199
0.023789220150291855
0.05127790764651479
-0.031867076475730345
-0.0662207156073342
0.0638494422663207
-0.01520159247768506
-0.04203665834516104
-0.005543429897209196
-0.013990544244537722
-0.018229727508847025
-0.0038860468656901626
-0.03575482296360269
-0.017649593268883552
0.0005776702957428802
-0.024838764210032976
0.0355450438477106
0.02713469846298455
0.0200298009276208
-0.04125982100591363
-0.015705244790443336
-0.0031049272852239178
6.434743763583575e-05
0.002728593736436554
0.10335062401931198
0.0667244956122811
-0.013024190753494763
-0.04629390877590879
-0.009687129394015741
0.0026806139741080218
-0.026850594974470204
0.0030244148905880495
-0.0036949598157426343
0.004596483415425371
0.030255800863793602
-0.0018286162999031374
0.000261927780191146
0.02184163947588353
0.033162765557198874
-0.006190577578291167
-0.0025051180614919645
0.01823464321357965
0.040995594321537016
0.012415904838495874
-0.02471218885859514
-0.014227886415267012
-0.02868184636092621
0.009189304051441456
0.011398475512894232
0.029287131566745905
0.013033252673781215
-0.02110100925283765
-0.031212004399224464
0.000937569438623329
-0.025435028380920287
-0.019941639821734913
-0.012487580591963345
-0.016556417795387034
-0.029579856977117992
-0.038831824997362374
-0.018028818356719552
-0.0047900681811264
-0.0051841457493835745
-0.015047413525937579
-0.007338922761556426
-0.0047590168001990125
0.010826237920348075
0.02458535853176093
-0.002549340142342932
-0.0006564518950160984
-0.013793840234441771
0.006581093143368899
-0.014597767098463353
0.0226956017349844
0.004040616946121069
0.019642056001749092
0.07255943954563632
0.05633270599313811
0.006130943100684919
0.07029669106672731
-0.12331903714925156
-0.09348450734314755
-0.004790127427754864
0.04827764684197946
0.005392348509595513
0.006352915227200918
0.045437125551744326
-0.02765787790283679
0.014386297877479883
0.03975829988014367
-0.0030329235731824653
-0.001023080593857663
0.01399502783033414
-0.01274280460057374
-0.022569584430205125
0.02162521369012967
-0.02305371276828288
-0.013011204691833275
0.05957927390416258
-0.06716120325171529
-0.05201294392085516
0.013193945269783429
0.017366938489223112
0.036236718165788544
0.013624926825952793
-0.010602005388501704
0.00892930302450245
0.03506929889239801
0.012477769959877302
0.007271253207579751
-0.10916396557201379
-0.0891127791394461
0.07666231206824149
0.019544903467978766
0.06269279095493394
0.023464557671223678
0.029155188167571948
-0.031029719207772543
0.02675813917178753
-0.034278102983983635
-0.026505923773357087
-0.0008695850278911473
-0.013730540091804699
-0.0034597684574955434
0.04716361733047288
0.06148993429136357
0.09725620030488978
-0.01760752431104595
0.02097898307616455
-0.03694671341481426
-0.0033407940499188267
0.018491191514152506
-0.1337351234798734
-0.08051612236313979
0.017020511816500786
-0.018402852613924454
-0.006026058337743035
-0.027731182237508308
-0.042704528110716185
0.02080150492239849
-0.013169667837416705
0.012837261292299396
0.04391351949377367
0.001006492801386202
0.0087396270251844
-0.004385340205659966
0.01211175579593384
-0.022380804688714305
-0.04557141364850966
-0.031145396118424897
-0.005455430651278832
-0.05299891453923432
0.023239088018626775
0.051378539870051
0.05933872432589235
-0.03335720666330251
-0.0038866426142004826
0.10968359604171374
0.06399842320496228
-0.008055167738931831
0.016965967370299886
-0.17505221381518282
-0.1076166577147155
0.020142138736300195
-0.006038422440918761
0.0038220048170072873
0.004026899539568324
0.04318750986488336
0.04607116743701335
-0.007428028023624736
0.013147151677895364
-0.004407684761266212
0.018060270146903788
-0.02090806067174378
0.028460504695864936
-0.03802054687268039
-0.02033349509762532
0.02056126664865869
0.0010575237002751388
0.009951827719594419
0.0052976693560975825
-0.02192862240599644
-0.01955275727919766
-0.0051012932465102495
0.09928633699288929
0.02924078484741978
-0.01890418385967427
0.017179641931525887
0.0018696087853709246
-0.006829367494687642
0.01970300451620572
0.019264280753866447
-0.008454312774741976
0.010850812090689646
-0.009222003413116632
0.014121567159547453
0.010569978230392829
0.024436880644570506
-0.04213461107846537
0.020043984306086483
0.03057406602917245
0.027458390314253484
-0.011914936304146053
-0.09458174534232684
-0.026688032204627638
0.0015411633256958261
-0.004280071347197841
0.004781404538644025
-0.02641989186661004
0.06193951048683467
-0.0017156381389824564
0.026134441162478053
0.011043594338547348
0.04035274762357959
-0.14374331194953222
0.011108017874031298
0.11516618394511714
-0.006576040560711301
0.03814041577420848
-0.021058555710563674
0.0755170279924829
-0.0052958541771294
-0.006765856237385131
-0.0346073811535323
-0.00032772882288879167
-0.03272356926622487
0.007464472033023844
-0.021228227212321867
0.013794439165680083
-0.03140238487749575
-0.003009373812704676
-0.19470248520698777
-0.04255439155267244
0.05571722227982962
-0.0324214740119525
0.029886096479027843
0.034640842048671634
-0.05133432410480729
-0.03846984419030618
0.01847663402853362
-0.03215074894745783
0.013934683568216557
0.017604543916213328
0.05017349603344462
0.02798575258355353
-0.005624125278793249
0.002630560005251241
0.04780100351216779
0.02302772421220993
-0.01733628818252634
0.02430597777304759
-0.0028081588190419942
-0.012214547878667294
0.020158860675732925
0.0064566598662197236
-0.03431370989225587
-0.023058621038038893
0.0020157725114868723
0.005495563737659102
-0.005926331073819983
0.03163040822399428
0.02784696299748679
0.00591808809900814
-0.01700024916469199
0.021854834510364393
-0.03192838217994289
0.0024593368704481007
-0.008718362311413257
-0.0501631657415278
-0.004233970926658018
0.020173531000792434
-0.031883518096223064
-0.008775499321979886
-0.0018655241214310507
-0.0233932323796463
-0.017157858518890217
-0.0019415420501744602
-0.004175668127186516
0.043519506101575775
-0.05042564036098989
-0.0483179922469627
0.012930788250098683
0.04845849280039347
0.1459810707603133
0.07537756716678162
0.03075264916845256
-0.03314782776281004
-0.03679317721884508
-0.02896231495579079
0.02899082158766993
0.06484549410455107
0.03278755306422221
0.012168956691139625
-0.0017380471597916573
-0.015699408121822977
0.02490882889248727
0.018460574067007875
0.025018958461614248
0.01407354387442315
-0.048446876195404935
-0.04494887737840489
-0.009216987678435356
-0.055177516728033046
-0.04390374938157028
0.026348299457390825
0.004090721733097508
0.018839926843726453
-0.02625303484242009
-0.0030284297447836493
-0.05446788168040475
-0.144915869874349
0.0614510963409426
0.032169435383325506
-0.0463764209453474
0.008974985064863578
0.040862725922646996
-0.014214824719387797
-0.009641018152761291
-0.025138175337847558
0.024132977426754004
-0.008659566332388739
-0.01972447372010016
-0.020218257510051487
0.009243925119912717
0.031071056852598245
0.025534940832045105
0.015223945023301646
-0.007101657117409658
0.01911505050013399
0.004324905305947384
-0.005759212807899589
0.026167536966713194
0.06484107619374187
-0.01667637920501502
-0.05205363052381932
0.018930739516182408
-0.01214808319799762
-0.01749674498406809
-0.019419840998034836
0.006235833532385517
0.010535005819362451
0.041156598535463516
0.013516858113129073
0.049175793328864764
0.0445774889920662
0.016196983326916582
0.002671639486959408
-0.027576201651902738
-0.009808341525115087
0.025501504088531208
0.003747766866397677
0.021522303285218865
-0.025798147932372815
-0.06901276521734898
-0.045688443179382816
-0.06207416029000332
0.0059111334309791645
-0.018089030333952608
0.03693592381582912
0.028514272004960314
0.001500839983593337
0.0074189461335486965
0.05334924537554034
-0.024040880993926254
-0.010592510122539386
0.06234621543201579
-0.0674095922401093
-0.019842383085477273
0.008869152434414693
-0.010590830405421338
-0.010756067102375994
0.0180839229946227
-0.12282562885401614
-0.05819888468048216
-0.022087516507546805
0.07290956964106886
0.07986453018414993
-0.0021800488909215817
-0.03955565974053154
-0.06785520316954279
-0.006484123089690969
0.03502083780265038
0.04814881677132738
-0.0003506521808289268
-0.024893887203632073
0.01999432198801554
-0.03350759829346034
0.0011326158093799676
0.0391580426933389
0.056938613518957126
0.058623603597650495
-0.008200784141401555
-0.0027839416510046155
-0.013416506036988346
-0.011243717596628516
0.019821034136344146
-0.04230399216839163
-0.04990160093015206
0.016916229738194698
-0.037496218835260144
0.04855285709838394
0.020940108371053787
0.013324472375881908
0.025632263237698752
-0.01087297784593526
0.015490545755452716
0.004539410144103715
-0.007358946540817987
-0.024985771954265927
0.02497556081241563
-0.10728673520161222
0.0014805424208579618
0.10753239454218455
-0.05319042388731217
0.003533085376277732
-0.03558239734213171
0.009320156216873442
0.026876363735194093
0.05785242560268791
0.03241383939907446
0.059417648293449095
0.04169142546919599
-0.02305661240124549
-0.11622994623754716
0.0227301121826812
0.026733949729138097
0.0013405200586537843
0.003338954519803012
0.03168809651403713
0.019655959268857943
-0.025884077722452794
-0.006979364110605997
-0.00890155095305449
-0.0054612946037813056
0.006936473797913609
0.015827123559089305
0.02156078092206152
-0.07879445909839401
-0.0566989131889724
0.002176271954864802
-0.0019767581928865673
0.020341507566946686
0.019458275304886766
0.02804957216822025
-0.0033847080473364145
-0.02066226810783129
0.022103132433060835
-0.004767052496686467
-0.026775011501154054
-0.013581967852319429
0.00018523038196196392
0.0031813602065541924
-0.0048888919121236225
0.03476037172369098
-0.014293500130336803
-0.0025239267963306756
0.016537861471891593
-0.04421660755407048
0.02222470177442045
-0.11462035570055266
-0.10920009424393567
0.058520514286086685
0.004496814186120641
-0.016833912738032416
-0.054607050576758645
-0.023375997299098766
-0.010460374446633065
0.014337710048718784
0.020409126066591725
-0.013082641761601559
-0.010250213565167065
0.009344222073281228
0.016629710401359826
-0.010643458099586552
0.040553243755295044
0.0010588197786924195
-0.004171880551822338
0.009185334568472429
0.05004021816592258
0.0927041148923572
-0.00685404794548388
-0.02079264326878021
0.07538113014608873
-0.06304283291158881
0.024882014972700817
-0.03977721890684497
0.009219767876950958
0.009232072493520548
-0.026135408873880026
0.010552792797279897
0.013822452712608131
0.0001195664113870258
0.03592399589282706
0.0008413918571083358
-0.019909527803523536
-0.016315742985494888
-0.0006085383689017597
-0.024358173391978027
0.08408973294333384
0.0562273224575868
-0.05116749053334603
-0.0009810505844943579
0.0413386056049086
0.009857405987307957
-0.012586105236965912
0.042692435577879224
0.029471520238292782
0.07578981699050212
0.02100440903198427
0.02411694271875943
-0.06257823800632807
-0.07478577818781172
-0.01696187973825867
-0.010578933017016253
0.007526317154980035
0.044591414289645234
-0.028893578615676766
-0.020862840489358558
-0.006708792271718479
-0.005016778763075399
-0.04491903756038273
0.0005776922050620793
-0.0027051405798544257
0.004623965555499728
-0.015237426481732185
-0.009991337183855286
0.07736401807613362
0.004100839879325169
-0.12548929144647022
-0.06168943882758897
0.009283148380918989
-0.021770754475268845
-0.014625903780680674
0.0021214332426564234
-0.012663685284103233
-0.0012994737143002674
0.02816334337365148
0.006069516647340846
0.046881667343683125
-0.008523860395063098
0.0165150078847393
-0.019628366696293108
-0.0006623056479468449
0.03663877082825439
0.031611951684565515
-0.045234518420364564
0.0051979850588213085
0.04859629002244993
0.023692608206387068
0.009612344386765063
0.002808933218049246
-0.027249121987847198
-0.019340244585351857
-0.011936502262105577
-0.0009525327152502148
-0.023493114746754997
-0.01851909756325793
0.0034519830770512027
-0.0029196646282958886
-0.008308453113889933
-0.04539716860134226
-0.05292869344103843
0.019338320932300816
0.020720566230377185
0.02500897827934444
0.052934810820710464
0.06585325412766625
-0.02183429650867564
0.009223663916817499
-0.02578972256490575
0.002381287029947989
-0.025879922979812734
0.03923201484842761
-0.0158866330530452
0.0025169227123210676
0.037040461601660454
-0.00766730435939566
0.008294373640344093
-0.026716387375478753
-0.025237894862647037
0.02436669233201212
0.02398367353199783
-0.03133180256559644
-0.0071520540079548335
0.014339590540489382
-0.019282961717235203
0.002213756311050395
-0.01899781517219583
0.031018147056659368
0.06456577489925747
0.017611227087338758
-0.01750711267123045
-0.00881309846357175
0.008385863017574473
0.0166308718146765
-0.023836115964446035
-0.026113885481247875
0.00829813523436937
0.004228903141078002
-0.039305668637401
-0.034630632978137565
0.03924280283473946
0.010841314803204891
-0.01738329013628057
-0.0014645343807264083
-0.029671810210960457
-0.0424475053763505
0.023880661193800567
0.047004141151363935
0.03496524447271878
-0.0055876918862926
-0.026888455859771437
-0.001096947583412737
0.011985704942306613
0.00032141778533920003
0.030509913842372775
0.0454550768138944
-0.017341501108811885
-0.04536149776342916
-0.03511372485999661
0.03376799378083851
0.02758165410680602
0.008594305553710586
0.005999705727384276
0.00047037921774676397
0.04576532552721513
-0.048693373217997195
-0.18774932676342115
-0.014180644559800172
0.048809309233364295
-0.004064737338019282
-0.040091743139190984
0.04904082306923481
0.04107281275608855
-0.0007709855364538127
-0.02467030478240399
0.059118508881587976
0.01736704234118424
-0.011071935599552078
0.03297055981022078
-0.006191325747424622
0.019518963450744387
0.03992683821338368
0.02549696170547101
0.016082157459708462
-0.020348131883239473
-0.03824267646072314
-0.004128895229431995
-0.01443857557394811
0.004667844164864697
-0.08631496347328123
-0.2065446015907846
0.020795519636409587
0.00763440832098275
0.0025664739551999396
0.024075367287909218
-0.03348849676525903
-0.10051090890607794
0.03223073862999271
0.01940582383204654
0.09476382058883231
-0.029307372117053903
-0.016911965974950083
0.0032228758315256513
0.004437539403437813
0.013974946470380585
0.0050370155189615904
0.0022767450580543787
0.035662886452024506
0.16401316402920393
-0.008615387025227286
-0.008547834741681451
0.02798281940817483
0.0058815614664793365
-0.00923220705645416
0.006580876616219607
0.10978665766788531
0.0197905434194619
-0.029614718109934334
-0.05026786097586829
0.052955581384067904
0.03289873477672434
0.018478714632539174
-0.001045249787414522
0.007296217520265362
-0.0012835556170562915
0.07487164613899575
0.018816494609206688
0.0006840632677077889
-0.047256010541681
-0.07435808119997783
0.01724935028181834
0.05365693963306709
0.022486091316857585
0.010506781628892445
0.01029467753223562
0.00392983442075377
-0.1437078608954272
-0.012079307114903343
0.030124104205798252
-0.025066664914150747
-0.031661862704847166
-0.014144487347922266
0.052661868808426694
-0.10082126732987332
-0.02667094306147924
-0.011586833774036595
-0.07914748165599246
0.0012432289639064814
-0.02563312762329646
-0.033828969360099014
-0.0171737400944113
-0.025067134594979914
-0.007387489726938229
-0.01816913853272992
-0.021526071975859682
0.024838499756469706
-0.020614542378341406
-0.00045062466396736606
0.009979942587900387
0.02588789478907678
-0.04295692215772302
0.017844379358217907
0.0026149142597990736
0.03886308578418201
-0.0285311481252278
0.03355225824427633
0.08419357357204965
-0.047310390368000194
0.07045090822911171
0.01181031344842898
0.018899454019459427
0.02015862224411995
-0.006362257253951256
0.02586563689571599
-0.012907059778692697
-0.025597401673316204
0.02698672343389371
0.07095832139530081
-0.012814529457278068
-0.005251782348770144
-0.020925105109132598
0.01106758092799581
0.04081920958049302
-0.011722988357717417
-0.0006824857076653303
0.008053142779696404
-0.008719333505127547
-0.005275369173417511
-0.0256347184131882
-0.04394496725076662
-0.015424106274496547
-0.01605653732552818
-0.012753866320419673
0.1720307066830308
0.06947384036647634
-0.03125805290893916
-0.018993132118112106
-0.0015056641876501175
-0.01810647603698042
-0.041662453973640344
0.009822694274263761
0.022361240406501975
-0.0019385021922357776
0.012623100448282788
0.03632170553019897
0.019161386339044434
-0.006695997373069925
-0.023827048095365042
-0.005567810167377047
0.02058460925110534
0.01095254982066708
-0.030111339590217646
-0.06417829602826901
0.010664689108850576
-0.08568091914380287
-0.16526265888665187
0.010832030717098042
-0.02875363084268005
-0.005546623453603389
-0.01860981965379816
-0.010852092464515187
-0.07009957614935004
0.019432611753588548
0.05835569817096156
0.04693602742797061
0.01230194187078041
0.04615232363314573
-0.05042172235148597
0.004985982292182425
0.05366787830431519
0.01783474247216066
-0.05667030850355833
-0.008987935513967992
0.06998007777113165
-0.040584614224291625
0.019778483483709534
0.027165656702622297
-0.005336655973769669
-0.04293077276586353
-0.024326074182246072
0.06243335623599122
0.031812192694183485
0.02667278921393392
-0.042124405462671384
0.1378453162728974
0.15225047218135448
-0.06557481603941072
-0.019561692426791438
-0.04374263265836284
-0.006636002596973737
-0.025350677321724947
0.009205320189029486
0.038027670692705795
-0.020664973309001557
-0.0499174796330343
-0.0361432111792971
0.014128496064396858
0.009076819618210085
0.028882697242719118
0.05664955300594498
-0.08915273536255008
-0.12843774057713786
0.01860400247179644
-0.01924091071585948
0.06285777172582555
-0.024699496567161104
-0.009701949482691583
-0.00027482336863305864
0.03696149734973359
0.05301013539836833
0.009089629448348499
-0.017833016658345746
-0.0067058743204966905
-0.0361962015512261
0.005222025741168374
0.018986166863118853
0.008717481437337677
-0.016363888776714526
-0.011537576298499526
0.005005302440867058
0.009596721627637878
0.01519431203122084
0.014148007181196156
-0.005390932630926051
-0.0068808798735730085
0.0011491494722451455
0.028341099606656258
0.020032483767258778
0.02448410005084844
0.029263016940657298
-0.006824595548835051
-0.0114970493630718
0.0207805037707628
-0.0010592908137925295
0.032638316064360434
0.0020128182660332002
-0.0036080941850841685
-0.017006552602557897
0.030762623919634424
-0.010348727695799254
-0.027921313675603472
-0.03792575260659502
0.042119765377143924
-0.04851986735842602
-0.039910668992877395
0.004559641291609424
-0.1556327445155481
-0.05996815420022622
0.008596526014098672
0.0662290046380386
-0.004292140793427088
0.015058093988087036
0.040412730424699464
0.1019183786026954
-0.015287935101393701
0.006210829933209371
-0.016784691460969434
-0.008219030376444062
0.03327508871509714
0.06103990366000659
-0.010082476840582557
-0.05221401451785423
0.01153486439192279
0.056428400482923226
-0.09830867659806936
-0.04477317807166661
0.04635420819424231
0.007884264474390914
-0.01662489601380006
-0.022904063186213693
-0.0758113373223287
0.01412352080758118
0.03116712038195225
-0.0027596949140299746
-0.0029570407015692348
-0.0032419492653723743
0.0026754231855931313
0.02598321595461415
0.0010797677607985799
-0.006994377812824164
-0.002871798026410464
0.01085834937088369
0.02087776135505342
-0.0011560070919017975
-0.004323127002610599
-0.021100227132883412
-0.041617521447743
0.030886331020429092
0.04023585117751065
0.019025725327227114
-0.06567818881634828
-0.048087791070536484
0.006113779546788831
-0.09376913431931158
-0.10140509421648317
0.012381354632394457
-0.023648661539043134
0.07218814960239298
0.09985866626320548
-0.0006730456425282897
0.025547367180532497
0.02550469020997488
0.019378180844980858
0.08057172457453968
0.030971756414920375
-0.014433766640647673
0.04506336571309123
0.0553230763187621
0.08431117279716399
-0.03305896229276565
0.009997883521370536
-0.020380581640740674
0.07866629686103312
-0.13693627321836446
-0.18219487336095636
-0.03164117158148245
0.008064748028696417
-0.046872614370962046
0.07491728978065838
0.1002640323718749
-0.050906041960744774
-0.010741464390859589
-0.02448950439413898
0.02124471091025286
-0.017292203857661555
-0.02105905133210487
0.0004455565681853111
-0.0014228959027719585
-0.04751152539114486
0.0211554685629939
-0.021085811488709708
0.005970382049172657
0.004962968760038709
-0.009330299650009215
0.04002383650335977
0.1809833022234909
0.00028791490053242885
0.007839882515352213
-0.0007593875961086303
0.007598398416724478
0.04230697086701615
-0.046422587105841524
-0.043546073367871176
0.00823247989477609
0.018309504410900675
0.03990111566082353
0.012807599962757175
-0.07165959559731791
-0.09474493483723105
-0.00839141346149103
-0.038967535197465986
-0.006759114004652398
-0.011739136523697426
-0.033349657278128574
-0.017546789231440325
0.005243843719889248
0.030653917272398443
-0.029522349135106422
-0.008859089019625647
-0.025970585803549932
0.02573722343047751
0.12298672737496134
-0.03875192027646929
-0.021837950607017813
-0.01343717328547878
1.650564566699922e-06
0.0388748081640667
-0.0026654379586601774
0.0033307261873850315
-0.01629003387877382
-0.11611085498860672
0.001390066005064307
0.019934474954113546
0.04573242236933383
0.09037675248686579
0.006736686365371336
0.012840128300202577
-0.03577853636178503
0.005036045659673572
0.003067834719992724
-0.012662843039465422
-0.0009903877651533674
0.02028139130497159
-0.0666186548328094
-0.06191431768517159
0.028607253218020164
-0.011657859737472409
0.019945153718701376
-0.007542944548207672
-0.010359910043961454
0.009332091446627586
-0.015991198689432235
0.027394587392330968
0.18422721994830896
0.14854335785903242
0.022657570297140966
-0.0071709157739547405
-0.030616834687102475
-0.022299867279975693
0.014100988105981616
-0.03254521555587192
-0.0086926776730633
-0.019384313999101888
0.009281434805245882
-0.0017492469506375698
-0.01708880414848605
-0.03301658882207927
-0.03294483629656507
-0.022418112469026783
0.06381788535358651
0.012105367375499285
0.018323070783842633
-0.007405676626003895
0.03312696317845673
-0.032601929557277975
-0.07570487601677524
0.05213086770516676
0.06833348684754811
-0.01730591269357622
0.05703415693216465
-0.1447405453836766
-0.12965129632840194
0.031335730217929035
-0.022922769274667267
0.003901856485814416
0.023662615959275136
-0.0008725546449281996
-0.047538357756919836
-0.003963040200428656
0.04102674647081234
0.016538709731225926
-0.03035656749384897
-0.03534724130109801
-0.003921239220679512
-0.0034607067796820897
0.018890447797165554
0.01904929667162287
-0.00358251390272712
-0.1252704536509793
-0.04807097981258685
0.06001881275205714
0.03132606770744498
0.021796980069004962
0.03060968884837853
0.026673051330478825
0.04516409590178687
0.03959958556015213
-0.029155824155232386
0.013016499580642334
0.0021075964024152996
-0.011745768358012585
-0.022266664224125855
0.01769792854468351
-0.019475622125503567
-0.03260234782743148
0.03093618838865975
-0.0004737966719094797
-0.020290464495127395
0.009090561465179432
0.028960107078333092
-0.047527478072768296
-0.05138328439724448
0.02379881422670914
0.04683192703879975
-0.0077036759057640585
-0.041548797336121726
-0.0017520479718608132
0.0005488784209072854
0.03362572433118149
-0.027992838245615936
0.019623865367567404
0.03358229617089687
0.012911501606153829
-0.030900395157146605
-0.0077167944386881205
-0.008302425877587062
0.01858981448095561
-0.010126724382550445
-0.010119167364837922
-0.0022876064419459345
0.06630566769632995
-0.061715547883129086
-0.1265597960730959
0.06171706956085041
-0.04782820220041183
-0.024995684715842365
0.07055794918011003
0.04268693750286738
0.10432594540213078
-0.008887919061882228
-0.06956954436960579
-0.01617783319779713
0.04598508300386172
0.025534105543389345
-0.038229750579756076
-0.023859329438698115
0.02709381157279239
0.03274070641435089
0.0823193954169737
-0.008157023481091326
0.06032854648687225
0.03549496640960423
0.0196879986018163
-0.006774613675653098
-0.02071519808805601
-0.0023767590797059332
0.007972253768128722
-0.02207151844915017
-0.01515784228522519
-0.0013931812000269276
-0.02795566143540432
-0.015889749637621332
-0.01863255884731361
0.013198897937108534
0.0008689065666345696
0.031674741849438595
0.03519280189570418
-0.04397440796764607
-0.029911223905586967
-0.14777651664830976
-0.02623014278280271
-0.004967704593515159
-0.036920361540046305
0.003534171317720991
0.028932562600343305
0.03199559113463599
0.036451421181814554
0.003721273586164428
-0.006689491478122288
-0.00249681090681361
-0.014601877033337814
-0.01153068860951351
0.0042117704804094
0.026178834777420848
-0.011954343259584612
0.022727230583441525
-0.018109642280241346
-0.023661661229251025
-0.025767057550928125
-0.020013741037691015
-0.013622320836046432
0.13778708499829245
-0.0732337297159338
-0.03416169471057004
-0.006527360309181282
0.029446827448831692
0.13296332886230952
0.013866194971871134
0.0020536531760427515
-0.00012504397311676583
0.004924135721648937
-0.011692716456258013
-0.0699936355006663
0.005984485677928428
0.02169153833265144
0.00895224734734855
-0.039707708846767935
-0.012641626716485168
0.02097598288618866
-0.007820133797561796
0.04072309886089871
0.0024132518475634213
0.008592968439879488
-0.006679673737427756
0.02518335341789148
0.00596617592335165
0.0061781294383431214
0.026107250657315895
0.00435681087457781
-0.01764173672613424
-0.05269530786093863
-0.012589836977884496
0.05505494758384255
-0.005392121798159451
0.01809347331467768
-0.005918775308162276
-0.011054424708232577
0.030325242929330424
-0.005953302709167737
0.005099184496039965
0.025645715863072852
-0.018399488976556466
-0.08271258172902832
0.019883133887687848
0.036936867073590667
-0.1570808585074112
-0.042181213618314166
0.04232128963754008
-0.01952674516037719
-0.007572596096292757
-0.031554347071116616
-0.013873736040595821
0.011389476652940426
0.007364300138692144
0.06832837963551018
0.04076494579770602
-0.006369105686564331
-0.04838764450513489
-0.014052721069215377
0.02752774085830421
0.024024717703204013
0.0014145448851778594
0.032918592438837775
0.019504867557918325
-0.01946707459575289
-0.03013904058254678
-0.04374717506717409
-0.024921099609069713
-0.04857613333844003
-0.01106979649297598
0.00323892385359735
0.041466882155204984
-0.007379037299744377
0.008135715970233732
-0.01105857198920671
0.016445395843678094
-0.008952281227222258
0.04960774464269939
0.029934374306710917
-0.040082510234250184
0.0423871660824407
0.19507538377761163
-0.007807102578483615
-0.014663392741782586
-0.0326792483323901
-0.06952947786160822
0.03915726113623972
0.014562341941260201
-0.02480136620028003
-0.012993747197880766
0.004077128433164523
-0.023649527530487317
-0.017223809171750062
0.006079167418810936
-0.015188349543124183
0.029005817329418898
-0.001500171184992825
-0.013511439553379736
-0.016835287568723323
-0.006308817879587374
-0.005625254406921133
-0.02500234829409396
-0.0062909312665076905
-0.06003317140204942
0.015646969587876158
0.04391479722672494
-0.008321260262378428
-0.0005688248791938824
-0.026393519173484706
0.024755120390480983
0.012316126062742433
-0.055414154279201364
-0.029258599484300065
0.0186872190125076
-0.08328341357159261
0.0016832133285889952
0.05815790925053072
0.010763670849072845
0.04601392781125322
-0.0030391906267174095
-0.008346882661958172
0.0919415191210811
0.05326967544005327
-0.0808528335864735
0.019454779964105814
0.018608843164894084
-0.03452192234153941
0.0010612246071226952
0.0400922104119702
0.05985981894592881
-0.03498530523779413
0.023573175937810022
0.028120270507805224
-0.022377528450131377
-0.00914581179538534
0.015675921010957033
0.021670194866832238
-0.012473113262319214
-0.007600348638927063
-0.01452722105729388
0.007167749176498732
-0.0014417568210204348
-0.01869833271050642
0.0196816732967992
0.012725495157865419
0.011245828331625907
-0.04505502339107455
-0.0068599064597860806
0.001297778183864449
0.02019684532090964
0.013526372390616076
-0.027183957086280172
-0.008720874520194741
0.01666519143152601
-0.004628878958327067
-0.01497228378715406
0.047533746893480375
0.01636373478951722
-0.04073433896269326
0.009909000962993787
-0.015382380584621356
0.025809418339888795
0.0003099956015002165
-0.01986388295764554
0.014665072167302395
0.021606839880763604
0.010308696811689942
-0.0483388137301832
-0.006970941605390309
-0.014993317887366192
-0.013131390093648809
-0.003779059275886889
-0.011835516691274193
-0.019935746091037175
-0.0007766173646359677
-0.005019297957343014
-0.00498581860725763
-0.00521674844112944
0.020679306231257476
-0.004927113531148073
0.0031964493066502717
0.04178189115670131
0.040224995097114066
-0.09974784115102348
0.0011417655570628883
0.03791200682587332
-0.016415475168836333
-0.009132266717845073
-0.07076945791226777
-0.006433697226780731
0.03117078015236208
-0.0407191991842929
-0.04009421367107007
0.02501924832220869
0.008177249238130013
0.01329808833626845
0.01879989134776379
0.015281071568668472
-0.04569913151938763
-8.890348018191296e-05
-0.0014511413857626206
0.009533032876787629
-0.015047599240465033
-0.005648227108476829
-0.11289316480933151
-0.025470545601901876
0.02627376946483978
-0.017692058209282914
0.006756172290396829
0.04408010897557568
0.013660285108705362
-0.0373169481384216
0.10986553254045335
0.05199720055565614
-0.044359592172375235
-0.00827005033025694
-0.004703091188466688
-0.0021356574438420725
-0.025636093256166354
-0.00026456495751133667
0.09254925583644709
0.038717569808580814
-0.04281572869783246
0.013376952877223305
0.004606548280271486
-0.024553752673983312
-0.05458287543155836
-0.05918059023715623
-0.0036349660336554824
0.01278003717613131
0.13836446631504612
0.08142430153611506
0.021941121872710023
0.06673921794921261
0.0339505264537795
-0.02114212427035184
-0.03789218586712891
-0.02441518527027259
-0.030831451346315902
0.023440901912602743
-0.008187445769624211
-0.04370889457416983
-0.03552606759077461
-0.004441597281607465
0.03399342015352436
0.043428878806320716
0.05953951706674762
0.017229483906213785
-0.010142682514050198
0.04599028162798288
0.04135261025075298
-0.06108896312884214
-0.036936218608907445
-0.06268119174104912
-0.017537816332359384
0.014097192687557913
0.0472248748905145
0.003799974542783257
-0.06764673971287119
-0.03963340093268603
-0.0001836686273082742
-0.016112786208648096
-0.03208570816812522
-0.03001435050211086
-0.035498411394451056
-0.00193217895052381
0.1646701819570572
0.014514653211190798
-0.007409482909730707
-0.0029089445569949243
-0.06391407405466826
0.002983171687734607
-0.04059873601619463
0.02399167498973858
0.015717516494483864
