0
-0.02883051923770727
-0.020345685450015836
0.004089057577692512
0.04196210000718218
0.042682685749681676
-0.046769123603389376
-0.03716367553791712
-0.02087963069149489
0.03865371720507053
0.15360400662325005
-0.037472105655150516
-0.07558239704528842
-0.022619057190271557
-0.019669178330630057
0.005110073544079025
0.03886011956952628
0.005657163070904951
-0.018300856853793093
0.018906279448504506
0.05430449711834075
-0.00451746959116687
-0.008523203440833085
0.037208059814891836
0.06193424662630628
0.025531929949283064
-0.01006650057695715
0.03537849135351742
0.039104491010257626
0.011605531708766057
-0.10355615247110461
-0.17644415139128763
-0.12455379609169853
-0.05787469690634682
0.0638148252458753
-0.011311737929723169
0.004304271811776754
-0.00028625952404550965
-0.021118643555011845
0.03727966204020487
0.01283375851364321
-0.003961397466203056
-0.017128953524699342
-0.00461900016651264
0.032831256716746395
0.009527934458338235
-0.005631846455498773
0.010153985196404819
0.010386454210923822
-0.04570959059403731
-0.016583705333784525
-0.055170266490352754
0.0262744324904664
-0.005076148821279173
-0.018722146222501703
0.015456219370669596
0.022104443397967976
-0.026753786680384348
0.0055575556554294785
-0.002812143966102844
0.01755162890574313
0.0258199868510345
0.0022330251652589706
-0.03707931677653445
0.01651127775955535
-0.04428426680560609
0.1265110641145171
0.11334587418303113
0.01804253082595115
0.027922176754523163
0.0010686158394064705
0.1110651459353718
0.009126648709627008
0.016950716919464707
0.02172448730095708
-0.0939536045828627
0.001948619128961719
0.002821227462226341
-0.013063367249184908
0.015014758464312588
0.00397718667987178
-0.020959773186069994
0.004394003305366904
0.025562985787458897
0.06100911328922491
-0.06304588624426086
0.007065912977260583
0.003537347335505512
0.03358450040541369
0.02086900581783961
0.026368471592775715
-0.1267947881747636
-0.03230393477291751
-0.06689766184457573
-0.14655104446658357
0.062124374358017924
-0.0324359965419782
-0.08852774086245176
0.003850376284886251
0.008759709113645256
-0.01719421320113659
-0.002052747850127163
-0.11976682504791088
0.001636257448469461
-0.009382101278796826
-0.00863067224400662
-0.022331198621026314
0.10565279860030949
0.032594755397841894
-0.040448847263839606
-0.02000522931106272
-0.019237009477445312
0.0007890302021394308
0.051359318370719304
0.027103120752054462
-0.008018870680774922
0.010788359541905271
-0.015271999282454747
0.011243612767014646
-0.0024705190833115556
0.0325955972425402
0.07939656806493046
-0.0011765374695902136
-0.002033230780030588
0.1507379709077369
0.11771572284337076
0.028333210398379632
-0.0016563069596129988
0.05836217115613296
-0.021199541717542462
-0.034803784796248405
-0.04963598541489402
0.011882839683148985
-0.008828145862417775
0.010728592642544997
-0.04049002071729045
-0.023111773964313822
0.001603230020298038
0.002809227154393237
0.005595533444013581
0.03486207351099858
-0.1722238529055059
-0.055471009888112224
0.0360607239142331
-0.026563555359920075
0.02118863276613709
0.05360296595753411
0.016328446988600347
-0.007676104909210899
-0.011273242284635897
0.0042434544881447284
-0.0004957500351143998
-0.013395556240119885
-0.04544987481908225
0.027937222601654533
-0.0455407734166525
-0.20150233386714078
-0.007979092682254203
0.03313913124219009
0.01612178542257978
-0.00508924496710714
0.03505901850433917
0.04003929285763558
0.05440865213584971
0.014972201108337163
0.13663856570084068
0.12472028306867343
-0.02305138187139224
-0.0157541839332383
-0.005240008202907364
-0.011696811832606997
-0.011207310607949226
0.01701573863759562
-0.029469290017938
-0.03492899828947163
0.010258482344258224
-0.00753132305771359
0.03924618908314322
0.025266429757285838
-0.0004911334573861311
0.0063562620018179795
-0.014855176583842278
0.023528601491262697
-0.0003601125294272614
0.019210884967550204
-0.05643955703386057
-0.12218214913573472
0.08301058273115156
-0.013339106512174615
0.02627655327739638
-0.0515363698272632
-0.13538074776728723
0.020745202622271888
0.023762094480008822
0.04616918475044083
-0.031564214576085416
-0.17307105799386927
-0.004747627650054701
-0.011774035554397435
0.03721204828714327
0.03600937905535878
0.010041755398342173
0.04690192938372262
-0.04945870395394508
-0.022202755296003265
0.14705091156032177
0.016594215235440482
-0.003449133362076829
-0.03381003832790722
9.030167975769875e-06
-0.07128656186734919
-0.040413917816189734
0.02898743899282177
-0.027370606267218
-0.009875603378474374
-0.03752416380388596
-0.015207284583838132
0.01868256873506186
-0.0138796469635993
-0.025202143294777365
0.04439145980203369
0.11900148862845786
0.05907711332496771
0.03025281889969222
0.03410163495623363
-0.020795522745881437
0.04011937801070895
0.005722968574903027
-0.024528882310972732
-0.06996999514898039
0.015000669231262247
0.0143254937194368
0.005825576205323052
-0.007582683051381031
-0.013756959068614806
-0.003191585932644887
-0.02570531194316161
-0.0020720120293183804
-0.013460382798470564
-0.01663080208606987
0.021606560536536843
0.04185441133190293
-0.017004716678588102
0.01205133226612196
0.04482264235356547
0.009229096106092757
0.03865828440771214
0.024739729829889097
0.007961932597774828
0.020469207824389532
-0.012807158495188499
0.022791750204380137
-0.029595032164941523
-0.09558926398811825
0.002517494218976324
-0.002781161416570037
0.022253898922188944
0.019482830948507317
0.00842039564665666
-0.034960669968745035
0.021227192519021658
-0.003143686967340842
-0.036606888561777476
0.03149299523338361
0.03118275409218432
-0.011878607883361708
0.03480961921455371
0.02061676079437724
-0.024190336064261284
-0.021911748435385712
-0.014701276546441393
-0.029233458331365415
-0.0055403875016358205
0.026426689600737036
0.03372883987243537
-0.013422135078453346
-0.052536434272508356
0.03772429522945169
-0.03182684581395876
0.0017109476131995619
-0.08771616917224065
0.01760549005090809
0.01274075716875223
-0.03697866809638085
-0.014280409005767885
-0.010118596089299905
0.021437557947268898
-0.0029634721963539587
-0.01823740038044984
-0.013354707098448665
0.07512623557358175
0.00696608705279381
-0.024865518896441476
0.0019399451629287618
-0.013355468699178735
-0.026089642200953077
-0.04957244388933397
-0.030329574790061233
0.01328090976508986
0.004391744780389818
0.03272496412191787
0.035117942295207205
-0.054967167340847035
0.04939544530108768
-0.02369500553306744
-0.17160556589027928
0.03469722587841825
0.04849124581215839
0.017061323742396346
-0.009509296157494176
-0.0014614905591508365
-0.0029376271791094794
0.04580589089177785
0.13060515268623277
0.047251093863706684
-0.19032453956628406
0.012850454037301484
0.02002999049865154
0.05013857370669558
0.1372728287837829
0.09126683534578443
-0.06330199460649476
0.005273669543914089
-0.003933871983757924
-0.003311470766984965
-0.03079492960297715
0.03291410159841599
0.023200626547582332
-0.02220241597984166
-0.0112538501539262
0.013221776377648263
0.0038832533684326027
-0.04302683903245751
-0.013931002127040555
0.010856072554657084
0.04618466781446908
0.01939358500542967
-0.03273626248772687
-0.019078912013069726
-0.03158006818828931
0.02585476073111293
0.008254013922100602
0.07823229298931023
-0.15149276621022462
-0.10328076398298534
0.010580125203038686
0.0017983026815097183
0.0688852819837183
0.010728597886373393
0.043983104696148724
0.032232883348795316
-0.02805207179073237
-0.032087177544006355
0.02047640074175495
0.052698233504681766
0.02108957351518382
-0.023870718286907667
-0.014380363095666617
-0.011965779233929224
-0.03740800536475289
-0.004423584603263727
-0.032367311725597106
-0.03224258515483829
0.03566181409734174
-0.03005602227932363
0.036118309538273156
0.061565847417762984
-0.010692345658011668
-0.007527034104040392
0.003917696317732544
-0.011356399354550847
0.01521544669283707
0.048198042795324095
-0.038526313886727476
-0.033221345091483924
-0.004603618493464728
0.00873990414391024
0.019238673232454692
0.00538804421516958
-0.0073773818682333885
-0.06373274472292817
-0.004873376297719715
0.04104947534861288
0.01977779090309647
0.014562133278355663
0.030117850962611086
-0.005661946761333915
-0.021718041102961008
0.006977884544311645
-0.0032566083487988056
0.029728072345597913
0.034432075203831805
-0.01670399504881515
-0.05044247210821651
0.039685445418598
-0.0027713405458331362
0.00300167823996707
-0.04285846311733669
-0.03244098202036358
0.00226656469924838
-0.07928110435152246
-0.06814011589988753
0.0006780846662651181
-0.008704149009752783
0.040695281135042505
0.002149073679002374
0.0342930103656842
-0.02009383229853925
0.004856908238112134
0.026312348332157186
-0.015064956782589638
0.009804979177638652
0.0646656888210607
0.00738459575411066
-0.03269121552475904
-0.016651995058796838
-0.014419106391521802
-0.06621866633595622
-0.069860574624534
0.003895783251247665
0.02293602638175124
0.034267700779626584
-0.01855707734104146
-0.011213475708221054
0.017327743836983243
-0.006539715414657019
-0.0013825113860969425
0.024832383253750295
-0.007007450036117135
-0.06830768167199613
-0.004123329163535229
0.056472657789836185
0.018436244775078832
0.13523103041023352
0.0201961727654221
-0.01205082615124848
-0.007614952117130812
0.010092590336326345
-0.05812700027918286
-0.0072197654865369006
0.0010698721305154612
-0.007669115643790058
0.0030904806788878128
0.002278933929287824
0.008292653772313722
0.0029372116092456157
0.01353151985559711
-0.005473036513897041
0.025990243123068274
0.030573498849068327
-0.01862991185221829
0.04992468454329478
0.021555837593282123
-0.02910598895102463
0.011955244565929772
0.03622936051531784
0.03153681590777805
-0.03984840752954032
0.00021497296435239285
0.05567172142524903
-0.0005456293717635989
-0.00650707634494214
0.01939826625074357
-0.02133510838451392
-0.028217770186995273
0.013473213052408015
-0.011221111574203349
-0.015186623415780235
-0.015067671475234109
-0.026040482753058283
0.025725838396542335
0.017222451949214436
-0.002743129083925868
-0.026283386788894265
-0.041607457439781344
-0.005342438521693035
-0.017976665646622265
-0.008372872832061678
0.01600249802511957
-0.003809323134574798
0.0008940805277804709
-0.01038061698660241
0.00025670520926315994
-0.014226153984764806
-0.02333162030963151
-0.008839751410863454
0.027547552045318602
-0.009798816100203564
-0.024790040120384906
0.07525381624900239
0.0024739329034124623
-0.053517325720271056
-0.01370947790263003
-0.008771016805981021
0.038954053421514555
-0.050610023715355376
-0.030772171368021108
0.03500556441743171
0.010410016670809924
0.06499738402659261
0.009649494720266789
0.030436209747555027
-0.012958526069271142
-0.03617394145929808
-0.021127094004590157
-0.04158414529254774
0.009646342313838353
-0.1030430544779966
-0.06778738063251041
-0.0030178421919347873
-0.0695948505182251
-0.042631068324837755
0.16186914144034603
0.03404529093587206
-0.09343657916608539
-0.03813942340577759
0.10044588032120037
0.16959460114724725
-0.016819591299619702
-0.017237685382409502
0.16673248284506323
0.07554826305873599
-0.04710816147990604
0.04187612651991474
-0.024724304078135643
0.0022086875098617483
-0.01076575864285254
-0.09632158458414512
-0.05415713861572539
0.032782367580712325
0.004913665606847284
-0.006894265220204057
-0.039244384522738936
0.005650939032835412
0.0010322562815234216
0.018734218106648208
0.005507323683854097
-0.031075100655341404
0.0008805203664933454
0.020201461939535547
-0.005896236741670667
0.0010302563034615742
0.019910732345289204
-0.005570820869000831
0.0070582619770498956
0.004126172626611479
0.02672771760394857
-0.011115090780782062
-0.001162254109260189
0.002268735335671534
-0.02099800365977212
0.022433316389513507
-0.031168187728761718
-0.015283369943411484
0.02013301221526293
-0.02665415249471308
-0.05785268268050634
0.031881231963616884
-0.0002585626417017718
0.041051933659754715
0.037548282847565756
-0.006560128926692168
0.01552095883980932
-0.006498435857934389
0.03166207372260433
-0.012831720029734131
0.011096416988752883
-0.004329757557263699
-0.03972041451872743
-0.08413708148640171
-0.014670304207490428
0.003309417787101201
-0.010754823696042776
-0.01412659926023445
-0.011357506197252237
0.04396429986193392
-0.004570728341156414
0.018840190133955728
0.019752247146824983
-0.013747935771258265
-0.03127152410950834
-0.056792995962453484
0.014448915960379618
-0.018475245041744442
-0.03162567278595248
0.008858703615655314
0.009516141560323672
0.03975061924546722
0.020857129024766337
-0.05172985064186048
-0.00273342112706893
0.003732783500564489
-0.0046179958141009236
0.006530567324382339
-0.012925286798883736
-0.035538672730120596
0.03076902523008293
0.05000391449726769
-0.010881245145304471
0.005415959633208035
0.08420565630803159
0.03336826137046706
-0.035112924590585765
0.016277377986016882
0.026145165828728948
-0.03620903498572182
-0.006735738846570183
-0.008351677242033968
-0.04039211211508347
0.014661885938899437
0.0016944962625194766
-0.04097967124003217
-0.005463291604692067
-0.025424638980583444
-0.02715875756518793
-0.025065524989288775
-0.023076544899963407
-0.006212531143154501
-0.04241613877713647
0.02902449744444144
0.06398279558893882
0.0015410219739487585
0.09630497070044759
0.055451871070327244
-0.04156162457651756
-0.04396326055451069
0.15651324457654983
0.022471488419053717
-0.011386595182232758
0.07997266773027613
-0.055248400199876174
0.025898837935323767
-0.05678693152743343
-0.09479525641427476
-0.02419778755694152
-0.01406920739032123
-0.04539579010878204
0.024931552186424732
-0.0399074715068888
0.06138231774075558
0.13974397901535224
-0.0398694391611417
-0.010048871665470353
-0.02173614881196516
-0.036944882106769814
0.00523717738906392
0.020152882398162965
-0.03541070002429815
-0.022903766854575607
0.06436476935146279
0.0275180204766281
0.014488696434062805
0.04377447438738763
0.032216191932700984
-0.03679510272318207
-0.024159308783701258
0.06420416222585446
-0.01151926111968105
0.005975625603789424
-0.03307663871964548
-0.0402841279941571
-0.10812158380627898
0.03198809966118926
-0.011617738698464608
-0.006856467041583019
0.020631113715201554
0.060022543867621216
0.01661676827931292
0.014642030574171447
-0.01391735794557493
0.03448062142098988
-0.025029884589970068
0.01423582757287089
-0.0056273500193054545
-0.001060673906587778
0.02913238856250033
-0.013399557335148853
-0.0031564314989441324
0.016078042247471946
-0.08221038384922018
-0.08713381122738356
-0.005967807854236785
0.04964570069861078
-0.11726936301050238
-0.10694885512932016
0.07514013432434263
-0.010447555442696089
-0.011130637360221332
-0.01354438148836424
0.010543040196887161
-0.007078115681338685
0.03711591688582687
0.051421543660791144
0.10357774141087102
-0.03697237166716216
-0.03496019124758493
-0.017598764243160772
0.032676563330383934
-0.0022154300844707607
0.0037280639523747895
-0.014807845664536027
0.03244374438892872
0.009374077188513382
0.04175752835053093
0.01019273848148207
-0.05445751153086121
-0.0054930500954774525
0.024048197111062698
-0.005452940449522393
-0.014980696690769263
-0.03256688542979684
0.022100118565230926
-0.001110614094697086
0.01786958191455649
-0.008850022198021942
-0.0013341278670732446
0.014087058576610028
0.04113343431520821
0.0365639489241986
-0.02463711599623738
-0.04498792983030421
-0.00671527299437278
-0.03188410096755102
0.007443356515243917
0.040764364726182487
0.02313477266841237
0.017561667492225798
0.03350782405940196
0.019981561433952737
0.051448855899867696
0.01929868410586544
-0.09861348410437873
0.01129461071787542
0.004851584878490264
-0.04810388664108619
0.004770186081895742
0.03782287138753044
-0.01930346687609943
-0.0034566723247442276
-0.009899012998428035
-0.002836686695652185
-0.018608505572407754
-0.02384838007041477
0.029771656515692007
-0.007787376454908638
-0.007273108903506061
-0.10591250825398622
-0.04681060635274355
0.00819229824750698
-0.004904266679330233
0.05436095334300205
-0.005064594889752634
-0.0003964507675970138
-0.01866780210645037
-0.010684633703187696
0.0753732386936292
-7.224106394634529e-05
-0.013568168547330766
0.011093113371709562
-0.01526552684547238
-0.004937725757193747
0.026014610433011485
-0.0071550895882268395
-0.008182178384942094
-0.003915186828619054
-0.005571478715033575
-0.022858200858276414
0.006700422809057449
0.011735433599876957
0.008322626542312271
0.017513347942595445
-0.00321174685644099
0.029134626532086323
0.021011626383626213
0.0036889008587446264
-0.07805902673987113
0.04695286945184737
0.12240059725194867
-0.02677291431954106
0.007963231776974543
-0.02977117543547401
0.006286562701837008
-0.01182942943639213
-0.04145005675096396
-0.016789236503401188
-0.015158130984190414
0.012115261934330426
-0.04561855700712971
-0.09941730924949171
0.0078952705667967
-0.0028704272932582723
-0.04707598016094703
0.03648805050487652
0.1826098773843781
-0.004348903137286775
-0.01835149814309605
-0.035566459280477546
-0.042273566929165104
0.05075248071618826
0.1538367881317098
-0.044248125658783374
-0.02421458117302872
-0.011472277101450507
-0.025516121525986674
-0.029918046186968434
0.005982658980586922
0.02750598683172956
-0.02279105128312236
-0.044478807035258375
0.019970167603036524
0.017733360631139637
0.0036075448996247734
0.013895942511048889
-0.0034064601077919295
-0.007243918764908758
0.043484937958989535
-0.09004092401145562
-0.06962959879309487
-0.025716461221138447
0.12205885010590357
0.1257761342168645
-0.003932410956188374
0.007372138467152095
-0.01147543460779847
0.04407776168603272
0.021084534024320964
-0.0369137184948227
0.013487793790167294
0.03332171693844448
-0.005538287306470155
0.003999470339451714
0.010686828475081006
0.005234881082038127
-0.012441675134374086
-0.011598303064790389
-0.007704585650070325
-0.0030255396909500045
-0.011511690437233235
-0.11013061305127024
0.00925448049854916
-0.13378932921735265
0.08488954337408974
0.061144094663481224
-0.030713286055104518
0.005830451265865073
0.025244738290760252
-0.01343258345240142
-0.00972582606007491
-0.14670737575764004
-0.04029100736304014
0.036717807652530896
0.00846209971879094
-0.0040518363035148604
-0.0322393633356642
-0.0009427860802750124
0.017574142958723706
0.009267276574705361
-0.0033600737411628922
-0.009655948278571013
0.0032120678008051044
0.02884431681427295
0.02373586529037846
0.018265881470200845
-0.010525596117351122
-0.011366646329592656
-0.006449269520235469
0.014246541025402322
0.012749500181714446
-0.002143809941502088
0.043726637655108876
-0.02216984291814397
-0.047945062556753154
0.022984510531102943
-0.026992202845637324
0.022166437293387315
0.019377943393490474
0.022392488227928276
0.005476537840934379
0.013626847103145712
0.0466077619252781
0.006410346346294636
-0.110275194439654
0.015310735730228413
-0.0021061428891109256
-0.017673634363149122
-0.0018125738592497313
-0.00812672913011065
0.03566447536856773
0.0024314944130806614
-0.028554214337313834
-0.026829462423125033
0.011328820835247637
0.04454063751262753
-0.0033088110775905968
0.012668128571561748
0.012511555826407157
-0.012785736758113618
-0.03809465229199069
0.016169006755690735
0.033375956371032967
0.02771772801701539
0.033366289829509906
-0.010444290964028657
0.0561493629497525
-0.003197866387498425
0.017117217974785503
0.0007212692249803919
0.009566397251244172
-0.03945979331275883
-0.11133450195443333
0.046534631061932966
0.03673332987216834
0.03646562197255251
0.030424723313138318
-0.007263223453211717
0.006314115324479847
-0.048794082510301144
-0.0530632462011603
0.042422347456967664
-0.013881151318362508
-0.013898310847592958
-0.005129716586019538
-0.01111706449442139
-0.008442047460907483
0.006362526220874417
0.022748286615822056
0.011630448085405958
0.004143812640618675
-0.012531217993538383
0.0035000689919232933
-0.008923924343955421
0.040702415486889576
0.054738241508936206
0.006647746066629854
-0.0040878786073241195
-0.017246079062321937
0.0025517879302952816
-0.04545525119958447
0.03500009371579745
-0.06857328612569247
-0.13655938139194326
0.015494106783527297
0.031252848817545795
0.00571102472516539
0.004937722694767573
0.013399383348020436
-0.015702764474201047
0.0037429876020476467
-0.07656112589147873
-0.05944618025613019
0.04650873441987066
0.05561354918723615
0.1810803979788834
-0.0007230368251908866
0.031340049837373096
0.04316539392823453
0.07397885755674116
-0.04574101997830374
-0.053244134491576826
0.01728056426057673
-0.022051635630260146
-0.015519817683842892
0.014907928192915901
0.008764066444006468
0.01652854386473557
-0.002351265136083667
0.01598850363963612
-0.02581719961000251
0.005306654966575032
-0.1644042210830119
-0.10961483995005987
0.006443142000850669
0.03854657966563233
0.036459107886421586
0.024610996860843087
-0.00657541573489537
0.016240629536191858
0.033815847750605935
-0.02471824293259077
-0.10593904437710491
-0.013537724683898923
-0.0025384356286936665
-0.021664450758014958
-0.014177587776391793
-0.017613429441557745
-0.004297597309307933
0.015288650190070812
0.01885399925312732
0.0005422015021696162
-0.12435206173471261
0.005505154863975921
0.00759082684661373
-0.02475699650016191
0.06324803814148834
-0.0025311760143966835
-0.07173585123182671
-0.033230077612742284
0.016029920251965323
-0.011323878575001122
0.05197608975651516
0.024023188807893
-0.0015154747133368056
0.06478945368356354
0.04193255898435861
0.005073088995569905
0.03094287414942102
0.0022546591575887606
0.08301444398650955
0.06263884575831248
0.021753035602798513
0.009462909011468254
-0.024762472273916415
0.10313305076345355
0.11766488357335296
-0.050830088945038106
0.005972975258488429
-0.005016999020304798
0.015977458996948305
-0.08777128206633578
0.007521549556935038
-0.002172918275946683
0.025151821680775878
-0.033379070051532435
-0.12390775394666316
-0.030220569922989216
0.037238337327723574
0.05592885824257771
0.005840532879281847
-0.011166697069226364
-0.040533209098542765
-0.005643407003020693
-0.060648571670682175
-0.016355254204220994
0.010544757681392878
-0.0010761511756366131
0.005386551627777827
-0.017532686126708195
-0.000743576804784917
0.015749810709559338
0.02356119669056279
-0.024825754298359065
-0.006038431402875981
0.00029370098314305214
-0.017773248360346276
-0.004346748073549358
-0.02764045640028742
0.020347260066636813
0.041497771070952906
0.013191402198085624
0.0035158615287085313
-0.014884020880326235
-0.019993436652056225
0.0033196701109498503
-0.029746720364453735
-0.000580671504220702
0.12492066486390772
-0.0251793101974315
-0.009902332539413965
-0.027163656162195352
0.043312180810735366
-0.026009899150253837
0.004353348265554829
-0.004042634795474705
0.028424550429999938
0.04270841541222551
-0.006573289379884279
-0.0065187003971557845
-0.025415974401636978
0.007262215404707647
0.014752098903751178
0.022937259989207464
-0.011682385567730132
-0.03937235583440207
0.05092348700922983
0.09201957240197384
-0.12877391920075087
-0.1389850808844413
-0.01020168896101977
-0.01841787291942996
0.015608469978318334
0.0008908685125139123
0.016925360497502883
0.060681783040534024
-0.01028516587466142
-0.008365273137762353
0.06836612393030109
-0.005908725008558789
0.011806506016474809
0.03187737377709597
-0.011188943403794106
0.053281184978576646
-0.003526445066760886
0.0008111711232790307
0.0265486333664468
-0.03919292273829215
0.02431353540644543
-0.009044659041872754
-0.15481454795075555
-0.0068198354867974615
-0.06986105897056698
-0.021651908655466727
0.04153213827605229
-0.015636120040327488
0.01576083050367247
0.0072946812745496295
0.004925844006561999
-0.01031099378077101
0.014303051160534022
0.0016549679913003112
0.007675697755452149
-0.028574134516605922
0.16844579682905725
0.006921865853590245
-0.005000204679556752
0.028237773230804602
-0.039661962889663456
0.030749960186031954
-0.0020917491101968074
0.028386240361782545
0.018373813355801922
0.012682860256618135
0.00962211999646574
-0.16251844680927433
-0.05114704712319466
0.004882307168659321
-0.03140760335554469
0.004188703491591468
-0.02091295704797459
-0.0037108464402315516
0.01077554208512815
-0.0010691518926271393
-0.02494268802307208
0.029208556796320374
0.012443219034190179
0.02951992651900713
0.02650717788206909
-0.015383149756281337
0.061133489847817635
0.033021898993345164
-0.015418259041442395
-0.0859148407858008
-0.03282786810613651
-0.018915266808878055
0.0008363438773511054
0.03856152279962954
0.011511273604253167
0.016870080947174335
-0.007508134675035789
-0.009412968618051408
-0.009460421304582283
0.028614921201947186
-0.02293539744330577
0.0325238770493084
0.004932974193827961
-0.1535582693082561
-0.025870083786111654
-0.04464094096791715
0.032281281180378034
0.10110186278016041
0.030970332602472204
-0.044035477861333897
0.04128655112849573
0.0992253773703976
0.0009080164713766469
0.038118846914872634
-0.003922595163071464
0.004139879876902737
0.0054498387139176084
0.06230978113783413
-0.007474758676819292
-0.0026203833351145056
-0.004943778287787141
0.004588056448367653
-0.04159959914787113
-0.030711723408426504
-0.027740570017798644
0.011699789240889847
0.011294394092859839
-0.019229277495319462
-0.022170968544135927
-0.0035162440613796036
0.0006954114765592287
0.0012758696656455855
0.0014939497156149872
0.015909071111349277
0.09476035962641885
-0.0017258497647185751
-0.08161987952987744
-0.010809642946950748
-0.01967633730658873
-0.01751129605143848
-0.03249160975107595
-0.004503401989815201
0.004640688248256392
-0.001624595012353507
-1.813988355556053e-05
-0.013917116956145784
-0.026170474819585548
-0.019129438443451476
0.02637803479745136
0.010758441651706205
-0.008936792588674452
-0.0019352811707056548
-0.009289110216347929
-0.013130990757306815
0.025655694684609
0.0016845689326081396
0.005312147024211928
-0.00859621422686424
0.05389828757683557
0.10677815579367286
-0.03556714266366994
-0.029785992422998196
0.01000665175641178
0.004344667829028987
-0.013808425632770033
-0.0006724585451735435
-0.0042211690841691156
0.016749460013436204
-0.012073739149395574
0.015771799181649938
0.009009834439160282
0.01163303929988197
0.041381563572646704
0.03229303470911207
-0.03626654777109162
0.007238438450497536
0.0034098554998775094
-0.027626511356934624
-0.005696010899496695
-0.009433863839717484
0.019740870597155062
-0.002351283030991842
-0.04184346492271029
0.011757612208731694
-0.036948586734123934
-0.017294452739612245
0.015729856736830042
0.04070416539174236
-0.03775325736176172
-0.010062900636895427
0.11361595239663824
0.056455162802012106
-0.008355181015257396
-0.0691149471639339
-0.031542632721051
-0.1618046681308896
-0.08423505502498
0.034015807299100746
0.020191582994283745
0.023495755799560154
-0.0009286295671528073
0.07551813571834684
0.0020161432796676673
0.05268642552394529
-0.00220516032171927
0.004636399725071351
0.0031827222269069128
-0.007620208559670121
0.0156399015604129
0.0012579313526958126
-0.006775953731939972
-0.01876615870968933
-0.008458205880687797
-0.0144925633731122
0.01009052995162856
-0.004329864817624531
-0.05164920501463631
0.01195568238772842
-0.036747673677223584
0.0998486734779845
0.08367163024106249
0.006296124545076231
-0.09203029608115099
0.02399819498914158
-0.03238771386199392
-0.06507150889816656
0.019125031323334173
-0.05329844933914268
0.04252736931744368
0.0006822868593984457
0.03282866653855375
0.03165295098358642
0.003983180765997264
-0.00867625327290436
-0.03429037584074018
0.005679063944621295
-0.028145887546254314
0.011461488712405515
-0.03477010094030416
-0.027270243060562874
0.016795055305015637
0.03384697706793142
0.05178582909660482
-0.02188913664933941
0.02923708441293565
-0.031693969903656555
-0.02602443975670428
0.009460009892112365
-0.009109051949902785
0.005121796049326636
-0.027521555970417607
-0.011401847782642426
0.013435819438443087
-0.015169655414334139
0.035279059433158004
0.007033482156065291
0.05891624910109905
-0.029949095785589363
-0.04209329981945668
-0.0060714866074567855
0.04750455045608675
0.007343957322471604
0.0449698579735091
0.03023865872157335
-0.0011943517345561695
0.03828684576956474
-0.046196584283339906
-0.004589218976855055
0.012938583305462364
-0.008700471946793832
0.010512545550831642
-0.02232160160541465
-0.036882657344878736
0.033891119745880924
-0.028180508162215692
0.0312428496327268
0.14834271753314698
0.06475383302180222
-0.003468214482173283
-0.10018817389461585
-0.0235964133785297
-0.02402736990311668
-0.060969730463303125
-0.013558164116772181
-0.0008441744413104455
0.029139392415328258
-0.018831669158690577
-0.008589641472050028
-0.029516560132904577
-0.004945054580692382
-0.09442296144450628
0.0014271853362336573
0.03283876530365578
-0.018621874941873354
-0.019395179019100994
0.01264727806718703
0.010644312600456623
-0.007277888724799682
-0.02659749560394055
0.007411460853648634
-0.03721640859982599
-0.028163301193970685
-0.05971814492486901
-0.06811776460892782
0.04231474127197021
-0.009486517172088505
-0.010162486747368594
0.10934611492633715
0.07902568557795012
0.019783837742815488
0.0515572123830179
0.018235650948679297
-0.006028414901254684
-0.015935108719527104
-0.00907716998622149
0.0012531668192687976
0.014079686607028142
-0.069856535284849
-0.0358546601164105
0.0675664490075703
0.0057096534056595575
0.06769821829004888
0.03354229406177843
-0.059362003218264806
0.02903264366809668
0.0074264725682567255
-0.016369194976505064
0.030259300461300726
-0.007983159697138495
0.03711594150297818
0.01028377926413723
-0.008752967086007469
0.027938577956438393
-0.015007476923727827
0.022114296514499313
0.02750624122296241
0.01238774060996715
-0.027364187825653526
-0.021987706839051803
-0.022321547094065846
-0.0007866952719651276
-0.0022717126322731344
-0.1301263363581795
0.019102772395009987
0.009932786761431573
-0.018296278646757966
-0.014034257276412
-0.026686902214673732
0.001300836394583039
-0.011619376970298235
0.008497779900771375
0.02787885495402442
0.021239103509331714
0.021535906276245534
0.12470225773699181
-0.012051006772926542
0.01360046974014016
0.023591681523407508
-0.014968360766960932
-0.06361832809521618
-0.13608149799707817
0.024729142441169534
-0.028649642614450712
0.006706995602232384
-0.007101670458968722
0.06625160257946405
0.01938742438604942
0.03528374725886571
0.05544220150014496
-0.019327307981481332
-0.06360595827834392
-0.09012148553936805
-0.0010353980044121036
-0.0012902115657727816
0.004714734225522314
0.038896190393931565
-0.000796710887457579
0.008972714335690721
0.02284190051897499
0.009012154064093622
0.016567282710575323
-0.02352094350113801
-0.022673248668456446
-0.07350949934135281
-0.004291878758050283
0.050744412042830624
-0.000800622822502765
-0.017244399778926143
-0.007008226668211879
0.046129906626285515
0.018580780736942817
-0.021976086812438737
0.02222953380817955
0.01638681128700079
0.01988884700065809
-0.04099571886236627
-0.00794860208274473
0.04065365633504745
0.05095037287178642
0.03938925007829896
-0.01522151165062436
-0.03080364611735788
-0.009314758589087415
0.009874040438757123
-0.02706689489796092
-0.016257864610624912
-0.033440987798164526
0.013001730833535485
-0.0026053313265930744
0.011994264093359408
0.011365096697497062
-0.013295417505088789
0.019186001520006553
0.006644785172017683
0.026520193875755674
-0.08651352137361294
-0.046526893060654204
0.037728587439045155
0.032191963733714295
-0.008810173987218561
-0.01748009593230711
-0.0121432305524547
0.030000316308515098
-0.007246312373146675
0.008542008135730752
-0.13688663684447852
-0.1019895704523838
0.2011509755636913
0.057124924680959706
-0.00238714314259771
-0.01825948614767205
-0.0078082594109079645
-0.01931623497948211
-0.017916132334330957
-0.006956494225853297
-0.05294770461393637
-0.020573741168884965
-0.0314881500962015
0.0018566452207340158
0.15393717080679747
-0.007684311947819488
-0.05775142549470649
-0.029658289840331486
0.008949081936544508
0.05699011702601894
-0.004781412365302871
-0.016082003280935214
0.02309921131203806
-0.01872561498696607
0.028769866573027405
