0
0.00034370491592006425
0.0031633922075296156
-0.004742338253052252
0.006502073685178937
-0.024313709364921676
0.0009713665452190253
-0.02895475762487347
0.007292864616088004
0.0165725156188905
0.015417784677690068
0.0175211213076164
0.07566992692587035
-0.05627597449003117
-0.06196337887800916
-0.021989134868000006
-0.03418669178181196
0.007804957684841249
0.003971874135085417
-0.04990227684230453
-0.018842567969136154
0.02776679052963184
0.002055519869441812
0.02830259476039819
0.017738620331224125
-0.014005272249195464
-0.03077251407378408
-0.018092944325288858
0.025446872582318213
-0.016849203491393967
0.009908154446226966
-0.009496622816997216
-0.0126063745737013
-0.013055978598470337
0.06344471573064255
-0.03284783222015184
0.008587395096925583
-0.0017837689235921477
-0.06520670439582091
-0.01841131884927365
0.03932850360624268
0.1899125732722699
0.006025325347762644
0.03225098088828715
-0.008913512170010459
-0.03734331845483889
-0.05812706101298714
0.09018762283827134
0.04038462458841382
-0.01145198555876179
-0.006163617418197222
-0.025146972039482088
-0.029625499988486327
-0.04971722474110055
0.03866581342904098
-0.042350691612875926
-0.06333222246548041
0.045474197789821466
0.04520730947804645
0.04483144248106008
0.07690874684910343
0.03625804357282802
-0.029083236459988865
-0.038877478316978256
-0.09075569606565902
0.06946230745233935
-0.054895230679537534
-0.15242836341715515
-0.04982605984614862
-0.10877339846332525
0.009991759805021025
0.15937716979428362
0.04999487704550409
-0.021292591928624875
0.03643770783229342
0.035735125009953864
0.015096762780627358
-0.01160422759911762
0.03273256739459261
-0.01864559965606632
0.0032247502130382157
-0.03298032965664364
0.008772050441304052
0.00926658681484992
-0.04058578726593043
0.027528794361132963
0.02957600422026844
0.029450498054476217
0.0269828407497691
-0.024895101469987503
-0.0003695799532555914
0.0009994286460137318
-0.016311592138048964
0.021334534907291588
-0.006027430418787682
-0.03227595928549794
0.004358295385061793
-0.01579058336497239
0.03251065922950774
-0.02176854695407787
0.04073443347638875
0.030457483500953515
0.0059363166832291595
0.03320111531035991
-0.0019685990853107113
0.010863560019103654
0.016675966132531108
-0.01786051304716097
-0.016066370545369496
-0.03399122316298271
0.034131174145057536
-0.08095783739192129
-0.10392499308365839
0.039791141468665935
-0.07925186904200694
-0.031133427949247675
0.012026426642795109
-0.006040874325866004
0.01024971023561217
0.06356856696245937
0.021719869770965173
-0.015334745411001788
-0.046337032850319204
0.0020657103430248786
-0.014460756835280565
0.027181090541421815
0.012450012700164527
0.006732601899304859
-0.037895839913276295
0.008734930068563601
0.031613615630122605
-0.018634685194594932
0.06322878040552245
0.04077448086398935
-0.02691335436205888
0.040211881384120435
0.036436828194296625
0.04392356136671334
-0.009841141785077955
0.0005436635475260768
-0.014834047762532927
-0.12903465810751344
0.005627838754647505
0.055664087944870426
-0.025150944637128962
0.01261555641640116
-0.04586529102206595
-0.02065065028879248
0.03409481064550199
-0.02320360027621509
-0.03232155192094767
-0.020732454685228736
-0.12167285637746626
-0.027622581917141877
0.028827901850130257
-0.0032664615080005657
0.005856278044518469
-0.013470709439193798
0.06239163862543009
0.08565638385046138
-0.029733473122534368
-0.018448537902976476
-0.004652953625136561
0.027739298082372504
0.08551327717686782
-0.022285266776005397
-0.028790496461652212
-0.0048578106752283695
0.039690619620652935
0.0634091494096778
0.021888282307526014
0.07688460644243177
-0.0397310906452659
-0.08381479318004412
-0.008030057823372048
0.007012937531262365
-0.005480473385890802
-0.028014436478492753
0.015000163411944123
-0.028554315945721467
0.005593378777827525
0.0024972607055720212
-0.034866291867209694
-0.011611206939752363
0.012620736547434046
-0.0019031929686160018
0.012267278770775367
0.07365323543672078
-0.001732169753693572
-0.016072789116525925
-0.03577243741458387
0.06371248205437355
0.016997334968200155
-0.025470490392932643
0.02551989527142856
0.0013503344265291867
-0.019233992574841385
-0.009631436677742486
-0.020420785743910024
0.01823370739362381
-0.005836009156755151
-0.007453269773806352
-0.0018598371664182312
0.044440877209119704
0.12273787665663782
-0.007760456083466367
0.04216495469499563
0.02348946321208819
-0.015873308567132555
0.006707503387374665
-0.08028772776685565
-0.03607149544341457
0.011791667978748475
-0.060322533817609006
-0.05703896030657284
0.015060922896529822
-0.0074182434145216814
-0.004267870229532985
-0.016782375861728226
0.02423884249111809
0.009137381595121964
-0.004070313320442783
-0.006196180091846765
-0.05648498745934113
-0.02638159460183003
-0.0027326051694501127
-0.028067112934996422
-0.015862102936043405
0.04105431295100983
0.041125262856765946
-0.011153080620745947
-4.813928064269023e-05
0.026868938437300604
0.004161050752991202
0.008760601371832414
0.027848079257822594
-0.04003178213635177
0.0178754557189785
-0.0034360460352218843
0.029718972215987984
0.050299642189576936
-0.008546013479952782
0.007053641869171896
0.005565524797381834
0.018380548686908103
-0.043360485718391246
-0.08594463736090659
-0.0009395445890449506
-0.015693171920915024
0.006384223937554082
-0.0043734793292591854
0.02826732747981536
-0.021914727830949214
-0.023328999436696075
-0.010691649609919182
-0.01581351918465759
-0.022529006569167884
0.05280792273969741
-0.05576632692943829
-0.007731215398912436
0.025412932632544107
-0.012811782529831702
-0.013852103279088222
0.008421212316945903
0.09426730589300765
0.03952999024039891
-0.0031229412258310992
-0.035756955868158226
0.008581190493160255
0.018586744376297266
0.01537407360548513
0.009275582872791956
0.031744449781504154
0.03537426738318004
-0.022453841670253764
-0.008244810500283282
0.021154542790006257
0.00805256313234235
-0.01521309255690868
0.02338951480561599
-0.11364543661816737
-0.037626105465078344
-0.03326280935567134
-0.05124427117438311
0.028985932168646342
0.023307614559551038
-0.011467506386860067
-0.025364038777467787
-0.03352585565291227
-0.003715407854803589
0.016679956113203397
0.0034292582349905554
-0.039608945426874445
0.15492772333103016
0.04169372904128944
-0.02071543023211422
0.07343637976386583
0.057349039292389326
0.009819580125978666
-0.0029904956608826044
-0.016602171405803626
0.07145271459989062
0.05712756156476565
-0.06619769694158822
-0.03172954604280353
-0.11054333412331556
-0.015773637832135035
-0.013134404818533571
-0.0299760787012107
0.008736696577091639
-0.019848658647978128
-0.040102462998370225
0.009399556370760878
-0.016636466549350887
0.044276116332825695
0.045152144318702854
0.009810724325667344
-0.0024607117208404004
-0.06827903915884805
-0.10625526762053931
0.07759096239921419
0.20723560908441008
-0.020949755279097558
0.008987856876555247
-0.03057852392126384
0.02456723328724835
-0.042149131700474816
-0.021284829904187383
0.013170782945035452
0.04205300892737064
0.018371951238877766
0.00885786078621399
-0.012632637312935461
0.00012212604920049244
0.004516174599976226
-0.013547904648456304
-0.01397458894437672
0.02351702245187536
0.007039536510041265
-0.051586923017797846
-0.025574676391066982
0.0007071656132743987
-0.03035595038300505
0.03674721514316046
-0.020805949327154568
-0.05265173196840659
0.004678989285711338
-0.023428534485883747
-0.03866564775088204
-0.04270740797209976
-0.165866177941887
-0.021105389061993947
0.03723964655920492
0.056547143070060445
0.026961929683410848
-0.009865343233937217
-0.004955443688885732
0.0010410313829685891
-0.002825353084074203
0.037592202790496645
0.07611384228492421
-0.0037948744638004474
-0.034676321140945716
-0.034386600820150194
0.039791174721944864
0.023741232670985147
-0.03084712160341524
0.012737670719165003
-0.009934037377706238
0.03166632648007524
0.013459757037892074
-0.012424806523342982
0.0085834072965929
-0.019899457699932566
-0.005141095568444388
-0.007550797850125649
-0.01983837395947822
0.03295090479138722
0.02887130929989612
-0.020661431246762868
-0.030775186150646762
0.006819434657337473
0.020078428862600473
0.12521965260551232
0.10792275613312771
-0.039735252349066226
0.0596520558510047
0.026263562946537623
-0.03227576385456748
0.0077133930337762524
0.01920006990726263
-0.028324200115740137
-0.010211282811421816
-0.024030679914897813
0.07874546436563334
0.050897291952169174
-0.027749705219653444
0.013397526977639867
0.015284146590622605
0.006072046177852655
-0.12207950321666707
-0.07049891014345373
-0.01334439308936307
0.006589348863517356
0.055986872165113784
-0.014138914024195311
-0.027493504095270745
-0.12674132756968343
-0.022826663581540757
-0.0078112790359472495
-0.04280704907488049
0.08522474713784872
0.02681745037383523
-0.026021907293800245
-0.008405986878496103
0.013898929217730309
-0.08363022607950894
-0.010594689696544705
0.0029666563828794766
-0.013326906845528851
-0.05939910008961401
-0.0360595454614312
0.041635995835483365
0.007210723787798947
0.12430826571734006
-0.003032388913170327
0.10704336489658385
0.08065956820628775
0.01692177198385309
0.03676890922967766
-0.0071627252369512355
0.025869178254903286
0.002269378701988823
-0.02603551963016628
-0.006523483619621426
-0.05441011133650103
-0.1322999354722595
0.005162312756560002
0.046670432160544874
0.03477009334222624
-0.025716389133548147
0.060617979087747
0.03823408991356933
0.007207783582493388
-0.11023577083437258
-0.03832528698259622
-0.020561100798433648
0.0035645312967758145
-0.05059753758200082
-0.01702310385195567
-0.023898041652919148
0.0007391336130920522
-0.0006846386268591042
-0.021071164348629115
-0.0073373559635911455
0.010722391626742248
0.03504217825297386
-0.011964338884460461
0.05076655948916585
0.01651168333127791
-0.01745138823276999
-0.01810000210706683
-0.0032278464016597844
0.03235204636034454
0.05732682429549638
0.008632962664511887
-0.0056458366938104895
0.020206183179610114
-0.006255358807197323
-0.015469342139710192
0.0015275003565225595
-0.007350888736318492
-0.031559657149803994
0.0004411965276366428
0.01307233715632598
-0.03126724283870034
-0.04638361521011267
0.04447126173958283
0.01155143880143336
-0.020193372443900966
-0.015581258811904563
0.002712369350412928
-0.030936461791003414
-0.06156114678423632
0.014617508619803262
0.17324383958359899
0.07741631730989809
-0.043114109542041965
0.037163750058803485
0.009916954960153332
-0.012615559773111257
0.026701172987923585
0.03357821083046781
0.013437437956790066
0.07075376625494824
0.06789594719638732
-0.0019325722882327417
-0.16135928613658282
-0.008699614031923191
-0.0439850800299842
-0.006213432286392087
0.03267096949033849
0.0020484431632373018
-0.04377033356934973
0.046437413542976806
-0.02286396087648575
-0.024858937591799087
-0.06308607039419452
-0.05804551353978862
0.0513218410798256
0.05096814957402321
0.013448178771503548
0.03910818840356793
0.024657026891986056
-0.011312118349779009
0.0460571399244025
-0.17002296479629997
-0.15536781917577636
0.03817476648024218
0.02867908034491912
0.013740824081172892
0.018808532451929816
0.02660658485316489
-0.009040827120675358
0.018278177757348676
-0.023413061501906085
-0.008300843522776574
-0.016380666793451095
0.0023535950865903833
-0.012056748375662734
-0.010762380848060887
-0.019221165204088345
-0.04589494221849443
0.023760515486115803
0.04052453645764009
-0.010356366301399444
0.01836818958813204
-0.04691104435859375
-0.023914642571702577
0.01360455830236743
-0.020668815409921625
0.024163164573962594
0.06048123965229582
-0.025499316265459784
-0.0005295594953195007
-0.007402864211838376
0.05234724932696119
0.02742296493591415
0.01680282951671375
0.054008041996812736
-0.014581145075386274
0.0077538056865689275
-0.007539326995701723
-0.03719205093782641
-0.0036980597713435074
-0.028839102242467288
0.002328631058231947
0.004526030663069202
-0.013368909396285742
0.049848747188681194
0.011399412107736463
0.022645987742711024
0.013174653424856287
0.0012581503034304164
-0.0024094364690738566
-0.025800981975876748
-0.04494588410535847
-0.026445418786947443
0.015235495260232879
0.04337007263276028
0.021181706558081215
0.016358455498922758
-0.008015411081071424
-0.030205726796922242
0.027927282924840608
-0.008394526957051923
0.02251197318290204
0.06332157471558321
-0.0652632638768715
-0.020343696714479345
0.014955003130917573
-0.012414765999560465
-0.02257765247728883
-0.0025092072927804334
-0.003859709721213895
-0.042170942507825104
0.09463531860816109
0.057848016894739965
-0.04046973033331884
-0.005064793986974
-0.0008346608518108495
0.04264318809310782
-0.011461485265052003
0.0034406912359309116
-0.019624641525125646
-0.06519685537723009
-0.03846664414733818
0.0031614170552708098
0.0001255250814816127
-0.0031320853556748825
-0.02541779542571901
-0.018196949916311576
-0.011678388054429013
-0.01979335873825334
-0.023227222193664104
-0.012455941427370961
-0.02096405948351019
0.0384063186462111
0.08181358929058041
0.018375508127294275
0.0070479149333625025
-0.031158226093322097
0.03293750945425643
0.007570205357274644
-0.02455112411380554
-0.0029578605070065614
0.13742496902758994
-0.05449834142924764
-0.03780503764922309
-0.007338409919943229
-0.003639994346745371
0.011670649226832575
-0.036308866624922116
0.014601319059737626
0.017049042089867145
-0.017208603796766465
0.024997772626729114
0.04574504651732659
-0.04589958749419734
-0.04032266058220032
4.0365070700912055e-05
-0.01567559737467305
-0.0009823116936699813
0.0115419428827883
-0.04103725761766869
-0.07220704463249729
-0.01792362412435057
0.1185949884659961
0.11622593927959829
-0.027099903625255443
0.07487284513890917
0.015166359643599919
-0.006035025064727917
-0.02974855464292926
-0.0005879009602819094
-0.015779989872253902
0.018603445603385456
-0.008930015419751306
-0.009651091196724327
0.011604566837238183
0.05237809283982421
-0.06318788217667073
-0.04067454179178721
-0.026175691554099115
-0.02546821928566257
0.023155385592851307
0.010624708848263728
-0.015267491510500789
-0.005491502036312936
-0.03746695282408806
0.01328444645489691
-0.0009930407512121
0.022227268221440073
-0.09140106762355904
-0.10905309206280266
-0.005565613896397103
0.010936963230942644
0.04812448615270364
-0.012487649819107875
0.03464627117555091
0.011246190656172095
0.01461586759602329
0.002989664855660554
-0.026234415284103647
0.06540347605642217
0.18153462480324467
-0.06120725117002506
-0.030331159674552233
-0.005835214034270733
-0.006763231728390068
0.018281884029469883
-0.00933499732052343
0.08414126700396825
0.00978214729507166
-0.0338757451389142
0.02275426972766105
0.0030577904724904408
0.005894800959905426
-0.016972480683330505
0.033257069380895024
-0.04440517530585275
-0.05683445625326489
-0.019476852689683834
-0.0002162391448601084
-0.014447510382630499
-0.11972009006331921
-0.021142728898030972
-0.003440413395921032
-0.005463660155581228
-0.03853122844908303
0.0038121094528504175
-0.03288646809616591
-0.029535299116662587
0.0010835125623449469
-0.026231525385388352
0.03205487702544131
0.03520488703328164
0.047361693860264016
0.132837574621748
-0.0008860271352365823
-0.009521839620926602
0.05570056366781709
-0.005845876607461394
0.015224666457614803
0.03388831963147484
0.02594718505037892
0.0008219114372123353
0.025114927808628916
-0.021752361579829255
-0.05230240864178417
-0.04719012632904388
0.12011352846338123
0.06139974590443883
-0.04319437669043105
0.007848275994451922
0.00923955106214372
0.015494055459040776
-0.03504133880592971
-0.0060827742247270096
0.02381903582561026
0.03156285255096056
-0.017366803513834666
0.031236390145033634
-0.158121703709833
-0.0824378664386492
0.019665514641905902
-0.03011357009406516
0.003654917432679178
0.011603027865571216
-0.007925882645307518
0.035327424050036096
0.006218763164890557
-0.0038361462899036
-0.00791570215934764
0.013401044220239754
-0.01699240184094714
-0.03571068015247312
-0.1004267315800872
-0.0014178212965932063
0.053074002084616934
-0.02969016626174382
0.03188288726031446
5.257748006935947e-05
0.030318710599298946
0.016358934864063337
-0.005972868280233041
0.021856428666172673
-0.02735229078160456
0.005095698153142125
0.020044619860418476
0.05933863965217403
0.0011650231039952471
-0.045079842168784294
-0.009894806283945078
0.10810487158250408
-0.00793687729386704
-0.016869336117033364
-0.00800930341034572
-0.01533784565640596
0.00908028314587258
-0.029095915270397923
-0.014719186786260267
-0.019907504787230003
0.01637767681554265
0.07135470132516464
-0.030648784130350156
0.020448956419352158
0.03349909040413364
-0.00014858238200896143
-0.01898093853506677
-0.02913947888018611
0.01740447485480972
0.006551237087050253
-0.0013876549470909969
-0.000808498172923267
-0.027285605338739798
-0.007294575433329149
-0.01441844004332865
-0.008688535392852892
-0.016444908070914806
0.00048765024901671416
-0.04994857922203514
0.01893417697598991
0.0023259457541362446
-0.000923609012814289
0.01024866621349594
0.018809479142188737
0.011890116063928553
-0.02705804877507759
-0.01236719961099349
-0.004970429995477109
0.05312743248429049
-0.04629213009363342
-0.008007167722989329
0.026618658911582518
0.030725608088525907
0.03200072720146142
0.02559511940820046
-0.028314470251269496
0.017230130462444756
0.016523559459560643
-0.03807981887823427
-0.11396393640330002
-0.05305679739395658
-0.0007769538116942056
-0.005757423979609013
0.028283686159016868
0.058989000479701285
0.030102666789456202
0.015384160432700621
-0.0037268431908617002
0.007255581623008658
0.01785888916326253
0.032904043868700925
-0.026456099440609556
-0.021789047301442804
-0.03891980744795815
0.0016351828128642238
0.0224857681519165
0.004080970767447228
-0.006831592203706246
0.005402892034997268
-0.007798167071290292
-0.034069843203588364
-0.03440287924938369
0.0253252057640968
0.02039284305914336
-0.01688848689075188
-0.0016544514948523081
0.05213202446432449
0.007438355896872759
-0.012819700507816383
-0.019862011542858934
0.04549082758114013
0.013063126695734414
0.029666358702806202
-0.004445026768415247
-0.02662458249427951
-0.02031525022114734
-0.0071413849044105054
0.007617340040463516
0.013673594247756255
0.015600706501970804
-0.0383519474357266
-0.02056004035822968
-0.06320575554290069
0.0750935787443485
0.06920242073749407
-0.037497698502151906
-0.016398157192941458
-0.001244700094303479
0.029478973601088067
0.08128504110750435
0.015825768771808708
-0.05544214345778841
-0.0677705959545602
-0.07067928902901785
0.02209344700332962
-0.011920806479100248
0.051040979686282406
0.031232873028937465
-0.028780349521164678
-0.03409633221345976
0.06390547831559938
0.011780361865871709
0.021642671223825703
0.03795790541595179
-0.02421542689604939
0.008441034898302223
-0.05998237583087611
-0.12253209137078425
0.03791874290492888
0.012268676371422996
-0.022986367916785308
-0.031062737495119366
-0.006496989945658085
0.020412889035785652
0.014021202708341238
-0.01159563741277016
0.03547280203806714
-0.0025536603835245595
-0.018018841145335075
0.033264317523957226
0.021501353207020683
0.02036801592882116
0.007584792262821121
-0.06695188526200316
0.06031563618237442
0.12546266742923562
-0.029761186759715178
0.033742857558673255
0.030529183092544373
-0.012524755240514548
0.018693304631070516
-0.02075127960184141
-0.0036181153401102506
-0.029160488875433134
0.0742968777745382
-0.052950510530435
-0.04524026329929728
-0.0177824863433893
-0.0045962956090147495
0.015438146450032263
-0.016249913838832935
0.0033156656403162095
-0.006780398547892319
0.008428058491266401
-0.025412973994921824
-0.04722336610777235
-0.016767482540516656
-0.06723204246273266
0.05468926058649955
0.03723679122457048
-0.035385731516997726
-0.06501473494809427
-0.08742287058069795
-0.012658341024431235
0.0036295434696932633
0.005694867935167786
-0.005382206704485781
0.004532277042824238
0.03557525721983089
0.007096805064825483
0.05539878829594106
-0.015468805356423155
0.01818369314723139
0.02415126311714183
0.06046472571731159
0.0195969002103622
0.03508802046875538
0.02266884558530392
-0.004903718503774742
-0.02907565539778874
0.014853428702643168
0.006619181487421858
0.027368898171053688
0.025283537385079366
-0.04373677733687546
0.017995008351405283
-0.014835945132123973
-0.016988986145229347
0.006268665041824104
-0.01491016272398582
0.032202520676653176
0.003680370608351963
-0.04528123411003248
-0.03645963198324409
0.02281991306407903
-0.12191889865002398
-0.08575909781920438
0.03566465188778885
-0.0007570347886706423
0.011012050221546712
0.06300486602052162
0.09125719473974711
-0.015350439903406012
-0.05460813871508401
0.02468910891475102
-4.574561325734594e-05
0.005584368420232857
0.03208844208673846
-0.011198442248269701
0.011439007665003179
0.013004088790330704
0.0022596077628328015
0.027870994272973938
0.017185651890846535
-0.01113691102160504
-0.029500047314373758
-0.010544311065383241
0.025307267040019923
0.004917665703291424
-0.0452692102379086
-0.012253416688841893
0.063960028995926
0.011689295749092238
0.025374926841349583
0.03203111398863157
0.017983641757660554
-0.014646084294276504
-0.0035015570162293566
0.03524565401690934
-0.07338564208195235
-0.05964443247949139
0.026728799698574505
-0.013943375188381029
-0.0668060455695302
-0.01144219655370776
-0.004498694538889813
-0.010471915147097869
0.017408842122744853
0.016304874637008172
0.006562126126978252
0.008656134205311335
-0.0210479293442114
0.010899712953581267
0.013757157663705704
0.02686469167488948
-0.01955989679845405
-0.040860417755118034
-0.000786082775770166
0.02789257382752531
0.026472427008741473
-0.012825326082583681
-0.005348340714288952
-0.023132752965433816
-0.017375700012750604
0.05180512444072669
-0.020946769181547403
-0.11048909851173244
-0.015703028775051312
0.011817552759626012
0.09842817148563109
-0.013173431109751685
0.007060558490272866
-0.01612041254510357
-0.02299010489693127
-0.03161218893333829
0.0030391667689991073
0.029160867882837848
0.026565155834411776
0.01968367730581938
-0.08744544384765268
-0.007712704068480752
-0.021591071557816626
-0.17333840365930026
0.11511268005345855
0.12119435164024704
-0.042823864658197895
0.004272150156631767
-0.11459387468648263
-0.048987114064693395
0.13738278470435442
0.07713161904145423
-0.009913819496896173
0.024077421434127118
0.032722985688617624
-0.01781137532631607
0.006070932035697437
0.12556325788592226
-0.0023689902113191606
-0.06624110332374801
-0.016864055720893393
0.009683567483657793
-0.059575560580724905
-0.02272669306176413
0.01073006644779127
0.04343954021130733
-0.029619660872855978
0.09359132872426094
0.0036710844901377882
-0.04080654361461138
0.06661409346516917
0.09439452973701894
0.04528316265101456
-0.015369366161160664
-0.22166670138103958
-0.1125600951668161
0.0024526255876741745
-0.046065178831390566
0.09756290182289458
-0.020877385771152848
0.023660669195617563
-0.021143344261359664
-0.015563621908495478
0.03124481419039881
0.18956849364597134
0.06568324451287329
-0.01846248628976471
0.0475224606399596
-0.021607536992158134
0.009123837084402668
-0.020495057159929043
0.03869463752512739
-0.0005244786178387677
-0.07119691618542892
-0.049663750049218504
0.010327324927584905
-0.01756715607331825
-0.03517749666311958
0.00772664329930633
0.005549416127710473
0.0023457475259788725
-0.0111387321643079
-0.03301598980752961
0.023500649249861286
-0.012497129113546359
4.522423885518969e-06
0.06258659891583468
0.010063065954047198
-0.06253256475087825
-0.0657123403146443
0.018569054508916986
0.05010945432844209
0.02391958567821865
-0.03576609326597552
-0.019446134401667755
0.07044549253296313
0.011956504642106893
-0.0063657103718577565
-0.007978748809296114
-0.004477000249577646
-0.014570449720665828
-0.04577928129613646
0.08946769105689062
0.01748471250462721
-0.018107956156964266
-0.09338072317098173
0.0018202785365130404
-0.01628346147257846
-0.13966102499192948
-0.04727232550494847
0.013387197052015529
0.05184925332047344
0.013094600911455884
-0.013180060338113057
0.021092686159706626
0.002587828045501811
-0.03767013981405521
-0.0029984149389411328
-0.02646913844044503
5.840042035441907e-05
-0.021394377050065586
0.0032202703048688722
0.0009712253123245857
-0.008999975662837367
-0.019574937217685055
0.006825548225672053
0.015147442609985951
-0.034924880571652786
-0.003538295325517151
0.033695268101724137
-0.005033880235558259
-0.003800447815914809
0.03698188375833034
0.14068866086409904
-0.004700451607371685
-0.012217884056017305
0.03461221512142223
-0.0037709692232297263
0.06892335449910889
0.026115629595952646
0.003456563229197519
0.011619216511816324
-0.007266585187220972
0.022702508221095045
-0.05194625508866854
-0.059592486534008685
0.025340775828138828
0.09065112179563692
0.07991886967787909
0.08019269476689622
-0.014243478831670089
-0.04543006705365557
-0.05116353098180937
-0.021490050079634067
-0.016244840688334518
-0.051635891421748854
-0.00827139912642147
-0.02183676613957315
-0.03982744870368108
-0.015949849706742916
-0.007906827175647009
0.01837940623638744
0.042462090556575564
0.0431370900102193
0.046059536351168114
-0.021114663530948756
-0.008928212535279579
-0.043812059733311384
-0.0022116711515413104
-0.025276035825211266
-0.07192181331053198
0.031245657863574663
0.003275208145009138
-0.031150409000833077
0.017916937148329995
0.015015913142440643
0.012610578084365798
0.0007538675662316132
-0.1049159365469099
-0.02146619088967089
0.018393096441600858
-0.015601489880618326
-0.03748047044528206
-0.016751814006264656
-0.022967255224662076
-0.018685352724899542
0.002340999615875158
0.046896333789100214
0.045512694866975234
-0.017113658578053064
0.0026778945607263587
-0.0308806569768658
0.05241456412645107
0.06382431666841863
0.01231376596487993
0.001967757401533389
-0.028986417429661116
0.03599174760945095
-0.025056548001711598
-0.01848577427263961
0.07383207469175236
0.05004291910110152
-0.005450318638975831
0.03229134266021934
-0.012381431924399264
0.00912460383216176
-0.012222968650239162
0.004619947580312715
-0.02320407044581179
-0.03419386523517415
-0.040793014637133786
0.03741522622614763
0.012373612178369837
-0.01671426498167539
-0.027364719169795847
0.017485110099698883
0.005316247972287456
-0.02918904917096216
-0.013145950703467616
-0.017609066303823306
-0.004767531064465153
0.04984007827460949
-0.02107250272628451
-0.021123211313231267
-0.00028107133723855775
0.03622867378132111
-0.01493669191913869
-0.03690614363351019
0.024868418850964056
0.030115940736585398
0.005498600145541759
0.02181071179105291
0.0029361235684859746
0.029233901214787802
0.036214992217538204
-0.015993197327649755
-0.0024248569173436255
-0.003072842024600683
0.0041177294280579525
0.035756045472256574
-0.00020946208211846122
-0.01875372959634522
0.0005890230363908036
-0.006281765854240737
0.004357457789925929
-0.0611236373622027
-0.028490276141733932
-0.025082626942626522
-0.0036143691562603715
0.030660148507480674
0.017096494385861315
-0.05019476804745341
0.014223965206520865
0.0314696648276832
0.025492531177714054
-0.04187267486735532
-0.06783614204116406
-0.009810392011027916
0.03392668248436482
0.03932453641257754
-0.018201314511841996
0.015834628103172783
0.02262963189024117
-0.0035362170792905224
-0.014197075658712222
0.02960585371617404
0.00498319501044801
-0.0015955468667086829
-0.0008403800120664321
0.006424443345595005
-0.007802766496381916
0.04318191926821543
0.02412102310023452
-0.06195767826714728
-0.03853843915517379
-0.013328353688322846
0.0022538269828078607
0.054921851001493605
0.0007476328523674389
-0.019249726740374493
0.04809301069671526
-0.027679849971807474
-0.026499143515066673
-0.021494621766495407
-0.022422616952063483
0.01804276257972489
0.03453809044206921
-0.014760695396655595
-0.055480115633705446
0.017843631530429026
0.020341985316170364
-0.006902777220396397
0.0014973124556991815
0.008219241242948065
0.03270419994671312
0.023864785914344218
0.07303275565484708
-0.07612747458567969
-0.13538714990601702
0.010153643419637587
0.004889531307444202
0.052930220867588126
0.03206736175564956
-0.029730722187420417
-0.014943911543743657
-0.029592440112651566
-0.033168834888260494
0.011605261878321354
0.012235959373240625
-0.019503297308828844
0.053898298019417326
0.018346309047146042
-0.0133258390320456
0.01976421273665919
0.017420545227724092
-0.005021974214811611
-0.04675573350417562
0.015586365473497718
0.05990245125755241
-0.013066084961441017
-0.023262371680386657
-0.026617997322704486
-0.019505726957742744
0.010664842210144314
0.05078344108222669
-0.0347609482878565
0.13319840392974056
0.0508881937548574
-0.1154223816273531
0.015280348568613216
0.01263672046215484
0.03287947616508593
-0.039550831319155134
-0.007601383142204536
0.010404977499224295
-0.004841955869621718
0.01131937071952065
0.008852874055903723
-0.01089888231737516
-0.09699240218763648
-0.06812494986081784
0.046726583908837396
0.013710217949186318
-0.010935199637729386
-0.02141558004537266
0.04589341561601658
-0.0017017302681744302
0.01330091797132263
-0.006286692826514802
0.003035356358748938
0.0008942139409152757
0.004240390206829923
-0.0004575296794895828
-0.031144288674859306
-0.013158929271320287
-0.015271215009602655
0.02630097614237801
0.015750458659535668
-0.015952217968914967
-0.04893298640382058
-0.012948807167961223
-0.016824687519253385
-0.021246716305548585
-0.0251133482573167
-0.0023228920894699462
0.025544000562973835
-0.009231273674354683
0.010399917150353025
0.04681979556431164
-0.07325258631502138
0.01222125389423873
0.1856181874254919
0.088414263866394
0.03926435926032573
-0.0219986358579972
-0.03384699488819484
0.012226201056387404
0.009036795908784994
-0.028704034117886978
0.009561322324173022
-0.021305607672585148
-0.0306131545842362
-0.03425037058531768
0.03794730593643052
-0.017947776544731807
0.06562439881960712
0.07628847144597448
-0.011839935821451868
0.016577965018377105
-0.11716446147912526
-0.05656357846189982
-0.006102147534496016
0.010797902359930035
-0.013260944619644523
-0.024338648108028053
0.05532356015725212
0.04571846655239758
0.0392884442660981
0.055821170141375935
0.008712076770539857
0.060911930157800456
-0.04254540232231795
-0.019678563239001686
-0.1246331584398922
-0.0674539986254106
0.02365730254858674
-0.02595039199003578
0.0683575951800798
0.01347320267483021
-0.029464464047577212
0.034961665085131335
-0.01485219914520781
-0.11056427654415886
0.014743521629806345
-0.04516847861163488
0.0037523713467372305
0.03733552357220289
-0.005277113116052673
0.002310239228395788
0.007211689544048155
-0.0249993021937472
0.0233244588830852
0.0031622184192635003
-0.010925298137612057
-0.0043765646143372194
0.03523757524020181
-0.06099917610242663
-0.026293900353281698
0.006290553083720646
0.116923967329251
-0.008184666033879429
0.015325530355690875
0.011446272792100995
0.003260973694055731
0.019471686806406367
0.043106456783305214
0.02316292792622431
-0.0377051970619417
-0.07554279354517544
0.13120106049151298
-0.08210278659169146
-0.1830319011047911
-0.023508496749712057
0.006146928302258845
-0.05268120905768954
-0.03303478001657463
-0.0014454982905452007
-2.3422492848629736e-05
-0.03408381643319085
0.08786353389651505
0.09592458192708099
-0.005828583074825047
0.05151469752654423
0.002342096071878347
0.008310369149147448
0.030253176810230858
0.0234513563208018
-0.005689774860914582
0.00566282465196054
-0.019996063456903215
-0.012476628966333454
-0.016451040275304016
0.02450303277926103
0.11234269521555214
0.06713672927284149
-0.05621511386995432
0.02119912966972779
0.0619270100114747
0.0033195074335426364
-0.019191926693796883
-0.1359406445007906
-0.02296822774799887
0.012065416466527477
0.0033698783211552805
0.03447541401275492
-0.016023001236549934
-0.0034133278167866846
0.004408442769659434
0.011746003268598485
-0.021627786901118978
-0.036405490914458875
-0.04158298898247706
-0.040289978395576916
-0.0381735044414609
0.02477467488554043
-0.004926272675456733
-0.007994743880443588
-0.11014742190420367
0.03395803996574873
