0
0.0411965526474805
0.01145891752071147
-0.025487512043152222
-0.03162624548827167
-0.03908620723211866
0.010151051455326257
-0.013515712763228013
0.0022842450064742828
-0.0625342008843788
-0.060865269230538116
0.04313510412363068
0.0786989783997562
-0.011426807335469852
0.04384907672417284
0.058291339771180874
0.04132109376171968
0.020113680238899683
-0.009291932039117524
-0.0167466664965636
-0.028409367507554874
-0.039457010939127804
0.021485720464907133
-0.007624892612252596
0.01384421754740287
0.034056345580633765
0.02900291584546304
0.03612890201622612
-0.02441957901503635
-0.008947543494983216
-0.009954970662021475
0.014577218515921513
-0.06765242273776143
0.0011097750898828942
-0.02360528945218544
-0.057669230913385924
-0.004561001673929914
0.006884963479016992
0.04667562083317107
0.015328243699449504
-0.01467666439183327
0.035505019590590145
-0.01674648669079435
-0.042551651860550134
-0.019859988919286295
-0.014072335151925694
0.12056301687416254
0.010454018666771675
-0.013280274456716685
-0.024624565615938447
0.014114599311560332
0.006113269639927939
0.029832862365822162
-0.04587138426718846
-0.02422746193093118
-0.007523464866902441
0.015552745926306927
0.012294722567275545
-0.014885021323851201
-0.12222446695921539
-0.027440689065403666
0.011995618233620777
-0.027315974624334226
-0.0707027842596768
0.15783491098639546
0.08773188393649031
-0.01060011062471398
0.01863163835526928
0.01582110654797
-0.02931421228629021
0.02428703304311381
0.07174869247404184
4.7049302409363355e-05
0.0034808483138698116
0.02050966116058557
0.036451492117625654
0.02200622788722238
-0.1338302025232356
-0.05781076313351366
0.08353726006121201
0.01564111638207456
0.0018727697493827497
-0.024188927401939755
-0.0392324978681645
0.038510354874083365
-0.005671533443531808
-0.010426133354768021
0.06839720403589633
-0.060856129280514835
-0.04964933052044282
-0.008221458099004778
-0.009060497530069204
-0.032430614369603365
-0.048982793414008574
-0.04856465254465327
0.022143028321600054
0.013068752291735205
0.03265564146478684
0.06851762088991417
0.0047344238020962095
0.0014550573320283422
0.012531837540730489
-0.057283823738998
-0.02129606881068778
-0.047143248659710354
0.018558510028625068
-0.114011064355302
-0.12981410826824646
0.002547542021496665
-0.013566451509125341
0.008202413186516013
0.16436717292518682
0.16388421741464532
-0.045553392920968355
0.016428936846649957
-0.011758080797422908
-0.009340758159346063
-0.057565538218984316
0.022970627205376407
0.14447734241939678
-0.011437195653971102
0.015670487286029718
0.0359070455336574
0.03759935810930251
0.0016323925464844494
-4.9319264737472036e-05
-0.037405268751418315
0.0012562663902471296
0.034067590224877216
-0.02940919391770163
-0.017426089652986865
-0.015212585477719864
0.026660887333247965
0.02868008238083859
0.0025621001589256924
-0.01139334446518693
0.02744476009432111
-0.0024442689382650974
-0.040277991959345054
-0.023216470826118416
-0.009734476070332466
-0.03401358036088608
-0.04491014888348371
0.026248539857852457
-0.0523565808596014
-0.008477396338756311
0.08812685468450547
-0.022119775618825156
0.007834662698232783
-0.03396355049139216
-0.11506529749625007
0.01800792518622784
0.0748843111951623
0.06323134171629488
-0.023076548384141363
0.02186222268458624
-0.02838828499202621
-0.008539719657808139
-0.017932867375761243
-0.027129328647652644
-0.027725595758779694
0.018151193010837712
-0.08546337172903942
-0.000642986907168273
-0.023094849098892766
0.06941434071768825
0.11415279670396002
-0.022622235148945815
-0.06063350658452535
0.005619850936163182
-0.012699059285124334
0.011029737458893773
0.07420744401542072
-0.017889825510682297
0.027113518065368207
0.04298066681697144
-0.009784543226335402
0.0006280218430503937
0.016484970198587332
0.0556915886111919
0.019919869372422086
-0.0023615079579804884
-0.004948830549003369
-0.03512217533737587
-0.03418783549107486
-0.033510973110940166
-0.02421148074141769
-0.019202228930492338
-0.014717090661757196
-0.07658201004172326
0.0016015615065038756
0.0030256991729410384
0.11460628518137829
0.003513552481479656
-0.008733197240936052
0.010598460631045997
0.007159648453945728
-0.014633055577676692
-0.04229956700206134
-0.004656797845820551
0.011181774335788671
-0.004148852553588789
-0.021430567886524195
0.008746545843370689
-0.002243093495447978
-0.028007607196162694
-0.006352870773977771
-0.012645839064719807
0.02351943832955779
0.06204445638764614
-0.0028830864545321337
-0.04098192813036928
0.01283527528076473
-0.030492444110101692
-0.12967057679356536
0.08885102737186995
0.034927306126955125
0.013328591151795723
-0.02561300559514778
-0.015161750575419113
-0.025625601127939636
0.05190917686993867
-0.017565802360342
0.0010585808671904607
0.018033809270869425
0.02182178218642881
-0.004174254674196247
0.0033300549866560375
-0.01129590269164955
0.009989081351244999
-0.06335609423221497
0.04971189056580598
0.1989833699678164
-0.043068732893832895
0.015476301209587167
-0.005533430799094078
-0.03487810431127013
-0.0004830526030808316
-0.015582940943837576
0.02520956314344248
-0.05931181623611947
0.0073219905269147675
-0.10687133371093151
-0.055176158248278824
0.04023929400930785
-0.007977204653231132
0.02495756012362869
-0.00320034962702386
-0.02491413423488322
-0.006397622808870391
-0.043765414246621864
-0.005491516083859083
-0.01824232674280122
0.08774047558221364
0.07670240946045297
0.09151854297193376
0.08424364533527036
-0.04092257847469133
-0.004022396388839922
-0.0541406756316452
0.03665210411343631
-0.07302506516538686
0.010541368366557401
0.06661199624352511
-0.0050988322924964535
0.04303531998024009
0.020145351418797787
0.01732754575161079
-0.028428317388473234
0.02416600735765491
-0.01656644303446214
0.009525443809357171
-0.01619316665249103
-0.009840459642571565
-0.00039544372157455167
0.06153518324685414
0.003713698024507091
-0.1088774972276544
0.021823900846195173
-0.006030278024525542
-0.024264376994891812
-0.02230732378672108
-0.003298398097938607
-0.02955123876320668
0.019152450083932203
0.02407039760910791
-0.017978003132127638
-0.02818733750665729
0.02165849330719813
0.06014138932430271
-0.18290909249778745
-0.04806893752686517
0.02135790533312258
-0.04914571277978748
-0.001673395463180465
0.011046917799692193
-0.018068551723822324
0.01648049329433886
0.015411963547787936
-0.0018409576227478462
-0.032708174942025145
0.018722317308850572
0.07013948537334376
0.006853513719201049
0.030335446864047818
-0.012522543972353339
-0.019180799779815717
0.016399763476769955
0.011443611264861573
0.011333857272684562
0.002870235966030283
-0.018618273392723657
-0.00436848252470878
-0.022469944572544972
-0.0019064810186664287
0.03663742571882933
0.001399886405288212
0.00647344648914213
0.04974303034446394
-0.014006727850658991
-0.005794638705316691
0.002726781733660215
1.9804015655290302e-05
0.0016456959109719187
0.0418622279408567
-0.00622680649446935
-0.01870977889880867
-0.013563395012775958
-0.009949676327238314
-0.01070371078022525
-0.02602847741144445
-0.042619593841264757
0.02980187615909013
0.0017229592294614989
-0.028586274253126168
-0.01668022435238737
0.012656182738572292
0.006639410771336567
0.005185057659113831
-0.0022921174268648527
-0.01144243928486897
0.027817249719147903
0.011512022906994596
-0.00800142896870486
-0.02029225229241302
0.01329797163071337
0.0005469388925578911
0.013500612864520442
-0.04299105771580915
-0.030637298419397274
-0.018406097733918707
0.021449886173517674
0.03881387612130022
0.01188898714425036
-0.01201245140045663
0.0017742803737852714
0.015322521224310532
0.01761824570393863
0.005640195413365565
-0.008369959083446113
0.013338781711718
0.0004965318228270553
0.054670440018074216
0.04771767928639472
-0.017300451129807447
-0.02694065144218939
-0.021027273582130933
0.006189243367832297
0.0838597655781551
0.043372421168002474
-0.006658386793111812
0.0034576702949166305
0.011247360420331465
0.02733716144627986
-0.039588956898772246
0.05936795228816565
0.07513507572738048
-0.030929380437892253
0.017318847408687978
-0.022121843339475977
0.03206309023084206
-0.08755740684277882
-0.10796647634019355
-0.02825792091559012
0.0010956046204563506
0.003462660617991308
0.024287220335648677
-0.1396261421434391
-0.05755147326406766
-0.07594520851154872
-0.11126229630222562
-0.04000287302153488
0.02886642733890971
-0.015660934193671656
0.03978787424603967
0.08877836516585197
-0.02194493493794244
0.03391520026001503
0.01390247435689444
0.0853502301465894
0.14135264169911207
-0.042934297835419105
-0.07055001564345569
0.019185424111138712
0.0006996513419845924
0.06624095731482818
0.11157713506068498
-0.013533142518578737
0.021783852548779944
0.07299112039064072
0.02537476158842183
-0.12896946635522802
-0.041688915680712445
0.03045714702440206
-0.00022435534817422616
-0.016864748397917722
-0.019222353927685138
-0.0008184650795158907
0.002270265995250484
-0.04863724796737366
-0.014385139145841407
-0.0024701269233043817
-0.08671566439752652
-0.011286881473445181
-0.01103260159135856
0.0699079537107512
0.05632943971271464
-0.022199778027054865
-0.0013598828635841761
0.028759757787186355
0.0026141895480947647
-0.010019726938204677
0.06257535751995234
0.0048978475731199555
-0.04482082161146203
-0.001074226566450001
-0.004651461602155109
0.0005929202166891025
0.01987626750403423
-0.008103745731231451
0.02567077539609528
0.006689796817337442
-0.02604805398374319
-0.029532950669656288
-0.022953132215310104
-8.705794591139583e-05
-0.030733102227723703
-0.02446924406040894
0.021166111047816925
0.010676515394312382
-0.016166848049790492
0.0034498003207672637
-0.028027333724269462
-0.017604418101167054
0.03618057223596422
-0.1082563158433167
-0.05798562777834387
0.0501244007264731
0.03451349298479884
0.010078648843296917
0.010646457879656998
-0.005846926267406493
0.008245567593252979
0.06563521354716503
0.019074526854858904
0.014241750234099763
-0.01799669308640253
-0.02056959665976205
0.02724072476940641
-0.002919194413847634
0.05479094883360056
-0.005948002219747869
-0.004290618489122811
0.054246407356556704
-0.00900038167907812
-0.0026448896175341992
0.012802306361944628
-0.02903319497689345
-0.05653306160401734
-0.030027896528647798
0.0007318285705261342
0.018059828011652946
-0.013436100732409495
-0.015790883287944278
0.14139970535808347
0.019866624540968436
-0.024137745867870812
-0.006195726661806038
0.0016142419118465622
-0.002626704697487877
-0.018546817766710265
-0.04707142769882288
0.001491421720149915
0.03727621439873226
0.004484092352084077
-0.015043365068130097
-0.020171428967148977
-0.002777927669656096
0.0028288540047618584
0.04518690446865884
0.04918915456821473
-0.03398790397770249
-0.09433602713489729
0.003985688584370196
-0.0032233939749155656
-0.0026588035633821885
0.059710004382054115
0.033296257742952494
-0.009286047773120497
-0.008424002107910998
0.019754494958058658
0.027426952345146423
0.009007620120580914
0.010842546888783578
-0.05771691677622744
-0.03594334995091859
-0.004356652925037122
-0.09159703582259121
-0.025669419744253175
0.009784378490847402
0.0030120571772404873
0.02135163785436727
-0.003689647057316429
-0.007477528482930419
0.0447799266194794
0.011848818579174754
-0.006753253000950148
0.039127984620640016
0.026301625771221047
-0.13814339111742838
-0.006707304609369694
0.01815498287268664
-0.009949342461692238
0.000939421330263199
0.0391277291123177
-0.00021030575212808693
-0.017092184246133485
-0.00035141663490992754
-0.021855564832812185
0.009677937797846555
0.05835782736486784
-0.0043070178696160534
-0.0030118685782532643
0.017694486090905872
0.05784592393322025
0.008026078275625246
-0.0022840239387957478
-0.05915830086664717
0.025089719338656887
-0.004408071459656097
-0.00508641087784611
-0.005429108468842143
0.02642257218913493
-0.01560987172504298
-0.06795053412876303
0.011398881570466278
-0.01452773132111383
0.0015411727371770637
0.012401792755337145
0.02139412875353826
0.0015694693039804122
0.05580767700250399
0.0036659970895421665
-0.0870364758527638
-0.046432094126969
0.030795534780770826
-0.0058699963272887
-0.02453647422625339
-0.03559154863883841
-0.006244689304756182
0.040210239720696976
0.006174751677503008
0.003969039966797358
0.0014351041860941897
-0.0021742089375566846
-0.02979258564042094
-0.01599226766224964
-0.02069794100803304
-0.016555919616744796
0.01582567704600861
-0.027743718764876926
0.02628272177242335
0.06152839958099591
-0.05098629605915956
0.13824599559900932
0.13926755477513364
-0.06656418564167695
0.017339666253289615
-0.09499578712509939
0.024916059338783304
0.03364866492813417
0.0165048440773387
0.052156005569743355
-0.03473748472068148
-0.0034561676261035115
-0.027137895058914986
-0.011368541222207562
-0.02953468846184529
-0.012332128924889996
0.107968458846125
0.0030801218649204472
0.004941514817320123
-0.07522344867987882
-0.06809118581867887
0.01654491739448726
-0.04939723414010592
0.028454708722402924
0.020000610562024294
-0.016962205258527083
0.05972088137382703
0.025945424292260304
-0.001850328392783507
-0.03445444090060769
-0.05505394446054072
0.023709065571398267
0.001061870744876496
0.03760240985994302
0.026048504686098487
0.013996408485359858
0.02503575061341659
0.008422250134451142
-0.024407966810560497
0.025886758907986324
7.385585172404061e-05
0.03420567506450855
0.012365529106692127
-0.02360830962004586
-0.058483809178716005
0.01629126260777961
-0.11417011799206939
-0.03918231784619575
0.033721365016362456
-0.04849419281258904
0.01409840581372171
0.005915021169471182
-0.00623132230623764
0.0022433823991610045
-0.03654377133421375
0.011404907752922544
-0.029969707645222714
-0.029649070887264522
0.01716919107499742
-0.037922888736220316
-0.011041454666103796
-0.014268667602962573
0.0018300350275683914
-0.0009167444969290826
0.002408314522143952
0.00805726829293194
0.04490741681341879
0.08409929975652845
0.03142228005180298
0.06402612183936038
0.14859738648115936
-0.0166870906684825
-0.018773492213588542
0.004015543933617888
0.08029085141960679
0.02752952301682537
-0.012975690311515485
0.052962091540336514
-0.012050376969655
-0.03602374732776372
-0.005370105842674504
0.012052430694249381
-0.0987545799635178
-0.13138435957773123
0.05819316250721165
-0.014575067812483637
0.005195562159213849
-0.0361282882298917
0.01591235907205972
-0.012984557273978237
0.03624708715004511
-0.09666707646408444
-0.02765321378642807
0.017258335785061953
0.027185387922784136
-0.042396513305158506
-0.0042090614865077335
-0.015599797282630876
-0.015370518957222823
0.006700339400119879
0.009500616122868098
0.008571234995409488
-0.026861433726979307
-0.01856323513215171
-0.03905110726376814
-0.01242032806875257
0.03605364238352149
-0.0039729049679994004
0.016860337203328166
0.028346580759096244
0.0105541470303123
0.022039138068220228
-0.010412063891963632
0.009013082976492087
-0.009352134680139783
0.0050184220895134
0.013575687424980934
-0.03076912638002276
-0.01864517125877438
0.03484213797174305
0.03152641146146454
0.01545569840505459
-0.022991613324167354
-0.03971403115189084
-0.010491310120269545
-0.012872656419245834
-0.07183872564608074
0.04807232651018168
-0.010653680204533979
0.030014505767068475
0.011104614489086548
-0.04491848614961884
-0.04073819209522494
-0.007830397178032494
0.015247670397797538
0.0007569068786469177
-0.0035193429254096013
0.006083151553997798
0.015473724482377159
0.004234692916575178
0.05995885833541533
-0.021814218130522582
-0.030116637582578754
-0.05012712497217172
0.031973306055393884
-0.03936025613196857
0.09838494394473225
0.16204217998351525
-0.010154435211546155
0.02381727243828276
0.007170788682507486
-0.04003530876106886
-0.008816331765694541
-0.03094949119216152
0.03429700179864119
-0.027425130825374715
0.040090457949510556
0.09249403697696744
-0.008289260570983894
-0.006085565230569179
0.019292418881585758
0.037822928572865934
0.04884743594523788
-0.0559973843435831
0.012913245217419086
-0.004970005510244336
-0.007178225514025046
-0.011219997646390981
-0.012069898225673364
-0.0056051566459098525
-0.10606266487517031
-0.006092087570591631
0.02707245668409059
-0.01868560059366884
-0.015873738911009475
-0.029840133421846
-0.03745081173332231
-0.028589298913397346
0.01202060409099155
-0.046294010287706536
-0.003215030298967907
-0.018313413960723675
0.0827391105527088
0.17249907615697738
0.030193673215562065
-0.04863043049831387
-0.008475076316688923
-0.04499833349100235
0.03504438368394921
-0.013452983348663579
-0.0012379669772531305
0.014017334881283892
-0.0009058363253440035
-0.061854247938457355
-0.0242360843916535
-0.0023860094872498387
-0.02777851821235049
0.006191245645439678
-0.01304310686088697
-0.02664461938094844
-0.016809821912159212
-0.02167436437569268
0.0415917651888313
-0.025020166052462062
-0.09519628605355938
-0.01746983291742162
-0.016603697357263723
-0.01592562438900889
-0.007044081961676783
-0.005094695029796721
0.04260173610083481
0.06105067116796059
-0.015513075102102349
-0.019579727699200043
-0.008357604180940134
-0.06938158021559634
-0.03054724114759005
0.05520296264047009
0.037693961921447236
0.05929381989657125
0.03059698216632021
-0.020161674101300438
-0.0003887458712934553
-0.04046349199990039
0.0421536281058128
0.09753859754312709
-0.05162981392775175
0.04971929207326995
-0.00212290129677552
-0.0018602930723851897
-0.015038464696081026
0.01841885376190192
-0.03540736485920119
0.012526402455331263
0.010867813186048651
0.11790894107388422
0.009086693077577758
-0.03401443818850698
0.011196511656210117
-0.02313818900747535
-0.03479126232222712
-0.08937967902029662
-0.03955251607122206
-0.03311954412228182
0.09967513973746982
-0.0184833117385651
-0.027856531190432163
2.368459344826331e-06
-0.05980677816074608
-0.049127680909465565
-0.0016088285416233634
-0.005478564597630315
0.036914938972660925
0.02712427436940655
0.06616946669341088
-0.001172421134872154
0.14169506855147543
0.029566137493202048
-0.04996071378715372
0.033529785982842016
0.006994657982351079
-0.029475873013274083
-0.03032447899428713
0.03208212402708543
0.03398787366409252
-0.04062189012396333
0.04780916850153258
-0.004734219653492279
-0.0013134744578333002
0.021157397982126472
0.006779915131286758
-0.0018204305000055821
-0.009668636868484395
0.08730198856303711
0.02632039752782694
-0.0474786896386642
0.00822542116653944
-0.017134658141310075
-0.043605646179265385
0.007306937249669181
0.030884738399739053
0.01382756646160366
-0.02423295513159134
-0.006657761547134186
-0.029892955614201144
-0.010673981881577392
-0.12865600029642163
-0.04161878866423135
0.013358834479425536
-0.05491055719112979
0.03691875175517906
0.018761999970584087
0.002348814199114255
-0.018797511440968053
0.019451306925040966
-0.03879740375574914
-0.03907874119110493
0.011469289476572749
-0.04410799595470402
0.02088908018973845
0.014980316648148287
0.00883486734021382
-0.012922226007605786
0.0021352682091540817
-0.026943815128653688
-0.01844049643123561
-0.01811336508982295
0.028641040830895664
0.061403790685662415
-0.02268559454340169
-0.008887004453851193
0.025789574969654703
0.030944539047457118
0.00912416360966956
0.0059336934364038795
-0.06791994089025741
0.039080366117368426
0.027049645333188283
-0.014294001108939625
0.05928972104881396
0.019160775088539948
0.008241511298822928
0.1331949336197047
-0.09293110642742361
-0.012644424967763683
-0.00651636022979697
-0.08492876400179264
0.04255609359581881
-0.00012439755140914875
-0.007337500311339676
-0.007866487102714714
-0.006578846656212574
0.011825256555202881
-0.022281817783077536
0.013353317706607687
0.005039944138529192
-0.0008486561037127006
-0.011417461857478415
0.01754636860691757
-0.0033248879999041693
0.0038385191798319535
-0.007392776327761728
0.029421118127701294
-0.018214544439177412
-0.07902422217533518
0.007401522075333609
0.07511720522555859
0.0017865872353366938
-0.007230777473250454
0.0008412140680232255
0.05706712519425224
0.03886235256996262
-0.01868215614548743
-0.0005896874106206297
0.010561681865365158
-0.03941880187952789
-0.01656085311873445
0.01510454901322891
0.05205509075609907
0.011298639992246916
-0.020370178587530884
0.00469156437410945
0.046503110437042694
-0.04783586565650688
0.01798373018606334
0.056850405419084295
-0.0030444639449967556
-0.02151327196815771
0.003900336651217187
0.023398702777108985
0.015517444598331794
-0.2120588452351394
-0.09410124276199101
0.028803337980027263
-0.04580568500493423
0.005117403084546731
-0.042260960168540154
-0.02303089650001393
0.012674721348076616
-0.09883876395813004
-0.051155696048493446
0.02571092482641816
-0.014024595639872958
0.01996587199677625
-0.023201910844021238
0.06499946496458824
0.1378531956515895
0.017713101900015165
0.056548532770594025
-0.025755064779054027
0.07765443498540982
0.0879045011321058
-0.027822855061398
0.013175273566114431
-0.013625558553200353
0.005166056078287092
-0.005129486521444273
-0.014190046411277602
-0.00853010528156036
0.00961744262529199
0.026569604195513616
0.001425676019743354
-0.004940800956283435
-0.048154311282081176
0.005963207541477205
-0.013140395292277283
0.037008570915651955
-0.0193627535580155
0.002932391738984459
-0.014400994547643884
-0.035488220030154484
0.03189889019402791
-0.014689854088447026
-0.0015451937361157957
0.030964752653052
0.02012704133435941
0.010724976630209566
0.010869429140362957
0.012150253860373958
-0.002260394043632248
-0.042067272997134905
0.01575209671428774
-0.015489807574461284
-0.021493929893589166
-0.035124852787096136
-0.012167512212474245
-0.03741375719423225
-0.0035914747631098057
0.0013672311237936969
-0.006771920147391315
0.04231407347466091
0.0020400727972979906
0.004400746296658732
-0.012670118608418802
-0.03426325343647112
-0.001084076556844573
-0.007268407723348897
-0.021476078372551718
-0.012153843071170935
0.0026280302052898367
0.06797193277306304
-0.012956761902563087
-0.038222394436292315
-0.02804838451039249
-0.04255713956804751
0.012192830224174707
-0.0037085771580058604
-0.029900081960671895
0.022966222257509366
0.026901436849222034
-0.010342506713279182
0.03257551877167736
0.0817391170504171
0.05672820065362083
-0.016712328227225386
0.007412865429433384
-0.024601887494326603
0.05256590740290461
0.03626474265687582
-0.015013027445739964
-0.0036124021600241695
-0.02140642110072188
-0.010362143465473116
-0.007749456202406752
0.021822681400819752
-0.01377016678720011
-0.005177234268876408
0.05705068794046973
-0.06956814778422334
0.009548201919123422
0.06226396059999771
0.00845078449177748
-0.01618541755555681
0.014534879480744533
-0.00782798157351571
-0.014098021628072235
-0.06244105021247349
-0.016761940360871357
0.01742888741587354
-0.026677524210454225
-0.019526852618694676
0.04250479705300772
0.13763424197300714
-0.015759784263040644
-0.03625187848776977
-0.031636081391033466
0.019168542212931655
-0.03787632050916113
-0.001583217991692257
0.04261244076685181
0.017833788193214684
0.00382128342258691
-0.010294041183378495
-0.011397418552718402
0.008575046334972233
0.01731775538605703
-0.014286565922980663
0.0011272704692753363
0.04694123233448663
-0.008996919287904024
-0.07180750401256564
-0.041383443627424056
-0.021769581818494536
0.02850881254421443
-0.04344444774947895
-0.03578876543542865
-0.01363880706894657
-0.0055881356064050106
-0.005182664302074893
0.02945914290238679
-0.010923375501641484
-0.02451328832539605
0.015029403357810627
0.013892361960422456
-0.027796459958313858
-0.005525882454800447
-0.028616120955530233
0.011457399448260925
0.03413472371737784
0.0020965535072190226
0.02335997097380428
-0.016621870405568888
-0.0261366616191502
-0.014560993394052528
0.0025808424938176043
-0.07669478321031198
-0.01984626603790453
0.02199053019068463
-0.02343537187138471
-0.04675764241711312
-0.032891913512633944
0.11644523454079148
-0.009784927971428211
-0.03527474289660781
0.05692552525116136
-0.019959767015796246
-0.010459372736491803
0.008664890118524319
0.05708684261941426
0.025047768090172954
0.039336092993128256
-0.025898165203418002
0.038812827518121144
0.08530620807056453
-0.028170687351460288
-0.03704031629522251
0.005046688917092199
-0.008521891164796267
-0.031459267331987
-0.03713618761635162
0.01668871290545645
-0.03156924111735086
0.12617764560062264
0.07251709615793858
-0.0170515970540472
0.03769597153254954
-0.0015470453350897176
-0.010568290891181817
-0.01529961041045508
0.021399489679317606
-0.01695100018602272
-0.008136122532279862
0.013987343995118312
0.1049270210655777
0.016244693320787228
-0.024148396664566075
0.025005712712562068
0.013232690871962677
0.014136379647733252
-0.008174451410824927
0.0006733871617425564
-0.013663278697379209
-0.010073110556359309
-0.0970924660755301
-0.0911239333094713
0.0184344268615078
-0.0654476837552149
-0.0351019054977689
-0.026439364153145663
0.015753791071009687
0.0031993478107263658
0.002765807518267087
0.02012621445336962
0.005433679212867541
0.013225300310584219
-7.240179001693025e-05
0.0013969622015894546
-0.010654190043320647
0.02958058699675625
0.04039338277293639
-0.012693676719392328
-0.0017906522519255904
0.029503548884112277
0.002764726131617107
0.04280365165556402
-0.049895792392116195
-0.14751119620898914
0.06090923142955515
0.023311253109623883
0.02202402373458768
0.02317234666874188
-0.0017281105112190067
0.04464220238021684
0.0013436557855278047
-0.0037297130588620723
-0.005078952217649069
0.011742928493092764
-0.025424109093397495
-0.06378765452735242
0.01940966151531096
-0.0005187749582723809
0.02230349095806303
0.036365731066981336
0.016418319135947237
0.04847983364074572
0.04202410401226865
0.007481564887763684
-0.08744074133633027
-0.05533134179877015
-0.04332947063017561
-0.13141240062614187
0.04063731200091171
-0.038456854069864876
0.024790656496521696
-0.014580872537455878
-0.03480738440261084
0.0018004035994179934
0.0038751109042511824
-0.019598910303580092
0.00991216282487753
0.06976453529400953
0.035408805237464494
-0.04257770767441578
-0.012266876140166355
-0.03869113099735926
0.014532607804616321
-0.02112052869227292
-0.026367025241671747
-0.11986830875081926
0.017912094686823733
-0.014630952965474099
0.03423092372702031
0.009554599441912372
-0.0069559727112253455
0.044843373353348266
0.03655061764849744
0.003135085139089331
-0.010692446742945078
0.012629004551154144
-0.0246668332282276
0.018764481097134814
-0.017876575339907406
0.0001627885079713183
0.1424334044636548
0.05742109625482989
0.026382336184071015
0.0004140863956889007
0.0007315580686853028
0.03448686343482136
0.004830411789348731
0.03322766124835478
0.017400977935553126
-0.05376150382452869
0.05464569467063713
-0.003367606347850133
0.0294992875122109
0.031122539432493018
-0.009287270420126512
-0.0020816766836277635
-0.004056107236283124
-0.03824375173038846
-0.022477689397013934
-0.05023422992740875
-0.006861899985004314
0.002568025964059931
0.08015425058780518
0.036877042495819905
-0.0038148333934112594
-0.0076527076281536575
0.000961988843991774
-0.011498624405958563
0.044484103348135816
0.06791161397691378
-0.01886496446174215
-0.00561814251935164
-0.022371213721286032
0.026990063677504835
-0.016242096102404062
-0.018218624419353565
0.0021692045877236134
0.026598391036872747
-0.10430044082830048
-0.06567548679619006
-0.16260110766244218
-0.037909415742054725
9.064208229076696e-05
0.007758322744392063
-0.08005586950548131
-0.07617760261479427
0.01792649715338427
0.0071218756035863855
0.015056857834740393
0.033621175595115585
-0.033153438708025285
0.12481649983042015
0.03676624715355069
-0.018047423986206044
0.060099797745676295
-0.010359736945183174
-0.006965087648617248
0.04489882316904247
-0.07547825035780535
0.04092076623073502
-0.011810953783079102
-0.03746411735963573
-0.009801010389561124
-0.002213988547406119
0.012978154132047667
0.0035119119117767257
0.01927463214406308
0.03916015802438511
0.03438254478845849
0.024998858378956736
-0.010956533725028212
-0.044794415808153645
0.053734946198034636
0.025608351061634664
0.01738462622483729
0.026829470072037644
-0.022810320771791136
0.02108587308533391
-0.01211338489596448
-0.00633782973423631
-0.05275819955249726
-0.11492818429173005
-0.03604681302440523
0.060710198160841014
0.006375701814796594
-0.004439537675631257
-0.015416557188594596
-0.0031070166169490706
-0.057291675331675555
0.006672788685651904
0.14365820301308443
0.0014857409962443756
-0.02235882363593918
-0.047317852946383604
-0.028156931855153774
0.04873575627785298
0.12471006084154868
0.01589121914633025
-0.030903958429560088
-0.02747190056715835
0.021156057538528898
-0.029706952830112075
-0.01827821136756589
0.015942343685329045
-0.004929892779521568
0.04910287873835615
-0.010531673885938729
-0.01294974002736583
0.014629364081723457
0.04679713873432665
-0.007267757383003046
-0.004622242924787647
-0.0008096371134568617
0.019654672943066394
-0.026453356764965536
-0.023116577428672628
-0.041600670212543815
0.015731265203282444
0.010610588910101982
0.005361432988064115
0.04151485960842501
0.07311869443134753
0.023177242323213856
-0.00929363073313654
-0.1100315394719596
-0.11476460573748988
0.010775840106190662
-0.0065991233071301635
-0.02087331837137109
0.0045048374440134495
-0.06358669034568105
-0.034728992366275115
0.049919690130711944
-0.0011286144137355428
0.05322786762290862
0.020760037977902206
0.0009638510571574088
-0.0029866474195153585
-0.05595376401534707
-0.02523494028177164
-0.008338504646919735
0.00485141762662523
-0.002166460661544933
0.01018817563362239
-0.008203968841492203
0.054855722518227804
0.14023198002742038
0.016126809335314546
0.00804035419623248
-0.021059453361786412
0.03930319089126879
-0.005557557103083641
-0.016562774357586803
0.007111068735093786
-0.0035963608030491704
-0.015210554781414655
-0.03824422449012311
-0.020478388520724086
0.009167169184100706
-0.0012596493137855696
0.0011434015836239316
-0.01041247880056373
-0.019370708039212804
-0.12846611930151436
-0.043731996480970634
0.022171686080930512
0.05068072000945264
0.024972656651868808
-0.011790987456455584
-0.015604000689030879
0.034371218906421426
-0.00017937528715075658
0.02238705299323095
0.03551913958062071
-0.013247813333634154
-0.013154336104264782
0.04351523350391878
0.026301648487377607
-0.014252973392262606
-0.0015025687420891253
-0.0011305596383312103
-0.008956893807441803
-0.006873641355426003
0.015787234166113714
-0.006585420769693609
-0.030093624527820325
-0.029032356112675437
-0.0019221084810249808
0.07960273825352061
-0.07652109509694095
-0.012202025007899407
0.032298031921267685
0.029938856740442877
0.023532676361060403
-0.03768580216695478
-0.08811241425505795
-0.03577815404930663
-0.045483427916090516
0.018991188089963085
0.028990207119945394
-0.0252400618200379
0.06568995425261101
0.07599296382029326
-0.017125874806522463
0.009903695826971412
0.018375083271180224
0.01727353498000537
0.00716947946315396
0.0047815169111899425
-0.0207234023113941
0.0030540819276089976
-0.0058236734157492516
-0.005631184794743521
0.00121858175643484
0.04646508627083945
-0.017338056389779345
-0.017601508206356545
0.034202527998126814
-0.004909916843864346
-0.032214329563487167
0.028288718497715894
0.0019217006156359588
-0.03357673961597885
-0.000492306790073786
-0.016689812887501515
-0.006156585649907315
0.0037749094003792427
0.012919802055069922
-0.0340914022366948
-0.01730995162687682
0.033277315420293795
-0.0741742412135294
0.01252342579389528
0.0245920378361069
-0.043790840974548946
0.054434751478658165
0.05328687084118726
-0.007377905174606914
-0.007985959251462449
0.0027664763933017197
0.05468441190742324
-0.007887068994134673
0.016940111936528
-0.029373878898375522
-0.0033800559985672214
0.006124269844849035
-0.008340558177443658
0.0316714738401154
-0.0015812762114255955
-0.012386634214403157
0.027716831762743862
-0.011323668212460196
-0.03719597977087447
-0.04981120195582655
-0.034351176801320285
0.0004625891135473221
-0.009021210658942373
0.010408821085284856
0.04798808366733941
0.0022014754947563622
-0.0024724337992141805
0.026942953713054246
0.027149209220870996
-0.008895057947395627
-0.0067775561195138456
