0
0.059709863131453975
-0.010787462635346856
-0.03143683928071982
-0.014837998317466565
-0.07328900004986136
-0.04308702725212744
-0.04394550444175508
0.012946947386758686
0.15396033234445822
0.06865853493413826
0.00831440672035162
-0.02006098652631719
-0.005013794535084768
-0.007383873046714995
0.04352307829196437
-0.017863853954586725
-0.015932040588665163
0.08469233544462648
0.13031476593238214
0.020923230970268644
0.03827722218599076
-0.014613353919448381
-0.029889541281523033
-0.03715804876032937
-0.012323280136085468
-0.029055722301560637
-0.029534180511308537
-0.013989802956603133
0.005321049155931957
-0.003564248273055767
-0.011803040702443705
-0.016058036631728424
0.02116172992174513
0.01607629936831192
-0.034121397070621375
0.010203657437584574
-0.0034839938637624504
-0.009958756622087681
-0.0027700857618536525
-0.0375468112336674
-0.012805191435701399
-0.008924977915553066
-0.0254302357440724
0.01838963519769747
0.0053358103621134224
-0.030832788610980943
-0.0021073080119181657
0.010240893745576633
0.020835556122458423
-0.0008107565776340279
0.014499219222746282
0.010728378005578893
0.0378448947042259
-0.007094529042821746
-0.005783410395229585
0.02446348273665785
-0.004584629426694443
-0.005043625086380397
-0.02421019959459861
-0.037739203647940936
0.0052418916919954005
0.012001939011764027
-0.020535052943922227
0.04378052499105807
-0.014817972212994218
-0.007608158665941508
-0.003945679420840741
-0.007984809051143434
-0.011691734812730644
-7.685544088636441e-05
-0.04074488155259485
-0.012223852718632923
-0.03891337037431604
-0.013887758554681206
0.014170793953597986
-0.027023662862750906
0.008510273294594176
0.013231904836155104
-0.024207309448353524
0.0180324242170782
-0.017052435896074056
-0.013709184224070225
-0.009007953397466434
0.029993619289356423
0.0941822847025971
0.022924188179509773
-0.0030334983440986774
0.03539321624527183
0.045471077600365256
-0.012267928330443285
0.05080269108027371
-0.0340332904107611
0.012541461174015736
-0.027231705372334585
-0.002314678144152099
-0.03231196405763844
-0.006916339544620792
-0.012362820176190975
-0.008958980121129485
-0.11740494939937969
-0.03888698923772178
0.036511988298356036
0.03744848106932164
0.015073855999436841
-0.027103136391582447
-0.07507630127077748
0.046590133564108065
0.06760578936856501
0.02204549069560864
0.021908789390758663
-0.02692036773249871
-0.04951412104464972
-0.02051073022893897
-0.0261516023724029
0.017671697316347608
-0.026041897714255375
0.08426210775321914
0.03973333317491942
-0.019184217094341392
-0.020255526066510432
0.026177355044405173
0.21433309997067854
-0.014912647562731248
-0.02221448593716635
-0.03719704299101682
-0.08979761642669222
0.07917972842562714
0.08001352980992041
-0.055008408550387
-0.017924209505506956
-0.0019563466721835296
0.011176406314457397
0.0008261419752853103
0.022352980116811885
0.011921903140067316
0.00853469795686018
-0.021761518524254633
-0.038134893832782776
-0.007756519307959742
0.009071062423950066
-0.04007645975052667
-0.00024225726887384125
0.013459304078088749
-0.01734752061890608
0.0020224951134201166
0.011249652974674947
-0.005356454282541005
-0.015822609565974477
0.015214002982118379
0.021658009452143443
-0.0014892431045398417
0.004451647339896005
-0.01464642315963828
0.0010271345692326847
0.025624324662592117
0.006383505124666428
-0.041621810670254965
-0.043894453120432615
0.004269467141621295
0.01820657810558724
0.01006064874744505
0.07831299728401056
0.004227806559216793
-0.002339303047047386
0.007309454077719888
-0.018243081477933014
-0.0544895277221469
0.035722899355933216
-0.10060031791278107
-0.005493923698906732
0.0048846367406277826
0.008180061190961945
0.004284019424519657
-0.04831695958408309
-0.013641573228557424
-0.13850235717897583
0.013174365806756062
0.021549027304348146
-0.027364225376981917
0.012313151086647087
0.03162963008017777
0.014366511649618652
0.018056548062823096
-0.009616946482635308
-0.007159582260821455
0.018401532221775773
-0.006043008286803315
-0.02658702445725908
-0.0006113443451938751
0.012608899020601446
0.0607615280885334
0.017172531138620915
-0.02670184558195322
-0.006389960436889022
0.023275569613690025
0.024014731756900793
-0.022354484548763872
-0.07316428315113414
-0.04670181623350595
0.009349011671276676
0.08062486100961341
0.017225177141802963
0.0488606332640489
-0.021661375315314715
-0.036621087132761694
-0.022466226516665442
0.04625621538437454
-0.02664630649195278
0.012551936686275026
-0.03025280400302407
-0.02889100879499036
-0.01095190370335362
-0.003987382934323861
-0.0015868514874842932
0.08046991958518701
-0.003477990815376188
-0.01968887117808751
-0.026435741511214035
-0.007175514463688064
0.0204146055777283
0.0213321581580064
-0.029248588651773023
0.1642116906585445
0.12409952476103393
-0.013413045944255839
0.06535427005328187
-0.04420392374043513
-0.009643159519673285
-0.023750522766441413
-0.002473464873118066
-0.07334085486277774
-0.03198900713935904
0.018232270164359996
-0.03256535151519073
0.005683085040277505
-0.004889088915780038
-0.014293070575901469
-0.023637801358048334
-0.003564983252630278
0.06980002052786596
0.01344653134845514
-0.019062597116765386
-0.01861343435863706
0.00778255519634932
0.02733529699578642
0.02381051804313915
-0.017162822092885947
-0.0006263020565967168
-0.10554844631919662
-0.004911963710141521
0.03174236989033307
0.1353938556150358
0.028142496863092056
-0.010737956717555503
-0.003599934408023661
-0.045977090335620814
-0.002331510770326402
0.0058990796416880315
-0.021441920357088317
-0.05401562954629763
-0.037563549550631
0.017114153039137513
-0.01144434851091618
-0.018724354467060812
-0.02400791340180823
0.009893204402134271
0.032686258336787934
-0.008382913190546471
0.016303793604554747
0.02368173043677546
0.04090699139199652
-0.011951651417563979
0.052054442927026476
-0.019191569932226017
0.010768371805291532
-0.058337827909188955
-0.06290593510150151
-0.0212303954437047
-0.024688256932496808
0.11630769178256789
-0.03191505486746262
0.014142165367861548
0.003482361036387673
-0.008974466385996159
0.0003961355907349068
0.011054954285504154
-0.03297134359331364
-0.005174182982025209
-0.019563464083612273
-0.006078546282614584
-0.005589687322669639
-0.023726779572353508
0.021678775175476415
-0.03882300791471517
-0.021778459121497663
0.002909867687675753
-0.0020190082228023426
-0.008303528266791291
-0.0002484140201253815
0.028995674321287832
-0.02369809108637025
-0.019741625787655696
-0.039315732195881026
-0.005437681666549426
-0.012539387798703934
0.009911888227459115
-0.013659075802926687
0.03006671271948265
0.10876836909861731
0.004244379690249605
-0.007046094893631293
-0.004775698282361497
0.0019056552148728552
0.012145806585061153
-0.041732338956592965
0.04513130264386362
0.054672375617356245
-0.008516684048501031
0.02804256877687567
0.004197857803211886
0.016904190785799793
-0.016643377840503234
0.07077983597759738
0.11425531938865471
0.020426515614526984
0.01299989288760814
-0.049458368436832954
-0.014514714916281335
-0.0240930081973816
-0.03942908341632075
-0.0813484740915002
0.001345250504282306
-0.02291616317814148
-0.04635064265090124
-0.04163313422822108
0.0023201618693909003
-0.05036550833899259
-0.05421549073978281
-0.01639458216406223
-0.043521470920441015
-0.02092232468085972
0.02560480000562744
0.12243248919585273
0.008854146141827888
0.0016482971460744856
0.010635321641241443
0.019120831665748433
0.006271984760266276
-0.0035461599357243085
-0.004061211020427838
-0.030296589860727786
0.05527530781079761
0.02667171043091547
0.03338138489379433
-0.03871248312718981
-0.15844518832610374
-0.015599290724215039
-0.020504901626388603
0.03167886548342702
0.01484929325432435
0.0021196277414385753
0.03606789621197309
0.012372165275432386
-0.014666999933721574
0.013096235086168171
0.06622789667135909
-0.021972902906239683
0.01545200932371719
-0.008071661352848591
0.1328092857874659
0.06831212334532928
-0.014872353784686876
0.013950984442203137
0.021892537070838814
-0.0053038264272947866
-0.01669109337014127
-0.0034325523729884866
-0.008986200377093526
-0.027530875755339062
-0.04108184092753788
-0.016255841379522837
-0.02204658290980679
-0.0009280125062163557
0.0277150613500171
0.024194319168906932
-0.03110909542811544
-0.02063151671342087
-0.00770689677841563
-0.02605250452522377
-0.03780921540059331
-0.020190296484489362
-0.014778148393530368
-0.002179229981082551
0.087627664322444
0.007877000153502466
0.02004586933530984
0.05624981491185965
-0.02444921988799554
-0.03485539882370785
-0.020566526545502038
-0.04657892977286156
0.031071643016832042
0.09501661841152212
-0.01492697616104227
0.039588632193833226
-0.10130078225005199
-0.07961824203607819
0.07978884309730856
0.0016233518669898897
0.02264145273192298
0.0028631649041568653
-0.0007332967756418183
6.816761596089619e-06
0.0002467128332037778
0.011974404943184231
-0.0015258392790483755
-0.007501389590578737
-0.009386800743002695
-0.015513934476449678
-0.010133302814030657
-0.012190748050252135
-0.04445910551917511
-0.021338320822380397
-0.03627118622319852
-0.00045312704814287293
0.011403708669525779
0.04011118515382271
0.004194928357961082
-0.008579039997577333
0.004561048797400328
0.0019524398103662826
-0.00472683705320368
0.022761700813573597
0.008687382564625052
0.005179192295491805
-0.012663726996356485
0.0005790033447167612
0.04064055888509734
0.049842900884167894
-0.003283074327308174
0.026493140542370747
-0.007387821986658683
0.0117343939905432
-0.09814886655425145
-0.09558587135286932
0.0011911268236555403
0.020674993603456406
0.06026525704098495
-0.017766014282931866
0.041303261195538336
-0.014157721369842505
0.011261694381216441
0.03263665308006575
0.07077734866687102
-0.06250297821608926
-0.06486681012584179
0.0013101007659512794
0.03358773473192646
0.011204967539841376
0.044822299966324926
0.03130595846467825
-0.07743905320058109
-0.010341451975378786
0.03386050844918345
0.009592517933822674
0.014128853418686005
-0.021844351293738927
0.010398672566978576
-0.01661546636839559
0.010140197180066016
-0.007489448147391673
0.030210955159166726
0.01829471759470398
0.04987162535095133
-0.08614659368349964
-0.17270200906171412
0.05313589435697333
-0.03756564071281796
-0.047540439936954504
0.0243253035667529
-0.020088901792680535
-0.04321435062754797
0.026726600846436552
0.02921883255438535
-0.047402717168988986
-0.0519926430140877
0.031093495734527462
0.0007984937616349481
-0.038536259864943564
-0.004304037160545922
0.006167529130772052
-0.01675608826840423
-0.01775964287637189
0.00287089286907287
0.17378743554088305
0.043394456404893644
-0.030461021465332968
0.003163724691597782
-0.0075297686790883655
0.006177514880471078
0.004689959837197226
0.0014429450334096027
0.0035187082479978555
-0.01165429600519071
0.1549677575722884
0.01204141310781597
-0.038753417976192917
0.02691996102761265
0.025540804324101486
0.014457678655075312
0.09387462069447709
-0.007700504220670313
-0.03264169560823109
0.012416160310303088
0.01393603791885729
-0.001959168969950233
-0.02590108168739659
0.01782314470287374
-0.057522081283041725
-0.02038982728595361
-0.007930715420127875
-0.003162241276735655
0.030313140448282722
-0.05160619246764559
0.0015846359122566476
-0.03433726853692952
-0.08633634104119792
0.05695281136507469
0.03383300910647284
-0.051686576819433096
-0.0013122283711998399
-0.00730022957723396
-0.023732358242436736
-0.008320107587875637
0.0007136767974891874
-0.005113317581738811
-0.016740047528617654
-0.0008999029539604461
-0.032322421824063495
-0.012938742371037685
0.11365203403428488
0.04019028114683832
-0.021289790471340796
-0.01875504158714187
-0.01270510509051459
-0.009008279316310427
0.05290439570297822
-0.006997863903253451
0.0233231811951336
0.015528359217379209
-0.009034943321899046
-0.037954926574750816
0.01395207294988435
0.053597200450497685
-0.017284932923294576
-3.142563219504353e-05
-0.08507534526966472
-0.029331124990299412
0.05620875036605148
-0.02108877552967891
0.1273299426353522
-0.026609399624662643
-0.11623181286550902
-0.02638627434775028
-0.009968444439731647
0.06870485434519316
-0.009900075780451122
0.026469430678128642
-0.003886222876138159
-0.021236788365986057
-0.045178275631058945
0.005362178175667643
-0.044255883646754667
-0.028047827330300076
0.005033489066671956
0.058435246294367825
0.030245579988518678
0.04074618800506666
0.01712247000867545
0.0058546276529379306
0.017228367791201675
-0.018291720310449098
0.00019951777611419854
-0.004323884789404075
-0.007043644448107423
0.024118666486916438
-0.02252156705762563
0.025492176087549962
0.04683399638033122
-0.006377705641561526
0.008891966657747342
-0.0007027497363762076
-0.0029775686804492793
0.012087723112274962
-0.009500658049009346
0.007385088528154934
-0.008876793081995338
-0.048517769966372915
-0.0010065303467078456
-0.008125212085570726
-0.03500763733830988
-0.06801993281660064
-0.0008005775967283201
0.02418901000062047
-0.01612554108357382
-0.010608837661295048
0.015037760427268777
0.010491215054945121
0.001664472232816298
-0.008958953821543122
0.035258262419746875
0.002476297053751516
-0.007059014807916027
0.0403958366509031
0.0013737275925497156
-0.1297515216639074
-0.04678073289471464
0.011648692821138253
0.05326254133980717
-0.014749009871563837
-0.0509222430426306
0.006511571247212486
-0.02703217157645105
0.022298311142301314
0.007990947984437896
0.03120103696445569
0.00015711832844806032
-0.039709332440311065
0.0017613545560580138
0.022110871007193868
-0.003882147024253772
0.003261001980704451
0.0007533677949146223
0.017554738440064454
-0.013322464123537445
0.00037103923351794964
0.03594589802247845
0.047544841280796425
0.034129835143474126
0.05474060645528281
0.005883619059245524
-0.013804512490144895
-0.01483751008819082
0.04843934699907396
-0.0005058702746188777
-0.023402737491251994
0.0741098050643647
0.03332323642750681
-0.03313897851998912
0.013490954176751797
-0.019132862427327684
-0.020531848285107256
-0.009012311177455991
-0.0010067809952188846
0.1057395582392105
-0.017410601868573836
0.008961209871094125
-0.026357189033710766
0.07146828499514707
-0.0204046712954291
-0.17093053945781744
0.0029418329260548002
-0.02138784128540303
-0.02469865432468486
0.02876814720427308
-0.020434875747603776
-0.03209915136354397
0.01784521220331904
0.026905279572504673
0.03597158109048399
0.008009628288285074
-0.017162126090570246
-0.007392469673322052
-0.03618940405599634
-0.05178911680187373
0.006170896071035855
0.012432222502862907
-0.029081659353811427
-0.04943476350099919
0.05978256191790295
-0.0645332643620616
-0.05933656381828639
0.0215382746988725
-0.008987028452447527
0.09898569247656236
-0.005182093052744751
-0.019484264036178943
0.032587787814602115
0.013473329568516986
0.06230520265817424
0.010182731431420363
-0.14209224565871623
-0.042978304884077737
0.011391114887121339
-0.01602841327352752
0.018485385733379336
-0.038056097083488595
0.040452375304695004
0.03517868011362869
0.006740381465381037
-0.009377134968836126
0.04061976658771892
0.06058123438659539
-0.013824213193358751
-0.015227958683366303
0.10887587386331433
0.013919773250997263
-0.01876577540264798
-0.0725700365044554
-0.054427043607540464
0.02469075888857361
-0.015167818468260319
-0.0658536758079116
0.005565819294632667
0.033054553868806
0.13010683288511288
0.013637547752428232
-0.011441332146776494
-0.0061729306129937765
0.0019931254783812015
-0.0049823732724880165
0.018922552956238785
0.011825437874108665
-0.0007569238001801143
0.02070595625872751
-0.046167410202276736
0.027258345199262225
-0.004904128310141066
-0.012179201102835267
-0.00013228437191753402
-0.046847742797747935
-0.037620449125341245
0.01166586365738123
0.04253945226113634
-0.017842874480275953
0.011925579879831432
0.004475626194157747
-0.009195423390465347
-0.018438903659859195
-0.013835955248389927
0.017232184169339467
-0.006962918754228965
0.031210169668570115
0.033792647585994394
0.007577540316635911
-0.005975464255722701
-0.0333919991574432
0.0027754927939788406
-0.05070056957729194
-0.08981376200176851
-0.0049657280936718645
-0.037831299018205616
-0.021736147301172144
0.01303544044635049
0.12225347139889872
0.00030637400886284225
-0.029696570518130364
-0.0207506393690876
0.00800931333285323
0.0038773915855853584
0.003429023106294922
0.023040925445920107
-0.008936071571504903
-0.010110650178631837
-0.0020604681180880465
0.061058454409366886
0.01065147948709823
-0.0327379090634731
0.0961321147769611
0.01961223976807797
-0.03884225466154058
0.008998239049118726
-0.06388537924744424
0.08296362849237869
0.0886751837493879
-0.05684046647988769
0.06934260997738778
0.06103814562600077
0.0066129711738584385
-0.01393124994812368
-0.01311927748463389
0.005587289982711363
-0.05505041544094802
-0.11973245767820155
-0.07951523878680984
-0.051523035577382005
0.006853403059391849
-0.007312361391194995
-0.03612994939935757
-0.046347947124522434
-0.02873743501268251
0.040843638102014836
0.08997946935362222
0.01608582387977031
-0.016667318180418157
0.022032355658469033
0.03470364410535744
-0.0020906823471522292
0.019188391478238736
-0.005598389656162566
0.041924870638941986
0.0038226765911927455
-0.012687463055956218
-0.08077988319032785
0.011154094885508191
-0.010470984185584314
0.025481416016088398
-0.03516929956639272
-0.012122602807464444
-0.07353097769702059
-0.014031131817297645
0.007346831598949972
0.000469130478542833
-0.09351594950658979
-0.03443653576693969
0.06886376605507058
0.02451410776404593
0.12661498901413057
-0.007351778689292008
0.00042290226810949973
0.014055685836812545
-0.01937114058133081
0.009553064755438372
0.012932098247829003
-0.029218457417107102
0.02043189254637481
-0.00016674933881943857
-0.005818247252821345
0.005847671243713566
-0.013236590872729171
0.03257026629538643
0.032612268306923986
-0.02313764979595327
0.07897304279342203
0.08996340859463492
-0.016513776722096155
-0.00690594323005319
-0.1348691227515114
-0.024440818669374004
0.01780753447985418
0.014473832524764035
0.18139000207153044
0.02736508101406013
-0.04014567142662293
0.033019384719671196
-0.0069266414471931305
-0.07278727535244416
-0.023540188355665587
-0.02479479574369189
-0.05380178524563507
0.0071612605332710905
0.0035823026748440924
0.01639658684257159
-0.006347192425418739
-0.024432740453842833
-0.02248761470811773
-0.011654377822224966
-0.03324060836980902
-0.03950323292803665
0.06904804036739119
-0.022712284678059927
0.0267282296420942
-0.020960901158520395
-0.02710140860113761
0.006507671642749107
-0.001130100496493504
0.07921232351389103
0.05337614735949992
-0.031037025842581393
0.026811498962068858
0.0367975819553684
-0.0049365823419961815
-0.02246226979767274
-0.007456658947705404
0.0008941853166108736
-0.008263349928086776
-0.007129822473867426
-0.0043909115288049095
-0.01566798964322568
0.03280676363563474
-0.09971828156001449
-0.1264582713701915
-0.037848099870803474
-0.06106671931450616
-0.06282224561265912
0.03354508940065642
0.049971650744551135
-0.016892395208913353
0.04937231511909187
0.014906429724059372
-0.0044111796146043885
0.03509315050822175
0.1220993326829905
0.04190076149700729
-0.012264190438775342
0.005018160094645951
0.027507820966079743
0.05180252416927828
0.040561937717950886
-0.018599360575766985
0.02281580172737987
-0.008424150160090007
-0.02996785895765332
-0.035925633076552534
0.010152948269377862
-0.006685907273234266
0.024786483243584546
0.02198772127157081
0.04191380336627826
0.0011152841406366582
-0.04793191324076888
-0.04508537129756465
-0.025865910162871087
-0.060624631301944835
0.03360986722420394
0.03883601465211634
-0.060843434365106065
-0.01045774562345173
-0.03896976459546456
-0.041333794539652045
-0.010166052833149175
0.042080095272982065
-0.02949890266242874
0.04170797858101909
0.025239189169529247
-0.0006559952034628012
-0.02429008275405407
-0.014277078428746459
-0.02665730713985146
0.018682344111128867
0.026628670568254784
0.020659631406032417
0.013957218965496123
0.0018060613834196817
0.026524456101241427
-0.003191306753781824
-0.003750647176945869
0.027032763132469325
0.01375667750743572
0.05380548349070015
0.04778021893550814
0.01219676059508834
0.02294325459685462
0.023803437678775945
-0.011668325549857065
-0.019359547996822896
-0.016634892476748743
0.04547088972333555
0.034570481410135225
0.004114021925442025
-0.0253868115228208
0.006772246741743488
-0.029191687114731957
-0.0024536221864035306
-0.07287221232642561
-0.0181661457957324
-0.025313312305319472
-0.12187137808188053
-0.03481764281591768
0.0018549763676341715
-0.006624902515656873
0.04867435341204009
-0.013503286896311879
-0.010190354231093306
-0.00045478448295829235
-0.026429201913292573
-0.07749783222735764
-0.14218798641851407
0.05043709267330724
-0.010910159264832934
-0.022013846746807265
-0.028938300505290806
0.04044561869768045
-0.03723196843967332
0.13013716126000147
0.18759029956728332
0.07143432546116858
0.07129352429332468
-0.006105368260979436
0.012008593800873388
-0.009661554994325496
-0.07379625676775375
0.003342917148112249
0.025555465767471343
-0.020288248840180784
-0.024594875533918613
0.01589417635996295
-0.00031287805880539127
-0.00413722812270572
0.03318022697334737
-0.02720056734677752
-0.04181241873682996
-0.010246297278470783
0.0029636577268281243
-0.025843828034798472
0.0006810588166774605
-0.01948357903779651
-0.0012310711856460433
0.0007594707158135275
0.009148464113671729
-0.006683027248255417
-0.00405267286288031
-0.0038495774849888437
0.004691126459149108
0.015104673320554861
0.02176778449919252
0.0054775631746054815
0.008123034468197725
-0.0006537199434942512
-0.038725033183729725
-0.012704182868390281
0.024092328316740564
-0.0026353865377819474
0.005504719140021707
0.04149077668205682
-0.07031929813299893
0.009938516221623837
0.003925000108303837
0.08925512673092903
0.044143239541333264
-0.021187282398681898
0.007376915553931503
0.018353844803022733
0.015576672328191996
-0.00043963955019661485
0.005600163645013934
-0.03841438109011495
-0.036774973199444595
-0.009037691639114458
0.00712300564399072
-0.0006711482564564123
0.006494730629396924
0.01741534323096734
0.0025470489678095843
-0.051950536196406084
-0.05898573893607838
-0.023801234341688952
0.007665074484880977
-0.00449519609662679
-0.007752315393135697
-0.002030233414611458
0.017376957004906726
-0.04975304891184563
0.020273902741187434
-0.006251125240449758
0.007100250269027163
0.009314957293540432
-0.0017860150220254212
-0.012570610857480671
-0.01881332186465939
0.008559942330601762
0.028177325916052015
0.005163967560038487
-0.01289333193999503
0.029487651635912156
0.05066320722280311
-0.023542284526268976
0.02690535475912556
-0.0021470099464494
-0.034373681028036854
0.007372208512467968
-0.0176018914214526
-0.02734050170491104
0.01679415443473124
0.007287826276992939
-0.022744461109306058
-0.017932829775666324
0.0032836280497829163
-0.015113287966636028
-0.016259838867797624
-0.013502541419635857
0.12278600869917876
0.09353482636140344
-0.0105517974632732
0.0007827039738556551
0.027643828209110117
-0.02211219088013168
-0.017527015719451446
0.024780357088866948
-0.01884221811667233
-0.013898051068149656
-0.009034317171136298
-0.02097110575766412
-0.003211692985863905
-0.020167586556618697
0.04040814462605222
-0.05876036944442102
-0.09296185731052185
-0.01213898926597314
0.05084458552652803
0.05752495103601605
-0.03317381595781915
-0.00685693810408991
0.008117802053521517
-0.006531668890281452
-0.0397008185652785
0.029523552656108797
0.015270756498235737
0.016704036167188328
0.02143350206739567
-0.027042572439884685
0.07361399326302817
0.13131500269246063
-0.058533784245546845
-0.02126717484138884
-0.08833469819629149
-0.007463110428763345
-0.017172792566994877
-0.028321477671694333
-0.0173116417909885
0.004074625390567653
-0.021339128908799614
-0.028820404118386482
0.04275002467713828
0.028936981168404718
-0.016697431800244023
-0.02015739532502112
0.05591797289166535
-0.00014910888575735923
-0.013127387653795697
0.018134148356987963
0.021355471162023708
0.009247513796295547
-0.02203779878932454
0.0019571061043607767
0.06863346298300618
0.017514007389600832
-0.01904582252864781
-0.011411295503069106
-0.00410018299756777
0.027326937860887465
-0.024494598673617612
-0.01657468225032281
-0.014318870898571147
-0.014745620818691244
0.01682878962525186
-0.07045218866987736
0.0372959553479229
0.09837358804907001
-0.013554810894610086
-0.001650541630585209
-0.07337117790346227
-0.013391320671064385
0.0072917257261542546
-0.0009709114991745903
-0.01944252392931781
0.05953838985548007
0.02121859758289573
-0.00973948903551712
-0.015432962887606635
0.010238138849546689
0.004440800563399489
-0.017630429468196457
-0.059992776624370255
-0.028266438259383728
-0.02101319100274201
-0.018473142183267805
-0.003540790521406313
-0.03269864434605845
0.005709264013377408
0.06932262525794218
-0.0030878309295595424
0.04892534240717847
0.013458288359840122
0.011918565137624404
-0.0023202123295502325
-0.014688498976272637
0.04087314357081657
0.001203309598328998
-0.008327910687159872
0.01036873404553346
0.008396732648598158
-0.018010032368781983
-0.025501976505756647
0.01662636411663742
0.01243802446511927
0.018432290917804545
-0.02223723993531664
0.024402871845643735
-0.09461057975813326
-0.06407029340832911
0.03634930955001802
-0.00847115603795891
-0.002126646787736307
-0.01225037179896876
-0.04050138386264993
-0.014013802398794354
-0.015947263180022122
-0.020280832009303706
-0.020717060156074153
-0.03874750159727627
-0.08139206479644623
0.05585979507031814
0.06820110712202551
0.116413101613777
0.035376970759014435
0.012218548137513044
0.03955252732074519
-0.012261374545850282
0.10415316815449234
0.1131483153182087
-0.03049206014641483
-0.04324551781281504
-0.02919126876659511
-0.012660312968456358
-0.030484673591930418
-0.018455243770269
-0.03815818134631194
-0.008596969208135005
-0.003446620301540786
-0.03233005427660102
-0.012907990565017383
-0.0021374623220834156
0.025347426642073498
-0.014803458722177358
-0.05431805755121782
0.04373914740453333
0.05052176134631474
0.007286419863435278
0.012208094744653812
0.026680181567843048
0.014267725764186504
0.02194440849104948
0.061075777067564264
0.007423043066295943
0.022626065414243317
0.009440300267542395
-0.018844209806731762
-0.015502316022478079
0.00850207674041036
0.02138559341579861
-0.04840551752514462
-0.1144079573169887
-0.002248109179992211
-0.012029740079119859
-0.0314398508611962
-0.037532869903639854
0.08019576150027434
0.03602167467848235
0.0008364657928701986
-0.013517886620862184
0.0015400207890322736
0.016637691578961774
0.015010113204136
-0.00040990415948081
-0.03436461524565581
0.018598184086088234
0.027166946772072795
0.0035902812767004896
0.02123593937305559
0.025201049414329074
-0.03453405646855896
0.0004645499695286531
-0.10979312440535262
-0.06905389580436418
0.0006283659867864985
0.0147314993407677
-0.013351251211975971
-0.04794932151051637
0.015226115266313189
0.021255042000049722
-0.011513475635905822
0.07217653086476089
-0.12241767434660504
-0.06911086388673778
0.045304217553352316
0.0011404326400205895
-0.000798592943975489
0.021393046294069865
0.09896551985653212
0.00522248695829583
0.04312602477346703
0.009256062390944808
-0.011228181108973318
-0.0367898753967117
-0.06232078130718069
0.027639050865869395
0.03015285367148638
0.05643166517198498
-0.02578743460805241
0.03453825345269144
0.03816897866401656
-0.03953241871221803
0.015958400588800752
0.023303125636377132
-0.005818077935668878
-0.007829808201518788
0.003753689316261416
0.01758791993557085
-0.01959679046154525
0.00911764241425695
0.007654212817769933
0.017887335027084523
-0.09353875868310414
-0.08392757180124101
0.009173024227157524
-0.0039382611178905005
-0.023270214414112093
0.05567945343982044
0.15957050420103724
0.027422600507252363
-0.003409782699300369
-0.0073866225266428455
0.022003671263740688
0.01703023658728518
0.016089814737979727
-0.011896334142435284
0.029652845875560364
0.014092343650000337
-0.019392126571582097
-0.006197109086260012
-0.02514216659335285
0.020257150559391736
0.04186978966906554
0.012609623935622096
-0.1567654557790932
-0.0792793263476688
-0.030021968462737695
-0.129031415508848
0.06656653774392016
0.03173703934487603
0.019098153790944518
-0.12157307710346736
-0.0494589740818385
0.02493864954124769
-0.026275688552113426
0.08521562647950717
-0.10093103962048418
-0.10434551096572517
0.02861346275963579
0.02523712778994992
0.015024801548477285
0.04110636542168727
-0.04365602199491555
-0.05924135837575402
0.054628353393842234
0.11371341634494056
0.004073912498935291
0.0737628205991752
0.06399388864672763
0.046121624026498595
0.037497651303008014
0.003805645506137541
0.028457165272706874
-0.02947073681752981
0.15604274185000838
0.015111968111946122
0.025702208524117143
0.002823062161672451
-0.08379717310902755
-0.0455651735464405
0.028810650035737108
-0.007710190823093564
-0.02616929989892965
-0.009965510902018892
0.014694645140756997
-0.0047023838034621285
0.020288374705402
-0.015495674639240724
0.0335449630792169
-0.05231759713177643
-0.030149820585546626
0.011908915611601092
-0.023974596966062255
0.04402486936601744
-0.010587168540210917
-0.00030072586980658245
0.06340228685337734
0.040401741839565054
-0.13542789563065669
-0.13437766923836164
0.014442558620529336
-0.06500504397303569
-0.010705170478356563
-0.009610456375033655
0.030559680166543767
0.005118359840194665
-0.02335630874269475
-0.04935195039309814
-0.05449416057171817
-0.05180896299197062
0.06541050321848262
0.03022608260343671
-0.008838658099767228
0.014651043247060996
0.08315884502650647
0.023838187918667004
0.006160631115873578
0.07883668594113652
0.009363122756584885
0.11401168694987339
0.05588628326457401
-0.07486888125671325
0.05390941816024077
-0.11931706247228364
-0.11318637393365354
0.019148788741377598
0.002382764493883922
-0.037973771021523064
0.007058878120621537
0.027501481566234012
-0.011368961018697424
0.020043700858316537
0.03151173676928677
-0.019399392293861433
-0.00900735678024472
-0.015364490852292753
0.0074300580762963996
0.013813767709272557
0.03638637118554686
-0.009539021298060365
-0.02393143093544853
0.053806222293476424
0.022088718766094806
0.001134796655175421
-0.01129051855423831
-0.012478302060801992
0.0068592584294733
-0.02836493335905639
0.01599722509350637
-0.012997588921370278
0.005270215026790629
-0.02821921670278746
-0.015480302194193689
-0.03021061258020897
-0.00683050729515813
-0.019335395149541097
0.038711871874918605
0.0669423850346283
0.018853601290919838
-0.008913570478752016
0.03946154493202861
0.022842135789356326
-0.01787275742996625
-0.013167544387018358
-0.011801547384616142
-0.016147439463291256
0.0018818804733800403
-0.002157879798777306
-0.05802214760587775
-0.022281332150786124
-0.03330713373037714
0.04282041042199479
-0.03245983072540865
0.13595832316857862
0.02896745904682863
-0.004143108195423912
0.006842650866385871
0.001897457192052604
0.009174024175697246
-0.032499354766114034
-0.006309887497505037
-0.0044926624260971
-0.12792695118403738
-0.007639494612168917
0.01482924673487643
-0.004718112391822175
0.013256691253648546
0.04237992360826424
0.07548193894401009
-0.0038889312106338393
0.0035638051855048703
-0.002412615776832203
-0.008102468962962293
-0.0012837919074809405
-0.012275234706997236
-2.1933218855335562e-05
0.02034735795113979
0.021261116169579916
0.005712447347974428
-0.004581963604870207
0.013339603199143677
-0.02999615620996985
0.05781747812403714
-0.0907573081441322
-0.09151370202877743
-0.014763533188904623
0.0037733752923724646
0.009858753605720867
-0.02100030468398271
0.0030144529270111644
-0.014021616050505904
-0.008432160108406776
-0.021065945432568782
-0.002407636588163496
-0.022456026425590074
-0.01446786744911596
-0.030984128089648438
0.06328188548539748
0.18693683191428095
-0.005162707597178946
-0.13838632588836766
-0.041026565821329845
0.029394866221884964
0.029961699645194344
0.01620517142642185
0.0004442026437579724
-0.007054923577664075
0.02030281476090199
0.023126308898554687
