0
0.026984895910372
-0.0036097679650135108
0.0024466487700890147
-0.005633011571698833
0.013756293081927022
-0.0013634347957786387
-0.01995642616424587
0.019962468857034295
0.013436788916062202
-0.03225810759882714
0.002305821156059909
-0.16429361708504867
0.012741620510470847
0.05317201169457655
0.041645417812989007
-0.08315308647290207
-0.021546011194493005
0.07944425540718078
0.03921085084805035
0.03633015999827354
0.013032678128615157
0.00402359269946514
-0.034790052333976085
0.004108698923314837
0.022175781127878467
0.005155058998600771
-0.03484120673485663
-0.033021644953065414
-0.0009101184210441954
0.014348623101545189
-0.026228895223683654
0.006176432460175619
-0.012345442425091408
0.01191185465609286
0.0171851954852413
-0.021214358149355787
0.04003728915066097
-0.008338587187092123
0.0012029837495568959
-0.005079207894771423
-0.01124587887420173
0.04920840106331831
-0.008634393467926074
-0.028096392759953785
-0.04879689612089735
0.016805765073134284
-0.015099357143446452
-0.03140924209083838
-0.0024523947545086037
-0.01632881535081247
0.02063394709844521
-0.009209872992019339
0.056543239236705414
0.14657267995951093
-0.03716373285173431
-0.015537437914354418
0.024676118807280965
-0.036076024765023515
-0.0312424978507514
0.005474615135966169
-0.03386309335192528
-0.017615658884111415
-0.03396360540920172
-0.02919952995573316
0.002027718726289432
-0.002268044493357527
-0.022151852165569075
-0.03988298612355476
0.04955151936178213
0.06483204710054
-0.13095274005728688
0.004833444794800005
-0.03316979799394013
0.026859970105715364
0.052928507281352025
0.05485496036703982
0.05489146429125169
0.09786484954762302
0.06480397360661456
0.1180726575348222
-0.0429466277400321
-0.03485492778372368
0.005959421675407313
-0.005935732011276733
0.030806531345836944
0.04376047447238491
0.014836737686818995
-0.038017268941476244
0.009824873227876178
0.00027837374650485077
-0.027044403498385574
-0.005465940919061012
-0.037670654760601
-0.0018844348429901214
-0.08012644637554481
-0.07395977024959655
0.03922409463802712
0.0018376122424519135
-0.01834255469239916
-0.0016786713035455945
-0.04647834695729561
-0.0033100542405768594
-0.04245395850592024
-0.026471563145445
0.02035349518154284
-0.013246761417544375
0.0073860926319121115
0.005195851127566165
-0.021462296899208214
-0.021848903893583814
-0.03606529777851458
0.004808581739733428
-0.018050230561818818
0.05623425506520942
0.08678539391883826
-0.004497744949412626
-0.006741827976446465
0.002205287446010427
-0.036319083973549465
-0.003500850015245914
0.0017786264013897632
-0.008776639813959323
0.00942891095974563
0.05120954258290677
-0.009211878562767707
-0.017942815711913945
0.047042948292063375
0.016084083118518496
-0.0012102081546158066
-0.014922948822304037
-0.007712968438803999
-0.007679748997240423
0.007806898377053966
-0.016924586157367427
-0.010451912906789236
0.017929234687792447
-0.028617329749865042
-0.0368943833288972
0.03663795504368738
0.10582981833171118
-0.04483714032528661
-0.015886780625258858
0.041113017171712424
-0.0022737064221442158
0.006178505096536903
0.005648031432952427
0.02973169761635317
-0.005293750365488835
-0.025833745447228225
0.024970527490372492
0.013002539330496842
-0.02098853484078125
0.0026198521641381217
-0.06130556476643109
-0.05427355650719072
0.006745369416741248
-0.0072164436519236656
-0.009046338256247458
-0.023197887478824612
-0.06227320370749049
-0.009135685891310367
-0.031155743484878016
-0.06078251580313702
0.025240744279423823
0.020291587888142122
0.0005700883593788125
0.09371563318528334
0.01801128833364226
-0.011040420415970536
0.030317657693649087
0.07827139720300633
0.009801560162691179
0.016235875392403447
0.05363284465853593
0.00092438544370523
0.021565174853131464
0.019967331511380935
-0.01117664388250486
-0.016944865824485768
-0.004188374974312788
-0.000925832991650954
-0.026944686963063538
0.01780225325662121
0.039669024526937366
-0.02466702065433498
0.013991651167581928
0.001738004824031404
-0.12528601530439282
-0.007492052222072291
-0.009947847155261948
-0.005500085457401484
0.04513284216871992
-0.005322022397549914
-0.026113244917004227
-0.03979722240058347
-0.019740683449788278
-0.028149943491380454
0.0019030105630517139
0.006569151149075164
-0.006346873519778299
0.03513662581881299
-0.006923973171599307
-0.08406417590122929
0.0041377609128328986
0.10453192881268299
-0.012029674808410787
0.008986183595877275
-0.028138413288689802
-0.021482034638507404
0.00048539889651604825
0.006435800393520337
-0.04511064158547998
0.03892209595798678
0.05013991960195376
-0.019093927707741883
-0.034387737964470054
-0.01751383414250501
-0.00212105084257399
0.007469628246744428
-0.01251745701056787
0.07722635125231377
0.09031143361148992
-0.01456627694410624
-0.04030579748243832
-0.023120881606486395
-0.030332619496731324
0.010700352650325984
0.027397151397082094
0.039420582045406126
0.09424359885448799
-0.013598484400437394
-0.014189135165981753
-0.025043505491441572
0.03359589931788632
0.0569709794398868
0.006641268452219104
-0.003649238430098267
0.04547152847587994
-0.0056295341945209005
-0.0583238049884005
-0.03440433331123622
-0.010551860633015577
-0.04464870483102985
-0.010831940780645158
0.001659012567563277
0.004113621305060498
-0.03504865910987582
0.002013191730559466
-0.02349446269356659
-0.0023192858571568498
0.0097460319955698
-0.0035806193031308726
-0.01993203406002399
0.11719120203067754
0.09554684991301086
-0.006823019220539985
-0.09520570712834885
-0.11127364611342964
-0.02789477341903413
-0.044058195017767005
0.04230873543706659
-0.008842827091340981
-0.06290962819671853
-0.008949599964284688
0.0025499792332937944
-0.023295583313972995
-0.01660960350914865
0.023795069578766505
-0.008204229677294922
0.07521774071400014
0.04431230966939121
-0.061574871397688385
0.07790009077164017
0.0809850744027431
0.018590896371498414
0.006996415353492948
-0.00503740810972242
-0.04207426472873098
-0.05292498447330923
-0.02943042634601791
-0.03303962921824298
-0.037089235035336
0.004965826666406635
-0.004371616017796119
-0.014786339429739321
-0.028086227949027185
-0.005041112537633855
0.04113215423942295
-0.025938603635583354
0.03804871586227489
0.022107248942271018
0.033638471753916
0.0346234738779788
-0.027851256210638137
-0.019741390527356836
-0.023862393038232645
-0.009716992496881958
0.02655711743555285
-0.001774475050893445
-0.003041338435242149
0.008914706821166938
-0.020739020620551687
-0.02765644353047338
0.09730955377736923
0.13274246338946644
-0.0040092887392827615
0.034733419646776176
0.14234995983250726
-0.009978833009675966
-0.14913373907631539
-0.10248312884641417
0.046496485054546934
-0.003679102451344433
0.004663698787713342
-0.02163964858086726
-0.016704737615060024
-0.0262572732603412
-0.02448594835141731
-0.02793345823808323
0.12100450978688375
0.05976729568364246
-0.04189560267297281
0.028557859564003203
0.026141406968761372
-0.015387439776035456
-0.03140510795094824
-0.014902090912800642
0.006725693907030224
0.022179508330494636
0.04027081520789852
0.007931301868218776
0.036074158797766105
-0.023212671550544472
-0.013516114777905201
-0.029403637700791855
0.007947146439672637
0.00962350999647271
-0.011916422697190641
-0.01842162184694817
-0.027286404679146465
-0.009648410987414015
0.025790359226800043
-0.013000718374400819
0.011420669709118553
-0.12063567761328332
-0.08831876012754118
0.001954052976319921
0.007834950847035635
-0.032910552637257506
-0.04559163740380376
0.0052393864623706595
0.005454842895950625
0.08353204964192235
-0.08331553713326016
0.010275752375892332
-0.016680423566441605
0.01815347031725969
0.006201296395928812
-0.017577690286478306
-0.025699799520345182
-0.010586119892089425
0.06350779065813417
0.02173777121477724
-0.009240497235608455
0.003936829734081596
0.015582358799573894
0.022995588768146245
0.013685791649385352
-0.012993080696496899
-0.041481298957134774
-0.07441658640564003
-0.011020489638787828
-0.049302263984869095
0.062115907597613554
0.16434619736672712
-0.010038364874615817
-0.03591685425655884
-0.0027168947709802264
-0.010454657544859249
-0.0072847510800627445
-0.005686272937014005
0.05628635016219992
0.0030116503867464238
-0.03293166088082647
-0.034565843177280904
-0.007706945866075692
-0.017320159899270486
0.12275453862491484
0.07977329840715376
0.07320395155027556
0.08297136767195001
-0.0010082304640934598
-0.008223881548188776
-0.0365223092112369
0.11084230593192144
-0.012250349430169071
0.018495474085093867
-0.03194516815709238
-0.02173212273118457
-0.031885659616679704
0.0690755531162532
0.03568616104935453
-0.11650722794603637
-0.05074622620899583
-0.01290743878996244
-0.03348475895502054
-0.04020862989804901
-0.11521049382782898
0.011149054235349731
-0.051776739447737946
0.029524387906356683
-0.004653266153335576
0.038132867352969384
0.03275907283936331
0.013676668573783484
0.006824701770412277
0.024100769244482872
0.018191457751253
-0.0007371072751614224
-0.014970668591362582
0.05603374289065569
0.016736379053049578
0.0006947810321308749
-0.017486803407166723
0.05721454102832461
-0.06541435604909808
-0.08245877303310342
-0.04004803306410691
-0.0023962655861397685
-0.13906503772091494
-0.022335885758616107
0.026603949081607813
-0.023163458976130487
0.03904367977590497
0.023751775884571117
-7.221379742346596e-05
0.06146788971590192
0.01664401296314979
0.016397557542151435
-0.02678800408921623
0.005085882881753871
0.00834605359413338
0.008140626787248821
-0.0016589899611675258
0.027591185877151564
0.003664612241660757
0.002085005245068387
0.008998008045881072
-0.017533529828767495
-0.009172516624233408
0.001725334945735883
-0.018785996786362454
0.041963247937386115
-0.01599653086770839
0.0480732483731752
-0.14285927379065191
-0.1190419948506974
0.016400551122720645
-0.011119852652556907
-0.010459775539783134
0.06668102413300198
0.06875362344815632
-0.01984773752927967
-0.025143550402395253
-0.004767607393301901
0.05476530312481522
0.021543816377214735
0.001765689642450656
0.015538599453972976
0.040876712124558616
0.022688331784248696
-0.01986083249160687
0.03532951872603983
-0.003879116350012795
0.006269499988954797
0.023507553865429676
-0.002976402300526502
-0.035354695389514725
-0.020442116115691494
-0.0034097598920619187
0.06008511671924217
-0.00014388066684035825
0.0017637835636719864
0.00709914751683964
0.011197080334995838
-0.009636615382042015
0.08922355256063892
0.04239678425938676
-0.014128495695610857
-0.016664533741185737
-0.002570281993552992
-0.0330387341407429
0.017741318709827508
0.015199758636936584
-0.02370499973236848
-0.005142149282286297
-0.03875056451205941
-0.09515540874834422
-0.19275139675336436
-0.026392228360766712
0.006251777586173233
-0.030038632947293722
-0.005541725426885692
0.014650174937261229
0.03994538012133254
-0.03155459469348832
0.06631938225021683
0.11923865176485204
-0.016239252772603116
0.04371304329552959
0.047443796622842906
0.04806165869810783
0.016144745326735755
0.07398132212448666
0.022950911399484963
-0.0269048295874521
-0.04808147512200387
-0.02760017654926101
0.0004080650704616999
-0.03400929027079759
0.001263067354614674
-0.1316291456916415
-0.025233815471788837
0.013270763286357045
0.009910052158343969
0.08718556532730425
-0.01594444437567087
-0.012155093998423667
0.003459459481002106
0.00846415429561387
0.02502857553083587
0.04134645618926068
0.01418940516148106
-0.013774840286927225
0.015624016972591871
-0.009096292442563674
-0.01225638878367574
0.0051231139829860314
0.026676447111927914
-0.03525780046811177
-0.043544822027792224
0.0393731143073192
0.021022774029833966
0.02445059830177587
0.0016389314304187453
-0.031607830110451623
-0.04754843277157202
-0.005257613790193089
-0.04519473732056843
0.042150366287780766
0.0802827303653915
-0.050565856709886926
-0.052397534032290534
0.013247505904561774
0.005237256219807096
0.004382776005652594
-0.02895359210825949
0.012529507177421014
-0.004673317763141812
-0.016684801681163042
0.017672869635051117
-0.011637658157131539
0.020258100606869642
-0.011478334865548844
0.01250386921734999
-0.0032444007207594727
0.024308503308095933
-0.015889331988883412
0.05357254655517456
0.09241741871602097
-0.048080663726548026
-0.06803449835357905
0.022080152743168713
-0.13256493417913642
-0.031436442946235814
0.00603024782091694
-0.005758864427054078
-0.0003932190858638006
0.011705386777918478
0.020973906625193967
-0.01700543740074384
0.007511895693215888
-0.03614486746781646
-0.007872786964357899
0.01266164239636206
0.006907432773633568
-0.00865153554219549
-0.016556429383155897
0.029457926694052627
0.021930796793059124
-0.017350891503503194
-0.024868105630887472
-0.02904609646176599
-0.05133940422216476
0.062163010134928684
0.05125487320161499
0.01811878222769442
-0.03403167203908678
-0.01814775651015207
-0.015237598825700936
-0.0005078497620262278
-0.01294972788188551
-0.0022199116794576665
0.07596574814174255
-0.0325165122165041
-0.019125343944178773
0.016886381730941417
0.04327396474299532
-0.011682090301409487
0.034213318037376345
0.013416032608720447
0.15803865517697036
0.1262920038452673
-0.04094530386993036
-0.0017024697587663753
-0.05054182322841204
-0.01900129018427575
-0.005610486646329628
-0.020431744261078424
-0.008941456161319661
0.046685051242065144
-0.013852185008540095
-0.047325166898286516
-0.03706742237452419
-0.018227706756569626
-0.02919402682218006
-0.03252546437033946
-0.0036456647298042256
0.05111900723723103
-0.04586538980549442
0.035341614788723975
-0.00208497622923739
0.09688293986513938
0.10213651039363526
-0.06419098108824091
0.01565276668405239
-0.07152769420815899
-0.034438944132278125
-0.04667966813048734
0.030278796129602308
0.03445454997150508
0.0054825481996259055
0.023675374046502523
-0.0216078929861585
-0.04273630021351176
0.021423197095086548
-0.03164815042591218
-0.03942204218782576
0.04122031635348466
-0.029564175118581667
-0.007742978593189339
-0.062002699886625864
-0.05296332304204153
-0.007493809485197201
0.007707613075655162
0.014746030158885096
0.028815839621286008
0.023497130358283328
0.03640656140999521
-0.018462406165382597
0.033685998577446995
0.006241555891640813
0.01994846286040501
-0.08555442352318665
-0.008486329231647214
0.015534725026521272
0.03400176631411076
0.006012116685532336
0.10014106407711443
0.060243508366800404
-0.09679131424365844
0.008134318543776022
0.03828050712911831
0.04728697213695362
0.027460834612647964
-0.014229485653968825
0.005720331882863957
-0.05486263236276656
-0.0827208817768071
0.02398634635606611
-0.015612687724109836
-0.011548406717879935
-0.0342010971672355
0.02509654545782207
0.02018168101153603
-0.0011929255958980014
-0.016356638535613217
0.00761686539740492
-0.030124342800921203
0.01014743864396981
0.010262899520303476
0.01154904024983167
-0.02014016810374546
-0.0011008293992637052
-0.012426775752263959
0.011572099971070969
0.10778431018781615
0.016690012566301954
-0.00672111634805067
0.024742343491137592
-0.029149791131776643
-0.06299566195209708
0.0066207131623479045
0.03989086514894593
0.003721582718377568
-0.055445157296734264
-0.03165962201326885
-0.044535462585122934
0.0006730790786636934
0.016564158682674846
0.006237183372815288
0.004287612433696182
0.00975856782089193
0.052927566558888334
-0.0005816954667762883
-0.014534623020352381
0.007278729616464297
0.01480794082929047
-0.02221956431327175
-0.012779235805399681
-0.1639667312463442
-0.039718478945811854
-0.005822627870910937
-0.05068985700004142
-0.0011883159308236624
-0.039088066004804974
-0.027284742250738597
0.04153626657536846
0.04441481677576121
-0.010948285778989562
-0.003857160648802641
-0.025213207925404796
-0.007724076605243165
-0.002306311972939042
-0.015030231318938233
-0.016735363682893755
0.017090804492157434
0.13055137231543168
0.1646686289650843
-0.005394185944542246
0.009001747311058834
-0.02608583374483265
0.04160009298201
0.08613244568562371
-0.030635391329512658
-0.008053598330188505
0.020677288771378036
0.015348902678071662
-0.027453920847833126
-0.024961925226841587
-0.014150103477705586
-0.04393540215358507
-0.03879505634906365
-0.023376058528293994
0.01807999821031736
0.033988675693340215
0.012414077674163025
-0.06821200029089786
0.10639865451873026
0.12430185136419812
0.034355650691229686
-0.01788575997635416
-0.009995162225830018
-0.03530270067476716
-0.07751011251687683
-0.02265480473157147
-0.024922120897937744
0.009059714979673271
-0.03926265662377355
-0.027825262350475447
-0.015262816173718052
-0.021512220680526585
0.1288207199274382
0.025182097223468924
-0.0241015951237505
0.016059718123922248
0.03448392583655458
0.010153531652334496
-0.017710653746337377
0.018586135977515197
-0.012873843556161462
0.013887078348813656
-0.019516656829894244
-0.01250981211631439
-0.01699468209337589
-0.008870594439809972
-0.012892882888137855
-0.033371080750783176
-0.02322599181121516
-0.02094743411200229
-0.015371523553687762
-0.04768454031893326
-0.007504679504907819
0.022822165023829534
0.017152553792566808
-0.006689270850674624
-0.01435462319509602
0.006804721719749962
0.010498836740370127
-0.006151104299572413
0.014386137962274777
0.014056710666433056
0.022134528166111903
0.016232720142628793
-0.034371057567132345
0.0042322596281388946
0.017187260038618965
-0.003893137368855614
0.0005876773770080034
-0.07377755426323436
-0.001915907703846099
0.025083174975320546
0.06824245648870317
0.026218820344637506
-0.04258153368883287
-0.02920359890016693
0.016232194680551572
-0.00915668526472988
0.1174461306533648
0.029062773936221566
-0.04214054616365053
0.01444520694454795
0.023447693206569722
-0.01214449508916815
-0.0021596089315204323
0.010561539380741938
-0.002502828313779167
-0.011212043211807838
-0.0027291729521762304
0.019299451878099953
0.02672048400270253
-0.008734371786575231
0.019505217976097104
0.005574553168984477
0.0012582481409351624
0.021385689346316114
0.050594248696496785
-0.1071170582388281
-0.059575150174680506
0.012614428999511486
0.01092306884405161
0.0032480676046071507
-0.010319664644470988
0.013120345899626951
0.03155148313211243
-0.028749546280486416
-0.003337285821022506
-0.1420101226335135
-0.015460598142885914
0.0061137888274426025
-0.0007729050110724324
0.030850102220003263
-0.023582842895721427
-0.04099873508261203
0.00562471503501185
0.0431603914841002
0.01632121404453532
-0.0190844007080033
-0.032851888091059905
0.006714917138393489
0.027874366431710887
0.023806611146358254
0.03358319581218712
-0.030877735393599604
-0.05610944296847947
-0.03202308458254276
-0.006568175373845
-0.00803529238957967
-0.007501977143989379
-0.005914285452883286
-0.0035799807671618765
-0.0043839454312189765
-0.024497250250551845
0.00022218543851785965
0.01697690763329627
0.05610055412977774
0.00045793617447309937
-0.0023386063141447666
0.039340151704632315
-0.043783056755503855
0.027972267846213306
0.1033675560409454
0.04707004107661609
-0.05062284519343016
-0.07854774702465063
0.007740429204508675
-0.010647155109730735
0.047725766161668265
-0.016778056331132954
0.06390946638011583
0.022728760290696606
0.05522772954173626
0.06054955340429968
0.030225182552562402
-0.04225173139147946
-0.0014662120587357107
-0.008983925843698002
-0.012095162538530733
-0.009196946541190958
0.004059932624705205
-0.0006813241893335358
-0.014649146753829287
-0.03679076593331085
3.0334524710119058e-05
-0.030296702510555662
0.009217662534240806
-0.020088663602648042
-0.0035984545140791044
0.054700848426841316
0.02465890911757509
-0.021308968590336996
-0.060230143315688926
-0.04013089629572589
-0.03550869356780636
-0.05982614395765846
0.056739585746892925
-0.0033389713671958332
0.014450342636161516
0.0017441599635851241
-0.014562196952699053
-0.019136014197747835
0.00898071285628542
-0.02638833138353717
0.014872675199190864
0.006552669458331267
0.0058570099697673825
0.006694987672230253
0.0547126379321931
-0.01304769498906772
-0.002792372452883389
-0.029715874104080924
-0.04593433507090556
-0.013355142415101176
0.0023743031679591305
-0.008835451748430341
0.039505421908647496
0.04674852786433556
0.04293049739306706
0.05095414495581121
-0.017739010227576287
-0.027687578759638648
0.003228855967844786
-0.013622844294965599
-0.027067290288479068
0.1445600170054315
0.005358937673603154
0.010735257821895664
0.0033052931261935573
-0.07206004934767944
-0.1073948513443056
-0.0011215830229057173
-0.04626682133422643
0.015322818377424783
0.012566683077423394
-0.005756049367149415
-0.035878907764555226
-0.05237722188774284
0.041739633050075414
0.04009937314177947
-0.013392863323515664
-0.030266686297324683
0.005286158823205984
0.07214564136278433
0.05494053869693962
-0.02974423610770992
0.011265331592434613
-0.027623440645292055
0.022516806397296356
0.012745974011995042
-0.0020767271031826525
0.003827164036633699
0.015471372361225472
-0.0009663409705393171
-0.001971291716692485
0.004137332919524701
0.006079799391093923
-0.10955822073037214
0.00010724696319983869
-0.0028594609263513037
-0.02486788364037088
-0.014564026863317292
0.018959630247364138
-0.004151162287965499
-0.004581488431690146
0.005627173726596554
0.011195539283250022
-0.025495637734323534
0.10538335386399703
0.08343207601800436
0.03651105433734808
0.03114936552610464
0.009133544697189043
-0.0032799271284294214
-0.004626487056747575
0.012336621599359554
0.01392908301017857
-0.093413595823737
-0.004825918009214936
8.260200514511623e-05
0.08165949958005729
0.030649110532484442
-0.015296439506063578
0.022824164018003554
0.03322714480626273
-0.04656804597332899
0.031014197214140494
0.02641514666572111
-0.024844840380412254
-0.03890640628219699
-0.05265044528919577
0.01673207938507577
-0.029023303564154043
-0.025464942857041855
0.007479434286266887
-0.015077082592468274
0.006809134801170994
-0.17367865924002232
-0.05343503649903321
-0.02017941081566487
-0.013720709756954438
0.008825196811449238
-0.016938588854161055
0.028830988392712743
0.05411465497037821
0.08026324000861831
0.020920280380440207
-0.00019157214508068595
-0.02498928151032961
-0.027112363674288112
0.014352112027185652
-0.006385162623842374
-0.014827161866997245
-0.032266798500323636
-0.006335581547739771
0.01910427041600506
0.02500679003660629
0.01568805438574167
0.0016105504489544297
0.00019357759338477562
0.044823086845100835
0.01725686806463448
0.008148598533310573
-0.004330944648942745
-0.023661322135068417
-0.06824139889425221
-0.03627411982940913
-0.005449658858312906
-0.005795040024085569
0.037386603135390085
0.0068841552135248864
0.0033354478867164404
-0.04547454226594521
-0.014851462450981213
0.04036551413423076
0.0074688605435618855
-0.01375625268205071
-0.029251508388439
0.018699566801442455
0.026474915008601614
0.05381394762792151
0.0015760456622698562
0.0020892203280494064
0.05437444660725879
-0.0017919849747687433
-0.010716518025377191
0.0018314870930088464
-0.01338153042562134
0.02660990659388078
0.04141983000619429
0.0011698276233123844
0.0065099571489417776
-0.04799004458608841
-0.04675782870020259
-0.021921127212063206
-0.04125664264038448
0.12990503532463402
0.04076107940005743
-0.020034725228508143
-0.010896509304841907
-0.0042853716887148365
-0.050138556465677164
-0.06444632532908573
0.060109273075511616
0.00696554506071093
0.005614888850562822
0.019397553789249577
-0.014500181652111357
-0.08608308563624022
-0.10854998362970782
0.00429403114967457
-0.00919763348317722
-0.004964602924904877
0.026309548883650533
0.010533233465900585
0.03895483633555046
0.04434947323205006
0.08832597665331017
0.034418677007556714
-0.018745788561730932
-0.04883154697981075
0.10341525712670475
0.10703045472413925
-0.014808885854822996
0.015472511044911565
0.008745900327478026
0.009978188129448829
-0.016252292014663123
-0.010865216610557227
-0.1653713463733049
-0.03875029942691383
-0.020205274296635833
-0.011364688625213478
0.019552935607161533
0.0014535872816338815
-0.03685311889893973
-0.02145942684229355
-0.018443535388635482
-0.008980462439426875
0.01721579044689985
-0.007187965534121143
0.032097289796589504
-0.006582728230144267
0.015423560498254319
-0.0021454861367805793
-0.009353869577876832
0.05889853414846161
0.06113360084794424
0.0066429623831441315
0.012206696355512511
0.025786235204909816
0.020536713810267556
-0.10984801304107922
-0.10413079487114973
-0.014830126205202215
-0.011689668189859519
0.003352611250643618
0.03000931947970008
0.035546788924471065
0.020771275134500673
0.01417839482331901
0.009321823853938387
0.020927767477305254
0.01231854451467971
0.00733062831514412
0.024324692587330287
-0.0012390178386784032
-0.08732100417063744
0.024360514971436046
0.018703914421499896
0.00972969508463451
-0.0019738201288992904
0.01829268401505806
-0.022919561034630387
0.005535041789855901
-0.02147671678852336
-0.020536295794214905
-0.010061442674639293
-0.010414493801955466
-0.03825626797717381
0.013222616751233027
0.004585202528359895
-0.006546032538363931
-0.017570722224722595
0.04939496563294734
0.051921637983353176
-0.0123889932182828
0.033965184740874156
0.07767166588859362
0.041168494844629366
-0.11364641919781052
-0.04889420292865002
0.01059400624910728
-0.008305174331184268
-0.003789590657284797
0.0027402540824321615
-0.05198305211679554
-0.008382571388467878
0.01995985513285745
0.013301570973362608
-0.0319079167211883
-0.007067676458574868
0.023017877252804183
0.02204795570554083
-0.0009205949686128681
0.00522055627213083
-0.009132912232126476
-0.008584475760360293
-0.01733925670467627
-0.03045025173800936
0.03754062582219413
0.028443453572379304
0.022554590415725245
0.03063882832116276
-0.005731890970774096
-0.0035692807140918358
0.02513345048144474
0.041237485447216775
-0.02494486471462321
-0.01228573067389644
0.003019067646114299
-0.009696794529135844
-0.009238193736385618
-0.030054704727375474
-0.004722871884702189
-0.008154735126454484
0.0062501974126793645
0.005328352372179238
0.0014835846207001888
0.023763622173672522
0.018886494478897696
-0.09269988330070598
0.10666303111745726
-0.02064192218547346
0.005102115463404488
-0.008985171718482255
0.03887599530248316
0.031259840942856054
-0.03398592234533597
0.03329390945548328
0.01554894367764619
-0.029786600547948416
-0.06191765416578268
0.009001549367064144
-0.0668310304448755
0.021325687949882214
-0.015752605318479662
-0.07647610418201206
-0.009682896860460538
-0.0006839520023241772
0.03323095394021208
0.02151363182156883
0.059906923538014675
0.009746372442428783
0.02224850605859234
0.02706398159787338
-0.02556398365829283
-0.030970382676396947
-0.025916572991169427
-0.01244569346070879
-0.008435940291088583
0.013452011835865764
0.03624114934334758
-0.024559386499389674
-0.002173882921661307
-0.017161470282129034
0.014485386903969333
-0.023040559191802312
0.031031510888787094
-0.04648078271343294
-0.06638664086070095
-0.14046644499678518
-0.046135546099031935
-0.023969791140934706
0.1600305351735923
0.026827888958639388
-0.03372317115089401
-0.031048494686767496
0.023641154237558703
-0.017696339945699795
-0.0002607780739018017
0.15146392042879586
0.02437655646659594
0.029721259070119556
0.049205425124675385
0.03714906436380657
-0.04027041311313479
0.08757981291844948
0.04484210145592717
-0.012275816813070899
-0.0013496779204189165
-0.040699558655786366
-0.03697027683902334
-0.0015459693666398065
0.005913679746759292
-0.008128920019665552
-0.006441924378505054
-0.010976331649810126
-0.03568533831921012
-0.05622224850556812
-0.07673881503532776
-0.0019920690299233645
0.0036671615769635732
-0.02584434676145148
-0.005094883732290949
0.003301178676411434
0.054240368443965827
-0.003735898275558557
-0.011638613662768601
0.009638943322990041
-0.02473231271530827
-0.015269804273093619
-0.011199791728466049
0.007291795388062116
-0.05569655285343172
0.11730664881168074
0.16937621361417432
-0.01998875412073288
-0.04900312684063595
0.01020593881583515
-0.001723206051204949
-0.041478033628362464
0.009831801039168727
-0.0027422029763411277
-0.012743182554760967
0.03563617391498543
0.016751427859230252
0.009732534783429947
0.04343121958243082
0.07848717321937836
-0.02066773864191542
0.024976689161060012
0.014451089229411284
0.01032865321963095
-0.029939553187161575
0.01139372031329938
-0.009447485227033588
-0.04258821223766578
-0.1444344957471861
-0.054804485984378475
0.0020790718142487566
0.044837517455926706
0.009397833198096955
0.026629131673644172
-0.00718718973667322
0.008488785528536174
0.07801640733874823
-0.028440631393862513
-0.013844232199275183
-0.0014165137407681613
0.021194885519280584
-0.011919529428718025
0.021170014441676398
-0.023849798367617733
-0.05418065429307387
-0.018037035384513834
-0.01594700658879492
-0.021382376844441994
-0.0018800586762511549
0.038313243628278995
0.03165906998830477
0.055152755128594855
-0.04526139696290364
-0.055990697475806095
0.0358572364348861
0.11189026066260786
-0.026793465942902512
-0.09214222911101815
-0.060953242577665524
-0.005805596564483541
-0.02844372640966085
-0.03984816141289607
-0.0033581679889189615
0.02940877231272081
0.0407541773759843
-0.026303412593200345
-0.021800474495823625
-0.008232167398751544
-0.017870994563174314
-0.023724430051884106
0.008352814020774424
0.014514542338044532
0.029141100209429185
0.014559330043646446
0.01209923803698352
-0.05370091568854438
-0.032462366803125225
0.0316127559671515
0.031213975730658986
-0.00849985236973457
-0.04401974110467721
-0.024922512435787338
-0.01608337629940939
0.04182047522282157
0.01997635144211586
0.11300192838417814
0.01601442981144565
-0.05176348984726811
-0.017588275973811126
0.0028738861620972193
-0.004693591389221694
-0.03317337629858837
-0.0019680783560355164
-0.05687078282956847
0.08997416904969112
0.027710273813738355
-0.016791724469039968
0.004954276993688874
0.015408328025504394
-0.005218169024502071
0.023909717489301156
0.0004333631485299083
-0.01946229327998731
-0.03932439361103127
0.12153969121274322
0.055643612774684645
0.03604131396983061
0.013347925742314916
0.008712033527874773
0.03000486422906745
-0.037391266779720767
-0.003656376588913553
-0.007016127939349378
-0.00849050430345151
-0.015649898592265333
-0.04631168553707111
-0.016554538199057178
-0.002076594049598592
-0.011300055309235285
-0.012053823825997262
0.011259978603822675
-0.013637723165504398
-0.06222464018240576
-0.010262795528730833
0.015340387994050474
0.007829238648287839
0.004363833581198106
-0.016817757691220903
0.11915825059787204
0.06074103256839485
-0.03175240947592312
0.0391248139430943
0.013352359768194726
-0.025998538028639582
0.04426916089164109
0.04810663740352089
-0.0304091157820614
-0.02508932905141731
-0.008363480614628003
0.0017325852950643842
-0.024781946703099633
0.015892636811502246
-0.0850588385903155
-0.14707807641508663
0.006262313874826171
-0.032566873487311895
0.04346679193763397
0.025573685119954583
-0.017354451343019082
0.011311663565678752
0.034161653723072664
-0.004690702339440188
0.07758963641804949
-0.003286502925468114
-0.03388474650555086
-0.00683840433776843
-0.009916737958674402
-0.13479698185318725
-0.055483244119980284
0.025928086232124427
0.021148130849678023
-0.007606242004330148
-0.017292597427477203
0.0023231985987598736
0.003476680890334071
-0.013959923016510722
-0.07149616761942171
0.012943092919046124
-0.0007568581481388267
-0.02080819628985822
0.042419612315232585
0.016399274025263474
0.02086562653113232
-0.004725648366248491
0.1378101057695338
0.0282387336646787
-0.019145469653707756
0.04915677592403054
0.0014187906506480457
-0.014548596827151233
0.05402967505496624
0.029024709545403135
0.005215517477614764
0.05266382104937227
0.03132766696399487
0.03704664157504801
-0.021689161045116864
-0.03743416937457483
-0.00968043930066097
0.009782914907747808
-0.06217882000312715
-0.05882932469453963
0.013236750551245733
0.00877410825425126
-0.008640919800892786
-0.031134109642497347
-0.09083058793240363
-0.012265324199882233
0.023160020158728284
0.0072113094528740065
-0.015081192693417485
0.007744857985240403
-0.010672668420373429
0.010027248178097978
0.005883491176924705
0.0038163988652150658
-0.016708151266787076
0.02947899267699035
0.1327633426444003
-0.030407569118458447
0.010336522055290008
