0
-0.011961681771963158
-0.04741824055542332
-0.024010052060357213
0.008614009481504224
-0.010108770480723806
-0.005777663524016766
-0.015099416780411778
0.018220655263240133
0.003437948330566262
-0.04032084496263661
0.03706474312758073
-0.15351274257722414
-0.11160389457243886
0.0801119236200013
-0.006310323440895156
-0.04288884613875492
-0.011979486765333183
0.056372816041054354
0.05524766409215854
0.012452395576513885
0.04109772568431149
0.016895122094644336
-0.006819741891292917
-0.03578385046388223
0.011934553783668252
0.05699870828583925
-0.03127902295251546
-0.01914603620256848
-0.027798058239478035
-0.014872028114081923
-0.027509290152837422
0.001490316579170927
0.04982792116543194
0.07440276405765964
0.02587425813455325
-0.007148837701638355
-0.028851437658852952
-0.03522241167665116
0.01683253164187853
0.016861758658198184
0.04075491117061008
0.035107229823841214
0.00760981971982838
-0.018658855799038587
0.01687702076352153
0.008079878131531767
0.003280727769107007
0.0022584001920882097
0.019992527124473778
-0.008547321582062268
0.017731368622828068
0.027283907923535286
-0.003674963348229716
-0.02146561942534286
0.006936694901441702
0.01462469855267103
-0.01703370477358072
-0.024495666899589576
-0.034270325887737284
0.00316293756103486
-0.01571006986275537
-0.02318898475328987
-0.029634501722274983
-0.01816970188284113
-0.026737536099169793
-0.038057127988334286
-0.006770501030557681
-0.009666282935828257
-0.06394418396019952
0.014544829584591535
-0.023631391927386683
0.09532376260549091
0.019321358743139398
0.004565428401231676
0.010472209882762998
-0.012547097990132976
0.0955088771928775
0.0021164437674536488
0.027928329231972446
0.025267638943619903
-0.043035791799924346
-0.01955842811978132
0.04944851717455293
0.0005371926526066038
-0.014008889395932297
-0.032214424854751365
0.029666524532464437
-0.022055320341238006
-0.10976160919019708
-0.01958351449440125
-0.02496144231681837
0.008381247355359915
-0.014202662471314634
-0.009161850233480318
-0.004185248688443842
-0.0008312010602477605
-0.041931287999344154
0.05202892481941302
0.1482629593536083
-0.021707362694991027
-0.01797667556428775
0.010725017255029745
-0.010470381828264479
0.018071358200672245
0.08442789539498277
0.09799019523610228
-0.07832599824645765
-0.1051566274475023
-0.003008869944891639
0.005567208889752861
-0.01333517761423195
-0.010936561236732667
-0.0069107217554133255
0.0399708625814848
-0.022110671804186518
-0.025078113828515426
-0.018186778616037583
-0.0502033261524371
-0.01462023939346077
0.008914684032965161
-0.0144584035488474
-0.02212254274724799
0.016785044913533543
-0.008798470526895905
0.009369746398259542
-0.008740620620212889
-0.023438907211315384
-0.047154984770446245
0.0029405756982606866
0.027088864438168655
-0.00367384629395018
0.024700284972523436
0.09849479894511574
0.03638462854399343
-0.02190491927690641
0.02759374688591149
0.0020490539894089184
-0.0034643798965838255
0.01112456068477581
0.14641877546950016
0.0010093837659901127
-0.0050982106141858
0.04756023144221571
-0.018562355731100197
0.050830053858590164
0.03025476813694733
-0.06644665126877038
-0.024223992288854815
0.005750271065703419
-0.030680635019148486
-0.008095957966632837
-0.020811356866679235
-0.01224952045021917
-0.010980369920669409
-0.04954159647800069
-0.03795207531198141
-0.016336106989542503
-0.001617678733966384
-0.0039815966451256435
-0.008516378127152984
-0.029510210610621906
-0.02152691095708598
0.07030504421175297
-0.008788877639727013
0.06219718118200236
0.015014463857429876
0.03947450943225719
0.0025426019336687216
-0.014480469466481755
-0.02318418384369508
-0.010461750301949197
-0.02460613455369588
0.020894389640512975
0.014241983918408564
-0.01390243944857675
0.016809358123695394
-0.006558729038789915
-0.05237342446677601
-0.005746013674285801
0.028294036792249327
0.004885547628987507
-0.005096691295360379
0.026642900481915265
0.020078974266296314
-0.0008607895475992566
-0.06682946980108574
-0.03898548840052279
-0.08572598228213665
-0.09218828318618154
0.04734219026274971
0.03619326022082115
-0.004647678869930319
0.01967313100974858
0.0342932741339735
0.010745921202704869
0.03129411502398018
0.006462805020106509
0.007242729233815961
-0.012765546943721296
-0.0020693136272351025
0.024432493555617524
-0.017488576591335847
-0.037923297765867184
0.013219760292088517
0.011688570824764604
0.013917202312670835
0.014209891381640945
-0.012644562631498291
0.03463737879464239
0.019471042961264864
-0.023838611234843737
0.005984263202878942
-0.0047303430927379
-0.0323085449274593
0.17475772064819628
0.043864473141744624
-0.03716440987562086
-0.007576014724609505
0.00904892050793869
-0.05918662445690378
-0.06513704426374264
0.005903714817462666
-0.03886563423565687
0.01829103243263893
-0.013894391637072704
-0.01243913328501846
-0.014042151388024162
0.02140837781627429
0.018510204772744242
-0.01897553396577959
0.015256055012036524
0.031053848722642233
-0.04295329429962914
-0.04318487394319377
0.012975034247308113
0.011864955955029384
0.0035069486061716716
-0.020358928358371234
0.0339610222063883
0.024469982927611888
-0.038459661532029316
-0.009001570126152292
0.02170052492541668
-0.03275787485519367
-0.038497608904387075
0.051822357802563904
0.008348416064667866
-0.01836574569747218
0.008247204399462991
0.01681879987492904
0.01753821468842493
-0.012014735407442762
-0.05111898048136582
0.011795739113789765
0.0018491141892899826
0.07255758633957385
0.008564204486672236
-0.0684322416897306
-0.00882307925196061
0.021741386419952175
0.01285105650993568
-0.03212345552715401
-0.08411440559700137
-0.05235381469158802
-0.06708149084309188
-0.026129110162598366
0.014990497388466532
0.007682620081841011
0.026445069421580647
-0.021622825965814767
0.04627683781980263
0.12164555278210079
0.024154910485937618
-0.014512711424975315
0.05444648754490522
0.048509344161373875
0.06815332118376785
-0.04637136533839803
-0.07171370439648661
0.00830363658769404
-0.029210434948856747
0.0026947306013983766
0.020540425188911852
-0.04057130630753761
-0.01267627379347139
-0.04067361452816196
0.01922341161511962
0.03411829556482136
-0.03368582723068187
0.09655596921792332
0.1769806413109059
-0.004059306595520809
0.04697120467555593
-0.052193640005359906
-0.0868794856869723
-0.051207926491845024
-0.05208580494504424
-0.01359952081716353
0.00442438307340482
0.017077427887279614
0.05658890968997838
0.031026675119546945
0.010730456072512242
0.046808722527369735
-0.017908853285969414
0.01931024196829033
-0.0622807787508884
-0.008855354700880426
-0.05014704734758868
-0.032695959660976194
0.07079991305473529
-0.0018806060966961148
-0.023357064274803448
0.0303511380447649
-0.041372311310193956
-0.02157780095158749
-0.010680291713510112
0.01345952921451978
0.010241570209123106
0.002050999600584533
-0.04455202977132914
0.008356983789584629
-0.017926967627672815
0.16443905620608532
-0.06051346302082878
-0.138183231525352
0.030030941420131334
0.009761382192399788
0.021597960959319797
-0.017868964928826336
0.05227917641646517
0.018166484077319744
-0.003034643214966304
0.01678380043063434
-0.030407038499139113
0.01421894063139481
0.021963346098263566
0.03640787732361466
-0.13906047794804852
-0.0783259060031365
0.05890506805819782
-0.012007569312312432
0.05932904083792678
0.0602247512937646
0.017737250728028765
-0.03451181317371908
-0.000265977578828598
0.03117350605279863
-0.014988250547233942
-0.028908165164638833
-0.12671199268302066
-0.07360385773465825
0.07701796852124211
-0.004072083788099811
0.03338244185475279
-0.0021205345873909973
0.0028513617455534564
0.006779291446610478
0.0195325932600766
0.06238795383089059
0.02607310386688518
0.03742564515182011
0.007221425311091342
-0.0066650066637474
0.009310633126039046
0.0182597219100932
-0.04694647822171956
-0.05294669240834456
-0.009796261328122407
-0.019942689987859214
-0.01010915035867606
0.0014425274688145636
0.020178942363945053
0.012315974115209682
0.03191480836173043
-0.04780244992447536
0.04601425235390675
0.020021164324609292
0.01304783547720798
-0.02908433896093145
-0.006602387036715897
-0.010213487854098473
-0.03662328631938118
0.011835057187226248
0.007859511472211814
-0.05841927353008844
-0.018218118558807502
0.009321001307375412
0.003662779397559217
0.03711024149624444
-0.021827100892641952
0.005537499083412382
-0.04939082192415412
-0.021547816599274044
0.014976728642465511
0.08426249259444128
-0.027769065616779342
-0.03510738926855456
0.002189021210558254
-0.017575484531185268
-0.02970316284460169
-0.018281073806199602
-0.012465469096710204
0.07819018458993782
0.10482820965236456
0.02814305594891979
-0.06629494600962774
-0.06285875361808307
0.02780946561002752
0.00430325420376734
-0.011294837916796004
-0.030918797133578386
0.042291613633218275
-0.0035720990087741962
0.006644791522064869
-0.009348753846041996
0.023225458199930844
0.039586191007559356
0.06782625729197436
-0.008256737112970829
0.026472588106726903
-0.04228740315607738
-0.09176848525659062
0.006718031405483791
-0.011137059791909052
-0.017750178189776065
0.028541931472028537
0.059439033592854296
-0.015089535652996063
-0.028875478942090013
0.057953373454952405
-0.022536172497610613
-0.026066530740135173
0.014646255953591931
0.0035798526952856083
0.003907140695905525
0.013735391327121135
0.012469498130902028
-0.01671611820260281
0.013727192946466548
0.0007961890682214154
-0.0880162120195368
-0.022323654675492948
-0.0007767729654179241
0.02510797170840437
-0.002731546595042535
-0.012368287386418143
0.011248230588724996
0.016739149512077278
-0.03529008188546618
0.006308261783177241
0.009877548659620521
-0.0056765570898963495
0.015669781088502956
-0.050042986418262714
0.002409286295646693
-0.04707323876209502
0.059160261466986795
0.1653430394047264
-0.05651790193201197
0.0006798970315955022
0.042267086992085666
0.036579471996454276
-0.011038999173780697
-0.02248297478518047
-0.011074069510070108
-0.04340059573554518
0.00559743751960795
0.04416216106960136
-0.046809778028063014
-0.009563252303097266
0.04426739466327537
-0.06891961965639158
-0.08321737415438535
0.06315896274699939
-0.002435045925158419
0.05658699027814155
-0.032607339195517074
0.0007457654185508173
-0.016829147775231822
-0.008789250154563465
-0.023631210767217525
0.01641144006805235
0.007282690185784922
0.04759936053564893
0.045810928216785785
-0.003501173826117549
-0.016789059455803845
0.04756830495564437
-0.08668727067252928
-0.08670447937407279
0.016611695080231553
0.0027618982677814884
0.013444313736006007
-0.00014014785129511738
0.06695839498896618
0.04769007287206618
-0.09670521829289544
-0.13129969488270885
0.028418934722804937
-0.001143767226537023
-0.007400042790867016
-0.01973588145321624
-0.0014646488607001733
-0.000713117044048474
-0.01672706387231875
0.022812019228011703
0.11043422159086128
0.09313103765164815
-0.020481503049808177
0.0024806322542369427
-0.03628835950685615
0.004601583422395161
-0.01782299092841708
0.023573874927772968
-0.04254980287498865
-0.042164237677658374
0.006242383949948939
0.020066903633936487
0.021474204913330335
-0.003957949610582504
0.07114438316233081
0.015272126950252473
-0.053719271564471205
-0.023797729188582268
0.04545596580462976
0.031288410577206494
-0.014409104242382727
-0.01951797394978875
0.033176074957672635
0.02103927550938947
0.0070055001527077965
0.008383692018389158
-0.0010111095851101821
-0.0494429451643872
-0.01996193144409836
-0.014041054974853143
0.001032441574647474
-0.034740736632046465
-0.060060806393550124
0.06290843866782644
0.05342068572756912
-0.021414432162096417
-0.023627728246744483
0.01938770445024742
0.04608223150014054
0.0008571507520611064
-0.0161681814751743
0.015452896464043213
0.000514109679565327
0.0018559057415283803
0.04587541841684568
0.002127612052941535
-0.0547717715190775
-0.02258018767563931
0.008328843296435861
-0.004745137712792567
-0.021420064468264208
0.002884173396333275
-0.009101644024261783
-0.04269095264140309
-0.02063885514070838
0.014337287424961145
0.010108797045824638
0.042117508833122624
0.0062180268743785615
0.03380211515174816
-0.02851268090193761
-0.013851535560701842
0.005996105622505284
0.003963446608501377
0.0232853684528084
0.013802096770091771
0.025369717616792332
-0.02714766322907508
-0.021888093287325817
-0.016281865205999155
-0.014703725241973433
0.0009982859777166715
-0.012603650796840974
-0.005273155577044688
0.018145095899038104
-0.003895567786664614
0.022292009213994077
0.009641504284370434
0.024949066039259775
-0.03796448671513791
-0.08388553704941322
-0.013729612316727464
0.030255983486761243
0.04231241555712525
-0.009380320136443496
-0.03066057660044976
0.0012258779731481003
-0.025377305511628763
0.010483564260197403
0.028964692286495328
0.011300506231503377
0.021352121718694626
0.007544119950397883
-0.02400504713320974
0.04627904600786928
0.07288580408563539
-0.012816765268747633
-0.033075039132756064
-0.005593776546477622
0.007520257391599955
0.02545062255098934
0.046328163535020825
-0.005158151743219784
-0.056853630232701804
-0.005840682306287119
0.05649670084605146
-0.044891067342832554
-0.07188079475512753
-0.0779576616181267
-0.02220277408464677
-0.04004615484993372
0.02994548827706999
-0.023590945776509623
-0.023376602636889853
-0.004510838311756684
-0.03629455948989987
-0.04535913068252514
0.05254906069325543
0.14769694289921645
-0.006636496510247862
-0.006862915529581868
0.028782129530221363
0.008172556068800317
0.011454822325049444
-0.00826317503427311
-0.03386947823392934
-0.003194519109659407
0.012232704894093175
-0.02257559338966694
0.023738198438250147
0.012594576077669012
0.002683106325547904
0.09405417123505369
0.00039496542640384924
0.019827863371109585
0.003325854384211596
-0.03476936132066036
-0.044630947404621917
0.042065871446997145
0.012398242735077681
-0.011059980675978874
-0.006235808960957357
0.0240460431128595
0.03492448636988785
0.011389696582741322
-0.01797130940187011
-0.047226517459506075
-0.013426291563319885
-0.020762790342262142
-0.009831261951036292
-0.011434975377750626
-0.04528706897882754
-0.013840342681471949
0.011507711906820806
-0.006397754910911913
0.0279190121862825
0.0035548734044318817
0.00433901817343191
-0.028876091185608375
0.021864155652705445
0.017744351078108463
-0.01471658452070823
-0.0039011383193151283
0.08415296992982305
-0.0003087248781496588
0.013253248668720937
0.08247657534142278
-0.07057404491065096
-0.04542214588193294
0.010373333929846146
0.0023904323200663346
-0.006564039759188256
-0.024997289141231855
-0.05268310006561791
0.00586066847375259
-0.02676551215075123
0.03929160479574315
0.044137489550317724
-0.030185516906814168
-0.012122545829396491
0.01862575512097679
0.003972427272057016
-0.027291547570882084
0.030276781712972767
-0.10339779771945178
-0.021462628911482592
0.03439104510624109
0.03476816402575565
0.10647129037216681
-0.04070204629232107
-0.029421807046403136
-0.008262504828237706
0.03901129163262169
-0.00692146863082773
0.05405924853788696
0.06607156793308983
-0.02876875661546071
-0.07969900809427179
-0.0352619319318759
0.05129633730932286
0.026232980952354063
-0.008755373084208685
-0.031189221376378678
-3.1893087533251095e-05
0.01578026625982311
-0.011907928401103067
-0.0009787004183326655
-0.0011473550622564566
-0.003039040744896831
-0.012156318987368516
-0.006998342381640545
0.022582527671084526
0.006933940880066297
-0.0048143105002038215
-0.020965028735406177
0.029685272145656468
0.018863001789953055
-0.023520354767745583
0.040431603692343734
0.02621723952263663
-0.03106239598786611
-0.012700379597215514
-0.026956601883930873
0.083212828237963
-0.09168188356810948
-0.13465577006415608
0.01934845260816387
-0.002079907070414601
0.03784647848230231
-0.0010186095221460995
-0.006248652230614488
0.0014229758233941662
-0.00014986713384715678
-0.008565172268705163
-0.027457115126188723
-0.0019239257598435587
0.0055780957825333575
0.008620137728796688
0.01420800148571261
-0.01735225688176003
-0.01430202763932373
-0.025603186672587867
-0.04763050989831827
0.006530279985561343
0.02971405796873852
-0.0036907862178422895
-0.03520604090187585
0.011031227803282508
0.013223749418814152
-0.0114652115165456
0.037730578928451074
0.0159736324561047
-0.004346495721538259
0.017188957120670496
-0.008811504944101682
-0.02134646211910603
0.01639416028706383
0.0565373418986071
0.1644400511863723
0.024113707325693526
-0.03599854722768819
-0.020746924650253015
0.04853906734490154
0.0038949138854842153
-0.008055456585833537
0.04200866498699663
-0.013694246105021719
-0.030923828827290684
-0.021974748408316914
0.046570166819553546
0.06258839919721292
-0.02428986505803265
-0.01643527635864496
-0.009142504231202242
-0.005265510900475573
-0.014839950646468054
-0.02369646156345313
0.005195341378970321
-0.02523809769057348
-0.1612873805219165
0.02822500744021002
0.13951508304730084
-0.017800353886403164
-0.014852117694387134
0.004327669981806331
0.015520870690070347
0.023036236793163023
0.0017585830130836858
-0.05170994775558819
-0.0006495157541930468
-0.018735967209322205
0.04114414900444679
0.018651748564681582
-0.062408813923258956
0.0015252268726597535
-0.009864668150015294
0.0017350491027855136
0.005481172385327758
-0.02059520047825511
-0.015720320482796566
-0.06085054300647187
-0.048649089716899685
0.0039988878300620334
-0.010683530165124588
-0.0021085207205638642
0.03816621186618494
0.04905887152048824
-0.01616577097841136
0.010676540745748538
0.006346576962610539
0.007794626204604592
-0.014953041098076766
-0.0467019469047301
-0.0352465502220514
0.006238646935187089
0.03093342707253942
0.03358523634406254
0.007544303082102195
0.018562886705329906
-0.007943086684425003
-0.0041672461191008025
-0.03944855195067504
0.011331866240341064
0.009634136627638729
0.018457749747142378
0.02680710598075308
0.01244239195314888
0.049974739837389134
-0.002102585085720555
-0.06616420039368875
-0.03853402715430613
0.0043115885996023095
0.012988581465164836
-0.0326406617340859
-0.0025929421749907003
-0.009606277463253803
-0.0343131236524939
-0.03232184009148303
0.06282958656324476
0.014680408574577008
-0.03337446977981014
0.110090757828327
0.14654623143495274
-0.03216725699135718
-0.02120934562902689
-0.02212102692898275
0.05483247733573448
0.026072695010581508
-0.023575550132777356
-0.08799951477257019
-0.026125405902069545
-0.002911919211225527
-0.03880041887442546
-0.08723432898803128
0.015837151747007446
0.04925119872257939
0.013114004441101435
0.07208689331425784
0.024908897847563644
-0.16484333082155797
-0.035944743579052044
0.06514546348712813
0.05965014057149815
-0.012440115823213785
-0.02702849449835673
-0.005694717075632005
0.013246992277311144
0.05378099404902892
0.054449375936288326
-0.022995207042184246
-0.001982270113947454
0.005414591798801395
0.030199280349495955
0.007712253361415172
-0.0004720569011163001
-0.018668232896132998
0.015377488074062688
0.004341023944071207
-0.06817158734079727
-0.012036444806910353
0.017213784661641463
0.0037563913441095724
0.024809299261753025
0.01715360408593328
0.04086589642669357
0.06268922877046922
-0.010412339494616842
-0.13350946238541045
-0.04236420744132861
0.04875980595019107
-0.03212133859173425
0.03957282802337524
-0.06656571217449325
-0.09025572864703245
0.0057136134175147
0.006205707862500909
-0.0021097914798258698
-0.030217629730820695
-0.0208200335551374
0.08993381791379247
0.08015745416118397
0.012387104274864216
0.007262960343608701
0.02618236623539949
0.05447793124209128
0.0206160523255477
-0.013394495285486604
0.003827026878094403
0.017573128492200767
-0.03697513012921735
-0.1303734539509953
-0.10396363086923176
0.054880379603455196
-0.0033413373404569255
0.005746334039676566
-0.0032756505384509485
0.021810724227255184
0.015010736052319262
0.015366346073202993
-0.06593393905657452
-0.04535800710271828
0.033046640318200086
0.11760387153122598
-0.020503909724851437
0.04204158130247489
0.004134495077808283
0.05383681301257653
0.018970706761458875
0.021211038029825154
0.011661657693172765
0.017981541228549353
-0.03687537565551854
0.02681145446079623
-0.05352689564099415
-0.20154772188738349
-0.004918811702071671
-0.025060104757347598
-0.04573946883160645
0.08658063209703969
0.037490881422068044
0.028369763352704275
0.01715428686610652
-0.006661988891951136
0.05761794291811076
-0.04881889593889063
-0.010090688945368905
-0.06175270903280636
-0.08136105362575342
-0.04193948649152488
0.06325703529911997
0.1096652858070595
0.02194023990783014
0.06999200013352902
0.007022714457450686
0.009151098774675239
0.04225696812320786
0.0102637094177709
-0.14713492317529314
-0.045488380913874665
0.0063688068032441226
0.066131729241636
-0.02606157610624579
0.025848584715728012
0.008948989857878948
-0.02196384210672212
0.006537518398331242
0.026495629153892204
-0.030806950545949063
0.006214501639247772
0.00811550478917579
-0.006960099774611764
-0.031070928965194068
-0.026264152984193292
-0.026434304213245288
0.00916220938463213
0.06158609560176822
0.05960554208437055
-0.0013214954599717586
-0.0022925543288373046
-0.006229642673132114
0.019737190311903605
-0.023721706269530934
-0.024712549766905862
-0.028775607148580223
0.04008133976215478
0.021282266880044788
-0.005520558009708709
-0.052442987668859166
-0.009329676987154619
-0.013965139134288663
0.037402035863003336
0.01895889103499093
0.003550294735078998
-0.03407319549662406
-0.03446888994152603
0.06620151170199315
0.030965958448432078
-0.029888217423804403
-0.004088222967548062
-0.05449502432434499
-0.039359649893330614
0.040974502972761596
-0.017136214450116507
-0.0010183282235437725
-0.04838761473788002
0.0031720582658831004
0.025969757535024576
0.019942545698851476
0.03232661589912099
-0.01094097462425152
-0.009380761532383685
-0.09876017304835484
0.011666865518449209
-0.03193142853115008
0.014549197977540293
0.011349551521916013
-0.026891433686746343
0.03763005747945604
0.05520281844673588
-0.009392394828530992
-0.0038296846122233296
-0.006850833222940159
0.11965401385205068
0.013693448649859804
-0.03253755159348836
-0.0011423058080901674
-0.008715685135289622
0.06120854793121605
-0.01582675989890349
0.0057479286084409905
-0.014841644315212503
0.007356302177845417
0.04060681933454594
-0.010043394446467221
-0.010777731373570075
0.013796904179131115
0.0032469382526929364
-0.012466980327912618
-0.03588085169200664
-0.01224603748813551
-0.07970125005094444
-0.012529069201536425
0.015272634327236492
-0.028057039692676734
0.05418822755995794
0.036459544612902135
-0.00013506524540942116
-0.016924835673990325
-0.015716817011194883
0.014300969063610822
0.004991596038129288
0.03760093471803308
0.02643961342534319
0.03739062573338407
-0.002029583987798193
-0.015571931520005562
-0.024297407455037397
0.025487566247780764
0.039737122019397705
-0.0031680657785739656
0.01606853771554506
-0.01824872279111253
0.009244076233524658
0.012979270502757791
-0.02074603376706958
-0.03823974028058165
0.03674397307020934
0.0070796575676425905
0.029945912851317816
0.028959509543298803
-0.029560668440766675
-0.029017957236387212
-0.017749543192844396
-0.009240817916890694
0.000863932843946287
-0.0274332908877758
-0.16891275867544567
-0.026091764092673914
-0.027067536480507096
0.014130184508271689
0.002589739946215698
-0.015088654120406523
-0.01593050605860429
-0.007949215007272945
-0.01988210452448237
-0.05353751045165114
0.009455540197571725
-0.009891559062583924
0.08900155895214797
0.021021097408997092
-0.03272951450188351
-0.02176229033470169
-0.07451220345726818
-0.01338351265139332
-0.021034477437973445
0.030191565311762012
0.08129435179508053
-0.008400520508648205
-0.04211166857858235
0.015796589862242093
0.016122290053809437
-0.03850243932434909
0.11888617734300973
0.05574977306221301
0.15639638643642081
0.1567142588603744
-0.013043425132935688
-0.005526010239251065
-0.0004851095170593327
0.02471463273465423
0.015071395247855017
-0.04895179409631531
-0.003367022287010902
-0.010938250577097533
-0.02419571372546984
-0.007744905800290822
-0.024106337501361944
-0.04783787881451416
-0.01934338381872601
-0.006645723548218928
0.003682688060020466
-0.0025257150490439408
-0.01788532599868714
-0.00037693237037355313
-0.021486677263322533
0.01522090594699033
0.0029660714637117416
-0.01581547574042589
-0.015383214431604635
-0.02358342462936708
-0.025298622355337006
-0.015407269625333
0.01291063734763184
-0.03479568924580984
-0.08111766027481546
-0.02601989632253986
-0.01256685290586209
0.05886668328101115
0.027828561646193597
0.04847798708647024
0.0420386091180178
0.0516222418878262
0.05853258859814123
-0.0008333314869003904
0.012783888070381347
-0.0278260890469038
0.018462399061727412
0.017490184657489815
0.009742488539504324
-0.046276160017027855
-0.08247387185952
-0.014910647903003891
0.013863014229802476
0.01050504877338924
0.009166759341400583
-0.017749591343498974
0.010166199434567806
-0.0032987669024699393
-0.05739669639518485
0.0023409938445347286
-0.012695248318013238
0.031880108673236505
0.027850685595282657
-0.006300546663007909
0.012702321977278478
-0.0032509127945473696
-0.011483656686953591
-0.000627001540588743
-0.010804860656796953
-0.030653127365901475
-0.0022936129939673255
0.009250186325316448
0.05789514775116349
0.07532067090777018
0.0009428115702264997
0.0016581521588535225
0.01950787994926768
-0.06364988276893443
-0.04237170932460297
0.007430532578765414
-0.060499863737631145
0.00796193483459102
0.06009359991360783
-0.16237843908236282
-0.0026097206748321457
0.09676171819163189
-0.03939741840596094
-0.02932958151151863
-0.0454763824984216
0.007289632692981131
-0.007943437650342748
0.017347186607455035
0.0143760678573205
-0.0054458542180986485
0.004227563970550555
0.010913322825093408
-0.03783603590726545
0.011546685362924618
0.024917084227381762
-0.005029158824528997
0.06354672300353707
0.027051139374682565
-0.04518854286660358
-0.011126157248395229
-0.0004967694021306495
0.00827941746803044
-0.02790569017232653
0.05940896191802345
0.12059282909129654
-0.010354004561340287
0.01694802581870357
-0.034137828393676226
0.008553551388823969
0.013150412453854633
0.11245443103922646
0.10353226231280413
-0.03494864813122004
-0.012731428198962315
0.012959428330693966
0.0773314480284252
-0.014878009986867578
0.028461440439906047
-0.08890710444939602
-0.14495408287506067
-0.01960161558970796
-0.02720515377088858
0.009898659708692345
-0.03377734906379756
0.010932795489421339
-0.03485878739796541
-0.024126761276032208
6.90650721192142e-05
0.009235153147122846
-0.03974666957154518
0.042801607449115354
0.030067585953500345
-0.01311461649834704
-0.011638587146672106
-0.0055665127904997395
-0.0374125883278284
-0.008789774827195413
0.008384997661684703
-0.02394186922573698
-0.018098005097978355
0.0027155033021519083
0.037610522933427565
0.00864838487392067
-0.023629835221118244
-0.009463373364934892
0.026352339025518492
0.0479233629572567
-0.03377041602399463
0.001937329507666082
0.011973870720700346
0.0005498554543822909
-0.0717270829506984
-0.05932190235468001
0.056512506268861874
0.0012136206832189897
0.020326649003862128
0.018767178641495755
-0.02219677126575698
0.006633898072468712
0.03018902875082803
0.011897578806321142
0.01767656930078592
-0.0031326165438252214
-0.004168999179738178
0.03811375689299795
0.015530733880903189
0.01227990586626043
0.05717702968848877
-0.029994913535299955
0.0279329588936338
-0.01740015078989618
-0.04825849883580119
0.02189951010497357
0.005488887891025855
0.0299272368322031
-0.028824657980061202
-0.05905803654930282
-0.07099929425982845
-0.001830223355280366
-0.04510422419355422
0.008911393741680792
0.07549953109026204
-0.0026171660435844253
-0.006046581596356223
-0.034188153976620346
-0.03155219727819782
-0.0605479322928903
-0.03806787242248772
0.023518541894505234
0.002026500987750409
-0.011064751877531783
-0.03183895162739495
-0.017498931878268932
-0.025173658040136212
0.006668420722170418
0.0684091231449959
0.07723944352924592
0.06141542521140526
-0.061199180367960994
0.0058289819136658665
0.03861195675925315
0.03529055283626486
-0.037615646743005576
0.028398818868327458
0.03329516788824442
-0.023550599084703402
0.010376232662634943
0.03485372384578975
0.007328898948473903
0.1323989985136266
0.07860474569597992
-0.022999865179186115
-0.0024966688335234712
-0.01886153460477945
-0.07090349496927298
-0.03746297320274095
0.04394511603906808
-0.02947316715374565
0.0018151086908575569
-0.012579386698335138
-0.018452764874484683
0.09938478382847853
-0.0020315613567737016
0.018841039061699313
-0.052110013301168656
-0.11294496105840197
0.010155798436673446
-0.0010812964658286023
-0.006071243764468107
0.018816201244062497
0.009331197331047413
-0.01928535308749133
0.002773746555407263
0.015825414127966047
0.03727675959994914
-0.02559712566078662
0.0034053266598061834
-0.0025046357260254054
-0.014151600358758586
0.03746498408473255
-0.09193822858617101
-0.13394827114928157
0.010779024311286294
0.017037950202759347
0.008365599291865528
-0.008100922924449982
0.032721227726193056
-0.009983401915066588
0.012591028463628168
0.013155416885202343
-0.03360829074260378
0.009908594250796845
0.05852885733701134
-0.00569835993684333
0.004420730436523097
-0.02404902211512668
0.0416180043847194
-0.004894403295045348
-0.04547543200372837
0.011928124410455413
-0.012935709654193215
-0.004282142745434261
0.015641468740829546
0.10230674075878508
0.03409245336876631
0.002054925526122991
-0.014447939434969463
0.010357460550341006
0.0438430248663827
0.025800081332940834
-0.01656809144708148
-0.012434482198517489
-0.01812470521940029
-0.014686586973076683
-0.11774131308287576
-0.03333942616812359
0.03390365884449853
-0.01324635045918767
-0.012294083092632399
-0.004996586593311635
-0.0043181364464330435
-0.013335717421144852
-0.009122988041707976
-0.09170584475096243
-0.008853302011915228
0.04308709642552822
-0.041494827856487525
0.034332270036649695
0.07843865135648734
-0.001673952668577961
0.021171228083949136
0.00395185167989213
0.03721641241793565
0.030736493874189263
0.030038681233806507
0.0036869742296034807
0.015207583558595984
-0.019727307429604296
-0.014640577804129515
0.022999904398992143
-0.01867304988166281
-0.026699052856698532
0.006807547500048089
-0.0324616547321478
0.04158024205942645
0.04997775885177057
-0.006928153091364783
-0.03654442687213502
0.005726186997866018
0.039891305222360667
0.027563891132457375
-0.08130194719818352
0.013038460016953655
-0.013545142822083982
-0.016618882487605117
-0.00550270528909047
0.006670269988891389
0.027260277939322796
-0.02804394784033489
0.038896176136541526
0.03439031182160476
-0.0368018514754727
-0.0513995856082233
-0.04117048779210221
-0.022880839092365948
-0.0473908802700603
-0.014762450810605132
0.042320512935539956
0.019412699825778396
-0.015678731464034062
0.013202491979831078
0.008720948827321048
0.02055949475682248
-0.004421507412105882
0.009609121719659428
-0.018519019776986268
0.04440876017608564
0.008152783128933938
-0.011732902718528206
-0.023991255226047378
-0.023314623748911346
-0.0036355788263804346
-0.0335420529231819
-0.02390968115818674
0.031856479004294794
0.03633559223512472
0.0005973323768778237
-0.04558896527354851
-0.028538084181231646
-0.015857516606035963
0.02624445395133673
-0.001564840776730553
0.004952351774396242
0.0009923697929350153
0.009855901627778928
-0.003197430575604966
0.014174849404256534
0.017129289387674204
0.060000138800887656
-0.004716380160788319
-0.018709984773126503
0.05472716949887432
0.00619344192765139
-0.043228736430378153
-0.012554226540190378
0.008474141988803172
-0.015487216647086018
-0.024703669410335034
0.01954228935041379
-0.06582031755766514
0.05420925259298779
0.09216837289242164
0.00016703554224074127
-0.003000286272363398
0.038100096885192364
0.00392615890305405
0.0016519090527517756
-0.02056473962180829
-0.029669161436319074
-0.035085224128940024
0.04503084757115645
-0.012239714134003226
0.08251306527386817
0.10479589221221831
-0.0337696089942916
-0.05153235491611652
-0.029931644361451775
-0.022559080122683088
-0.04720174108628262
