0
-0.005482402697139429
-0.024117731996512674
-0.029708677211388403
-0.04541859731939248
0.014029197085441352
0.022336941111839703
-0.019281438065545692
-0.00515247813609668
-0.004222347148732277
0.021020983851759184
0.08494711320390216
0.004829164901902794
0.0036101015760003153
0.026592493879984712
0.05616490954511891
0.20037418063836387
0.06761336135897536
0.1862743486363785
0.024471735190569475
-0.029811024546692568
-0.11533931123797918
-0.025623763386748665
-0.04526171523649253
-0.023015858490998096
0.014717027960054916
-0.01184203121491405
-0.03747793106770925
-0.02969371270237513
0.055009299939289553
-0.03597018023872377
-0.1361963941192848
0.008293449558674308
-0.07455544821267358
0.03960931980330724
0.05414222264219986
-0.027042908646561448
0.006479393514594713
-0.031529879350677595
-0.02225859469115073
-0.024286826983321932
0.008169992121281949
-0.011713488593746772
-0.005663451428136914
-0.029327240532300698
-0.013167475199715173
-0.011517762769139028
0.005992689247940576
0.007341159182955688
-0.009043413498811067
-0.03438218514154981
-0.00531396031382807
-0.0650783790156952
-0.006813527535092843
-0.007079658967937927
-0.02934666536763987
0.1572167517511443
0.09736203597960641
0.09085917540625497
0.005946756395009512
-0.016500366496900554
-0.009248681999642178
-0.016993706436440596
-0.02129188074950881
-0.011143743455816686
0.019890257802580275
0.0012968791370434327
0.010940525296288332
-0.022044795211690536
-0.051147483893790154
-0.030125366816522083
-0.007259863962492004
0.01955964637351872
0.016354273374717336
0.03648329485995372
-0.05293014024784804
0.03752748226573208
0.0065019102709107535
0.021874090353888136
0.026062321005270114
-0.03426022263501133
-0.029968396023832694
0.025748220268325746
0.01771462092459099
-0.0005925923982577718
0.014124130969596528
0.01027989467466182
-0.028394780532065306
0.011154013445214226
-0.004750367960039613
-0.022031038487244275
0.027976551779004353
0.01858698562059579
-0.00893459572089563
0.029257981323279413
-0.0029190214600773733
-0.006352431544874089
-0.033814499978414146
-0.0022780328680265297
0.007581538300962849
0.03071007106169012
0.012200372379517722
0.07468958347869627
-0.14901069184103413
-0.1554092525171487
0.012497462608489683
-0.0361420061441549
0.007708950831087093
0.05231838215407446
0.010955509804231538
-0.03230307045744607
0.016933511604022088
0.013294109930205819
0.011019346218594609
-0.07737730593656553
-0.1363494899693686
0.09742950031943423
0.05836438871948079
-0.03913215983767802
0.05447427425924942
0.0935598693974541
-0.014605240882223177
0.02492697101237338
0.012884942261107452
0.03294815952428797
-0.004542509257353045
0.00994201267523201
-0.020143403614013747
-7.325840165220113e-06
-0.020131991024344282
0.028738330839603803
-0.05277295730787688
-0.15967702809630296
0.01054001372136173
0.04587019666748823
0.029609287242084375
0.0340906717304629
0.010682768383967773
-0.026350348577308582
0.012906264225263859
0.016835231844785848
-0.016478410253166497
-0.006792515452526292
0.02465890322064385
-0.020452272865211535
0.02463470503206653
0.0682431900304015
0.0039124967646149405
-0.05213384445505074
-0.18482378073937245
-0.062137503190451006
0.04917115890517692
-0.03648959132293109
0.09061657951084894
0.0547705841854465
0.009353341658520902
-0.005478992872244431
0.0016564063409985183
0.008625749425955075
-0.008710760045913826
0.010977807442099826
-0.02195365440651175
0.009925322445615954
0.01624572915254022
-0.011498905576985945
0.0013685706973691977
0.014744222568121657
0.0010581847849936577
0.002418122532508914
0.009087560415904678
-0.029363174067887913
-0.026869319611296683
0.04367503083233407
0.033775945443598604
-0.037123619893240326
0.03351273147458422
0.05054706582368535
0.045091488853137164
-0.0753732941061218
-0.046546731858719735
0.06366602444205513
-0.02324408970289037
-0.02168890111513298
-0.03039367052577844
-0.0020863934553432477
-0.02804306948609992
0.020098714602511107
0.0010012372021407498
0.004404645612906558
0.0022709824036018567
-0.003141260871559045
-0.030728925198073215
0.09176419839433218
0.08808924499169248
-0.0030130300972783367
-0.005433997280280497
-0.029353628363122216
0.023204199178040393
0.016647894209389297
0.04122320038138516
-0.012015290394941496
-0.025685946674711243
0.01624760186609163
-0.02941405345107723
0.0012597512336266394
0.05548673200149021
0.04224669182316041
0.011047767260516045
-0.05091875822161534
-0.02979255271916485
-0.009416047127336498
0.005088657445374261
-0.03189135180638001
0.01699763747907098
0.0002272643481110225
0.025201307122506213
0.00788279640231944
0.006041209798001217
-0.22960230306219195
-0.1991372202534392
0.031776012191419914
0.033021646168913656
-0.020992242808866236
0.018902861804690682
0.0388284498130469
0.008360264740290519
0.06677617474010798
0.02141215081720105
0.006908287937295851
0.0165167793715337
0.002652807722296495
-0.006349573719193807
0.0521767018297233
-0.011422297558243116
0.005567992512633356
0.011981416295833623
0.013716526699817638
0.04546344911636402
0.009728814280194452
-0.08479188128623584
-0.0075187021064495475
-0.0027755780423079908
-0.019305973903653843
0.011391022796543068
0.16927809112333034
-0.0007541459265396567
-0.03289983680912824
0.012701815166373793
-0.00017271015212992743
-0.00943142076830078
-0.128702242452089
-0.021542427763795207
0.042583272210061265
0.05205274534747001
0.0950504894605383
0.03593619994181802
-0.013229454606386524
0.05895163962399991
0.05749785393304993
-0.0399330497874259
-0.0023640221014456235
0.001145089149870034
0.006201745920133618
-0.006283527591428367
-0.10054686213062872
-0.05283606216769479
-0.020193458249378387
-0.013382726392551843
-0.0156147291173181
0.030226783083914435
-0.1543876792239679
-0.05141447587292786
0.03111184646993182
-0.026303667635208146
0.024467871041896756
-0.032521649085252666
0.013415787239307645
-0.02258572413582682
0.012861042272978664
-0.034186522813575065
0.11259967152533142
0.14584305676725853
-0.027706504150856206
-0.0006066975368462378
-0.021847653406824714
0.020666498653299656
0.032722639774903084
-0.0065816275616389
0.010529054471609123
-0.006447260195998691
-0.0008006033102785558
-0.025390771049466604
-0.0210995081491116
-0.0064483891451933934
0.0006380167377465178
0.002690068918216039
-0.013790490557050268
0.008540790789131782
0.007665622247968828
-0.06129679705430372
-0.07551876024454217
0.0352563743566635
0.0015513364293483689
0.10138766125668293
-0.01312335200431748
-0.12905513164102125
0.04234122757520966
-0.048460519482086475
0.007527242757029028
0.029576305270950357
-0.02223650445476884
-0.020816744332114404
0.012441891750831557
-0.007635002621443752
-0.0091088665607965
-0.01446503384394379
-0.0422170204097112
-0.02211852727774389
0.037804126898658495
0.005674823671817467
0.07026061168914526
-0.01818394564222248
-0.011544704222005918
0.017148462633416982
0.15728460580656048
0.057486471053515335
-0.006226477689751914
0.023636505573727415
-0.004423191812307598
-0.003642283466630809
0.054649614009656296
0.023217330421126944
0.011301025273803857
-0.0280341683167352
-0.03632712166281354
0.005696612631618766
0.013040188831122217
-0.032099454805789004
-0.04427214847157028
-0.015827463430972574
-0.01618103358282934
-0.0028769742466601463
-0.04003909126118469
-0.014950946119073232
0.04879462367675967
0.0011805188556967138
-0.02199060874662384
0.023485190672036107
0.0033338422129070983
-0.013753661246013274
-0.01241405955240309
-0.02777379062812869
0.018670466250512566
0.03574734440255909
-0.008403519838444859
-0.023959982992370447
-0.007887077391577884
-0.014183621822912853
-0.011785557830187695
-0.023717499588863773
-0.0032294681294983488
0.016088094539696753
0.004111144263589347
0.05082855174728744
0.02073216401924619
0.004069703627541025
0.07305186486816867
-0.011611101285749253
-0.02529534107030257
-0.04801155010460021
-0.007814215795374047
-0.02860469500496878
0.024821468418144133
-0.016806637599724453
0.045090141066311686
0.04540117480163729
-0.00014553640612087186
0.024223584853163834
0.024002184347310808
-0.016296898323554368
0.01688189224756689
0.0029752655000093967
0.0111438293222954
-0.012977641670720014
0.05849336543554125
0.028878592631405797
-0.20007985644904477
-0.018289479638949363
-0.002821485918597867
0.010884021687472255
0.0036028204765172307
0.04440380715408788
0.008602563895075709
-0.017683402847701448
-0.08294392471873692
-0.09309534150072361
-0.005487751027131831
-0.03820017603544566
0.050164121166301014
-0.009055773866642492
0.053287008323409914
0.006719201439774114
0.026677248144470186
-0.027259887283412672
0.041514308951717725
-0.19205492082702064
-0.20121035533128384
0.1632432240414035
-0.021495701799612906
0.02654843197507088
0.027811748248123047
0.14774964497247567
0.004311067008204736
-0.030559006953929924
-0.034062236954992386
-0.0076803804600417075
0.01508583008497172
-0.018274923125629144
-0.04985705789543258
-0.017517476415718936
0.007833603909404262
0.04307451365138116
0.09449534359287336
-0.018789617584472104
-0.023620270309322594
0.03566454879663618
0.012883743549087319
0.019497197811181928
-0.0064921190777932035
-0.016467068222350063
0.16437329653291866
0.06478165489816122
-0.014212206912249366
0.012675258979503959
-0.04113000402496589
-0.003407641502026987
0.007325991824612297
-0.015717251051152983
0.017246904356009576
-0.014551348969976858
-0.015858652074111922
-0.001097887270259417
0.0007472961299845565
-0.00706163530915318
-0.010025673098894003
-0.021006605352220327
-0.0019439475375342859
-0.028112401575544736
0.060127595899659804
0.04594239464485507
-0.055078823284433025
-0.014777880041490507
0.008164108185200244
0.046282522692778404
-0.03671310908247968
-0.05403184793939955
-0.026416954472498803
0.006202955325380229
-0.03670014669921057
0.03875214118778872
0.016201509503352658
-0.0023728352902469265
-0.03922774512004068
-0.01648787387414716
0.009142674970145342
-0.016962988298244296
-0.0024154290080271607
0.06343240663053291
0.029163346052527853
-0.06842254652610001
-0.01410417996329853
-0.01448439110417806
-0.028144992749513893
0.05120983235214545
-0.006533441050238811
-0.006746406177505496
0.06977000847172846
-0.009558339982701683
-0.01899955595387181
0.022451096831316922
0.010279501604000678
-0.03994111639594141
-0.01331187244352347
-0.004503633216325942
0.05961932561188701
-0.019808368898368886
-0.0252436848508417
-0.02032012374895318
-0.004197509997330543
-0.009941075915533717
0.033842044555798145
0.07949678742674626
-0.0021336858089535038
0.009367906110615559
0.03021121536628294
0.006746766967860451
-0.013960041608808546
-0.013412147651643532
0.004707011085623448
-0.014129152844264118
-0.02280407496700459
-0.037505854185064656
-0.038280706098011555
-0.03683903153458555
-0.0006698977503728931
-0.03587814124754022
-0.02414174184872522
0.004766867709084113
-0.03407453312944643
-0.08753245705422093
-0.07959245949337813
0.019497508678481393
0.053060537904039834
-0.01230890835930129
0.04006429684527063
0.04095783102855511
0.046866502509497136
-0.014762675066223625
0.005258496650950616
-0.03025119652096037
0.05721151338628854
-0.0032379850297632145
0.12088763855507477
0.13659348288080247
-0.05228787601725855
0.0061627193607200325
0.04508200299995902
-0.008056248600871556
-0.036974694557691805
-0.0025421734586344893
-0.001445774645353794
-0.02180611479655629
-0.03648263458149498
-0.027442467671374052
-0.01664592452206934
0.04920247492846773
0.04403921106940186
-0.015840502646417322
-0.022148941149060675
-0.006362869731431501
-0.031627297320162395
0.003880878136135941
0.02483430930817428
0.009225089124159534
-0.018198684850667907
-0.031215383322821172
-0.03026805548794102
0.02501726004243256
0.03193128332299063
0.024839044309185935
-0.03679728040705642
0.0005310325307896996
0.013672004169053053
0.026960087268910405
-0.014899161669767924
-0.024720187458235055
-0.0017554632306889574
0.03644363238273539
-0.023266909520058568
0.05404604086544598
-0.009177856002022384
-0.004831429624882061
-0.005097212205538148
-0.02609289231777185
-0.023635406509040717
0.02092217617358956
-0.060378966097751216
0.11645838969779547
0.03145571684455628
-0.06868708534877467
-0.04237372569913798
-0.005844024208528822
-0.04068036744680677
0.0003833842999400178
0.01510759536763788
0.01417567172027264
-0.013094358712121114
-0.014911369659672824
-0.015001285081539846
-0.013916784109954398
0.018724360580735285
0.014776098198334019
-0.004676272479291678
-0.004987885593045829
-0.023566813039745782
-0.020288634303083426
-0.013325947485804585
-0.01570674585598018
-0.001433591046071932
-0.022783901507449005
0.001582650147968731
0.04045572387215477
0.0072111781712244204
-0.0010283929315138055
0.019265700648076527
0.0236845770280453
0.026458517182270477
0.019056936316228592
-0.0026779901259822484
-0.005761003820374233
-0.007813326221073738
0.0004906926687331015
0.04062051333608229
0.07077173572518823
0.013602555892377346
0.01679328356772884
-0.02010664301224692
-0.012061548710047835
-0.19896642993434582
-0.05950912503384531
0.013698517842803806
0.021896576317620195
0.045735961345020955
-0.0013340759441379478
0.03695308703154008
0.06041912735079825
0.0019295141965767189
-0.007493788037640061
0.013945807080966552
0.019393720271009215
-0.028912738721463705
0.00866855618557255
-0.01249591482917586
-0.0045551241085973245
0.015010831809557
0.028863045128327897
-0.01156152012433005
-0.03290217437499406
0.039410802446619174
-0.025536770722025065
-0.030455417881175045
-0.013239448469556632
-0.004256228884505254
0.02554215134690102
-0.020473394451934263
-0.03259453882254927
0.0071485821364885025
-0.01942859242452537
-0.010605609811570512
-0.017745483992534897
-0.03011213170595404
-0.010382418531987707
0.024051711057555235
0.014370006318945815
0.054763475735902005
0.019996696901299904
-0.023616905511728816
-0.028427826350259713
-0.014448811949367186
0.00303378296489069
-0.0014108573166595893
-0.030335626307414487
0.05963229522311487
0.19158815493884948
-0.008697033042627571
0.016714935992678096
-0.01753417685052896
-0.013244087100821407
0.010986919835029703
0.060227750515274334
0.06948703772816499
-0.005411487059834474
-0.0062992988514643565
-0.004343475781538399
-0.013241180292448135
0.020522545769977415
0.014915408359422101
-0.020918814212758204
-0.02781309242389566
0.010595733340055891
0.03189751005797258
-0.032949110899327096
-0.25158262527642
0.01880228767580001
0.009658499045788818
0.012076983310982557
-0.021745207523193023
0.03470342798850466
-0.03229712481008105
-0.1515890772251235
0.031034386628759254
0.020945725007252572
-0.00018612460559507403
-0.02079871862840041
0.0022759846008534195
-0.013487009299565512
-0.011348208540092783
0.030708686588491282
0.02890776766399808
0.027853957379388634
0.017294869422415423
-0.011954166990302554
-0.02149666492725683
-0.022032991707916526
-0.022771037454773997
-0.006321945116021316
0.019975086099100856
-0.020832827355934502
-0.04920703279457845
0.007421766019320948
-0.013815679467110065
0.013826388110005097
0.05006893283529368
0.012896148191770868
-0.016065355398043015
0.046537492671102056
0.07643510246906686
0.00937656399431526
-0.010866651423463103
0.030872099566682167
-0.009923569246522525
0.0923523746470652
0.09101455884565111
-0.017124133904209672
-0.01655468984717665
-0.044888846747616416
-0.02099903185474003
0.0052514684039457115
0.03213707129509971
0.005296827584987919
-0.10329163060816762
-0.03776298118183242
0.09339681987804888
-0.015369447601776469
-0.027635707013913602
0.03831639545508312
-0.0034369362693478013
-0.05712066619325156
0.013491935927930429
-0.004641174834918844
0.022372793224753915
-0.012176364797898864
-0.010299887217797003
0.010877534813079244
-0.02348182575656274
-0.018447456301947232
0.006203180192076917
-0.026205240016444312
-0.024716638422515782
-0.013594079206835731
0.007000279856877993
-0.0076701076729687925
-0.0012488551233850208
-0.023497928054217528
-0.027313344688871706
0.004343828789571784
0.05382671823819689
0.02075667541871361
-0.030061604713588062
0.0014413950947367536
0.009475373482990082
0.0007715574659073194
-0.02087395863214242
-0.002856718201173827
-0.02494570006731069
0.01970382645921944
0.00986793740636081
0.02522907307681308
0.007479783154137604
-0.0019550538599196927
0.013366947754968678
0.00816283810512502
0.004150662063765207
0.023428485730125383
-0.011551546845717525
-0.0020333132629988186
-0.012680945477434386
-0.01649731650816795
-0.011254888362993841
-0.010700756865277097
-0.012502039218268448
-0.0193587291457612
0.078970232987118
-0.012436220707090134
-0.05829033497728773
0.10730834589484187
0.03850509606192902
-0.022763322184362795
0.012153903314009762
-0.007482960788698783
0.030477922580465003
0.010688976535910265
-0.02671583514102325
-0.0020347520823034014
-0.013590125560942683
-0.03732840366505823
-0.027051579549624862
0.01954800715513249
-0.021417629666633287
0.058633559021233
0.017900148034045247
-0.02315172617864642
-0.013061420746015986
-0.026802839864250232
0.01589474070699017
-0.003133908062053364
-0.001930477301398058
0.006339529090999327
0.04586150644494896
-0.021188484643203824
0.08472364033972775
0.031853160285135663
-0.05773927398526944
-0.0006784433640202092
-0.07545929874740831
-0.018118209904835963
0.003707374830051742
0.023145240626178704
-0.012569300825724087
0.023854013644740515
-0.03381748651985199
-0.014222737439505995
-0.06881311653862078
0.04110900938023359
0.02693746121045103
-0.01914858102574408
0.004727128016400872
0.04808177523489425
-0.001326680014940447
-0.013388864579001174
-0.030815732477894358
-0.025759382378746767
-0.026509672373839645
-0.005040413195530353
-0.022531748002094277
0.006973276030726108
-0.013270295821081269
0.004494566892279746
-0.06757938261054723
-0.011170786099751747
0.02682033901919573
-0.015618874897368325
0.03684023589254168
0.0173245657372986
0.03580492475286368
0.06095295335080754
0.028745751028154142
0.022308462162130952
0.03343695453546321
0.00042986389344453716
-0.003262287606756364
-0.0018465110313080338
-0.0010833270777908443
-0.008984799785962115
-0.011167932602445491
0.007470971649924945
-0.023300986515194078
-0.019068106987161153
0.003373756962904675
0.002829160734359576
0.020621229475123314
0.027293841714292853
-0.000521175301073814
-0.11315275754813695
0.03041415525970468
-0.00534568892553178
-0.0007982412020461829
0.12182364304350311
0.019781907503341925
-0.007514248930350944
-0.008878136023334317
-0.023963394299473417
-0.013653282414263319
-0.007147100726569641
0.02936507338995866
-0.021077988577862854
0.0118764425606029
0.03273906923069974
-0.0009979281774434767
-0.006566168553943219
-0.021245810337883336
0.020328907788261942
-0.03802406132271436
-0.07685530417582381
0.019504036548518122
-0.13257830867281828
-0.04620393376935828
0.01119418434082588
0.005982052336102881
0.04576594309573492
-0.015976436821766186
-0.0065501077353918805
0.01479469696251868
-0.013348996023282548
0.00699544493320642
0.006115135327524923
-0.0023849641788983803
-0.017155246888756623
0.014615417647293495
0.006606630360478955
-0.0010014608819231517
0.05833045093769505
0.018043256568982848
0.05868817665439856
-6.53211176237037e-05
0.026832834016894166
-0.01096446821647598
-0.003816923907600405
-0.004566718306975171
-0.019500982576415245
-0.04177653607037029
0.07011689398222318
0.11899894981049668
-0.03377155732499898
0.053578213309935764
0.04099736961072703
-0.04279075000316049
-0.10086006892825905
-0.009231530617914997
0.011675139842611365
-0.01540715138078506
-0.035997997386306275
0.024218707916037457
0.019329262319901872
-0.06982111255198008
0.02639534608306816
0.007705948535915486
0.015240139233187303
0.009039663344168357
-0.00850116895031655
0.01049658884607932
-0.05367160103988328
-0.017617848785105316
0.02314308611403671
0.017216711550007757
-0.023472544295275052
-0.02658265644624485
0.006486465358623817
0.03380071478624459
0.028542891196447512
0.015917024950935877
0.049245552988081774
0.033330084274938734
0.014497754423549806
0.03301705483683771
-0.32808308949802567
-0.09293858695490108
0.07412723294416386
0.09714153057424538
0.05264876806914487
-0.0202350101214737
0.009238215472235094
-0.0849892910109353
-0.06734298418199422
-0.022798885229024
0.0439025023749694
0.011598460378991702
0.11499465704358686
0.06342580401541503
-0.0010643346705473274
0.006384229049381232
0.04485515879865953
-0.05732478892620289
-0.05094622805899975
-0.03206590592746821
-0.011571777138063413
0.010881089855716253
0.0012887395677762788
-0.01962520187724315
-0.000840396479325808
0.006119299428114519
0.009271893674347564
-0.007913784638161659
0.03708783052457127
0.007667750825758869
0.03198756163976494
0.036605760760707685
-0.03252819274909502
-0.002289691077426569
-0.010597320308306676
0.007563944230626255
0.008007644577266063
-0.0026206548396939607
-0.040530981013634046
-0.00832362950006451
0.04655096893351366
0.0019430683756677524
0.01201362074688863
0.01993798481264398
-0.0001332245896100549
0.020780230429028435
-0.035024267096009885
0.0038327933212347937
0.03852214456013286
0.01980209305580862
-0.026237174356469228
0.013650308522472973
0.01804340737939664
-0.013596799172364211
0.02157900272365854
0.006123230328861417
-0.009334961748824819
0.018383580603622645
0.001536399211001622
-0.025296832166461714
-0.04163044268421599
-0.022484135720884018
0.012755963579575025
-0.012641832524746294
0.015447915383032895
-0.00015777504985184788
0.017707865319357353
-0.015259637612677554
-0.00801427364249907
-0.0019521649585831269
0.03468402729448235
0.0556863812896422
0.0183602356156524
-0.02923531340512542
0.014246714043840569
-0.0033508854650801207
-0.22761466199827726
-0.028140971818666694
0.011040524014642873
0.019088684170006854
-0.019974209707996054
-0.029001003927950953
0.010797935446346699
-0.03951080254373174
0.0021901065335345462
-0.03451136891700431
0.008100708295224001
-0.027208222101152264
0.03316336595703528
0.19983821574558233
-0.038482644618679514
0.0025087594628580563
-0.03978228091937662
-0.019242024122362058
0.0064144695776910225
0.0020760885331060283
-0.06916282668483877
0.17036307179108384
0.08652927612995379
0.015581897112766294
0.0014602076699952952
-0.010866121504344779
-0.0034420992675364406
-0.033662913378555696
-0.0029152515863071766
-0.013865924207273679
-0.04352653221228929
0.02260470836812265
-0.008620896863101942
-0.009970310419842168
-0.04127988312265479
0.0027167706479959064
0.02609613964167963
-0.07309404181042344
-0.08441573583199616
-0.005404992219140215
-0.012524835057353531
0.003947462063295168
-0.024009640642333987
-0.03662980874908351
-0.010062106450319613
0.005959655003953669
-0.002606840547465417
-0.000612106146882354
-0.03300650150475319
-0.0065883900159939964
-0.04359558749571748
0.03600999181192699
0.03789814544579077
0.009934438987908219
0.014622717440389402
0.023051244559382122
0.0580727727605159
-0.0018994367467402612
-0.06064576624643827
0.040450287110239055
-0.0033847908833226662
0.04351227183057182
0.047374129437548484
0.0676175855672239
0.16821212333524263
0.0018172032921068163
-0.0407660098813044
0.018831135103359504
0.05273161666622886
-0.026221438765330864
0.03600610566318078
-0.021662650601756088
0.03491465059508012
0.040028746937149785
-0.0028020174119396785
-0.04993684383340294
0.009062970305301631
-0.0002477111652163998
-0.0033401273953713715
0.005122562289095459
-0.03419663232611525
0.0029155762374122626
-0.01514775238577445
-0.0007875620158217478
-0.010084251748114208
-0.0022768855076946513
0.04453504088541861
0.1219923444663777
-0.1055818137299425
-0.09480190237881521
0.05838810509077387
-0.022025300230101214
-0.02826961938158177
-0.009060408528535053
0.027799818460469763
-0.021891360977080096
-0.02166047216470592
0.01240081349737494
0.0017732240712615205
0.006306966226606535
-0.06895604327896222
0.02821553439631726
0.008838465670677453
-0.05648160122722303
0.028572497625289076
0.0477387829843774
0.03543480073125875
0.02357810057630885
-0.07188645939667525
-0.023747888013628423
-0.1864897344627046
-0.05941262458836917
0.008713731533665248
-0.00993068677098742
0.01300503611745914
0.005434804654655958
0.0015077902515081621
0.022272149330003346
-0.011764163358220434
0.0062248296687637044
0.03888686639213723
0.007867364954427187
0.04289042214791875
-0.029141313374643162
-0.11804060109575641
-0.01725007470621659
-0.018304954593972637
0.01077187033634049
0.016154867825421398
0.014847991630529396
0.03543519224914966
0.02637618288437967
0.015728798492760772
-0.03976975202599302
-0.015531069490612432
0.036372721039899455
-0.05146855489801431
-0.04179130390445599
0.0536445726049292
0.08686292848835514
0.0303861413047028
-0.05644463161193307
0.020093946566405944
-0.027658238672175327
-0.04251016471255825
-0.026384720834894126
0.007251993040121113
0.02227135123470174
0.015688650035949547
-0.008991143579673391
-0.04658522156133762
-0.06762660378214563
0.16079154568726595
0.1352096278589901
0.0038269215967014847
-0.009435821075807227
0.008225051014542592
0.037408649953850855
-0.060068665073573904
-0.02362976453946773
-0.04678700996480453
0.005428801341884038
-0.012391229966000734
-0.009236292684571323
0.020703411488882502
0.00813697496438299
0.003108882766366275
0.016668801281014323
0.007729558556133121
0.03784604167489643
0.03361536272500613
-0.007183584472221301
0.09860645098932043
0.10002783558043932
-0.029294049279244824
0.06586272864962218
-0.08182663123119623
-0.06595102793849356
0.037874732358965615
-0.007236118340761598
-0.007241581452781177
0.00472661760023951
-0.014892342847477955
-0.014828434237786523
-0.021137423917976683
0.017489346164564032
-0.0007270849617854277
0.02824821440197958
-0.01927747554418202
0.0160196189785558
0.020732284731335916
0.04110010648306207
-0.07905846560910426
-0.0074573372935516444
-0.14606931864720887
-0.1399736025551697
0.008947799241869512
0.013905731585393903
0.07186871680083956
-0.02836636134223599
-0.028534856177018803
-0.012631043280155768
0.05438116635877906
0.0036985843097765304
-0.001101164407421238
0.0023283311606351266
0.03750444384203275
0.0012063414570121665
-0.03524692141609456
0.034635352166896116
0.059522115819831675
-0.00918244150685301
0.0096537183232241
0.026115701922646666
0.029621402005213255
0.010438301458945995
0.027987044301830438
-0.010406071331203973
-0.00471305236332634
-0.014203669101452964
-0.03188603304009839
-0.03664228237889016
0.027832177950903734
-0.13377456953602745
-0.12584460151304744
0.05573231753575574
0.04052082068600496
0.04194048666349864
0.041478112786557504
0.05466994947512641
-0.06568201961423308
-0.04868398323881513
0.017229985518137033
-0.03417992291274577
0.008107784100863831
0.005706256079113842
-0.01940463361110726
-0.00797413017002413
0.0067969137437887284
0.019293435796651635
-0.028085564443379583
-0.03890841969211213
-0.012320846257694048
0.03105518730339907
-0.007886434931706075
-0.017458798471509537
0.010282836930506918
0.008004239491625004
0.025961538608410002
0.09858116569293845
-0.02191699937498414
-0.02117704801955827
-0.002437608671968278
-0.015076521067809033
-0.026562685403958727
-0.04342894911342757
-0.025292932690401723
0.0014395777850019229
0.006765019225904284
-0.012136331648996149
0.07604189045254313
0.09484791990535818
0.012885988231815956
-0.0021105158154565793
0.016972909087196092
-0.010146470469690303
-0.0266608779708966
0.018748495131691474
0.02554381165233068
0.09715501157111629
0.0024312937614286456
0.0012832233254989258
0.022371229406920188
-0.00015601147665607754
-0.047588839236659436
-0.005100456249901653
0.017166666678762942
0.019253579955389823
-0.02540075580155157
0.014703430388278857
0.002597535876965352
-0.1306509773397551
-0.03273179525944722
-5.539220064166356e-05
0.001927663822301008
-0.040478499509870716
0.022879913148263393
0.006221486989318768
-0.026924946877512405
0.0032130817692125717
-0.04004036944387844
0.1569420292866662
0.07230289927020196
-0.026953230015116236
0.016475980612448014
-0.008468099822965437
-0.02032701162504794
-0.027686384620940165
-0.047382296095029
0.0009233868390100593
0.04780515291363836
-0.02136452492027788
-0.0058693025053644324
-0.029926277227811632
-0.029406742404260923
0.04083042107139372
0.002253950984660812
-0.04429488300886676
-0.01211269923988658
-0.02131245256843302
0.015797314854674158
0.03422603942581505
0.027292914343467152
0.013531835811563074
-0.030032411018727324
0.00979133550648184
-0.0077849591233954156
0.02409797839043897
-0.011348755374319336
-0.0230359726375539
0.03481219453182945
0.08427170465523667
0.02707184656713637
-0.02098462128102185
-0.014752530273066382
-0.021767499057028163
-0.006737474218808321
0.001003737076833011
0.024274776882786557
-0.043659507656700555
-0.02450221303756227
0.01689779093231746
-0.03829622958457328
-0.02926651323569489
-0.01678329232221081
0.03164426532202744
0.0019118846856261322
0.019498215508863045
-0.009384959811492632
-0.010109105529439793
0.006026157129729702
-0.011948079203263504
-0.02906911698131649
0.01941129168067551
0.005896810627622369
-0.04065459206172902
-0.05886864267582593
0.04236851842957445
0.03460787289795692
0.013735672289171113
-0.02323290301015498
-0.010832718496830132
-0.021991281193283498
0.002350885648569053
-0.015148086759434493
0.0023160322174599285
-0.006474468091332549
-0.04833793202648344
0.044179064751366716
0.009838643819350765
-0.0025209286017582352
-0.021594939020140296
-0.032886502424801206
0.001347160807989535
0.031957105742279876
0.009403017802926827
0.004081724253893383
-0.003084559441584409
0.054599356149772384
-0.03581519219602731
-0.0325362330929229
-0.012821774904115868
-0.009823686818244033
0.007162312986792476
0.001354594512450528
-0.0054364646752533725
-0.01902003731104982
0.006653720973361788
0.21934203159228066
0.04223765489348145
0.02155491122571451
-0.03972108761612666
-0.01860804995337381
-0.02051381073236551
0.027694011782350078
0.10078039200164335
0.015553136899455141
0.04076813381598419
-0.01625132126991162
0.039275434564909006
0.05976794870621605
0.031682759830311415
-0.06240104745553659
-0.14080262595722867
0.005505955036674793
0.019479248334241965
0.008409193092382446
-0.028976637930998028
0.01749215062634707
0.0018920271593302652
-0.09820249835622703
-0.03477893108605048
-0.07500861295672318
0.013982712755547945
0.06687704612113463
-0.02060546186292365
-0.012352448205175693
0.02110331413164118
-0.014377018373684802
-0.04031206556040783
0.007733995956318348
-0.04318866869099719
-0.00016998496055492816
0.01611854989443424
0.006915901704886694
-0.0243241321757364
0.04710633366946443
0.04377386246039587
0.0032694220318982992
-0.03814442948793459
-0.06212124342237159
0.016582990678625363
0.015390181079095571
0.05157099079040832
0.017291793770319534
-0.20777453500196624
-0.0106461429391012
0.0074502024939058055
-0.06288880035810646
0.009954080804523936
0.01650238002859978
0.013864907936176955
0.045555742936448373
0.0895011727599305
0.059456381350675706
-0.04605846083507018
-0.08083217502518762
0.017749621233768463
-0.0053465478694299995
0.0785624825664502
0.016899329627285496
0.009723729018083908
-0.032084564544049676
-0.016874536828401777
-0.008968349453814585
0.027989015340466935
0.021964424626457025
0.0066304810120043555
-0.025184793833779907
-0.005785045939953289
0.014772390494766653
0.01165625859471013
-0.00802748352419399
0.017389377308102198
0.045745838423850244
-0.04205706109890255
-0.03998813481647983
-0.01336845841425757
-0.0021641822226019245
-0.015823882990345015
0.001789451880794126
0.05044943902232746
-0.013970490143756694
0.017530334456242688
0.034068159383123034
0.005051346730084874
-0.007567920517011454
0.011883347667756354
0.055133795268682215
0.05068391020015399
-0.0024788159777063066
-0.0026763123336402414
0.0035655892252058076
0.005791691174551325
-0.05247654643908109
0.03293407929518545
-0.01182966094091809
-0.08935722454036078
-0.013609310415027753
-0.020880440177262784
0.12435579693617947
0.13017342181894828
-0.06611780047751875
-0.011937075921155378
-0.03603303979793463
-0.12912066735450467
-0.014756970529906849
0.002103110680633367
-0.0022053990569656876
0.021503645983974168
