0
0.030694105176939723
-0.00811692165939525
-0.008045999047192451
0.016382814056450486
0.014780961644659755
-0.02476019096618628
-0.03228129113524792
-0.01454153945562292
0.04529707625316671
0.0003822543707204466
-0.06080263571974984
0.00035647201084529085
-0.08519377753433587
-0.016140868046812643
-0.021550275045539302
-0.006673809017937061
0.03460559605606567
-0.01106843546846772
0.00347571925803383
0.005984531645182718
-0.04353574295500463
0.02776849931949494
-0.0026986663415242626
0.04199834515680435
-0.00896324086165698
-0.0022934771619475113
-0.013163016592426375
-0.08883515970707954
-0.011644901465533822
-0.00997277792146855
0.022168418743542872
0.06289280585871213
0.012556228600978365
0.0221561302537018
-0.01248100856868827
-0.010782154914134034
-0.013763450764996276
0.008270317785441518
0.033990206836391035
-0.024108228476164534
0.06317773514027478
0.0066925900328507724
-0.036760352532337996
0.03840967544816987
-0.011197189136196202
0.004666219455964662
-0.012122000026087626
-0.03147922448065736
-0.0005592181330368696
0.0600111544004685
0.038383350302622105
-0.01378854430875087
-0.015850715071907055
0.0014777488088159054
-0.022727837026142797
-0.007348237477907468
-0.014806937582213329
0.029146468293461476
0.032433599675807875
0.08206104241554356
-0.0132250318293786
0.1001834255410893
0.057573864750868446
-0.05207838686188201
-0.01644128217561414
-0.01968570162107668
-0.036257207667571054
0.029999463367730246
0.008287248134778429
-0.0015664476545548024
0.016067333921677248
0.00946983856716224
0.001153626366205456
-0.02978957575142638
-0.11034608161974446
0.040131429321124956
-0.1339036907004002
-0.170518574263376
-0.0019018837821972502
-0.021783364173943484
-0.023353607038708875
0.006064345232057152
-0.014035153021409699
0.004772014690195097
0.0063025891316838105
-0.0022009558144584634
-0.009542757126368895
-0.03160408153663761
-0.0002186576292928239
0.06072730046716673
0.03160379477946953
0.044486573133240497
0.03754900511682873
-0.00813563144437317
0.0206005157397031
0.037647456894494266
0.04022904767402628
0.0991262018858734
0.02139670027563057
-0.03236240408481778
-0.020308061571658622
0.00034123565172969035
-0.003555123389254554
0.022263689580509213
-0.017593774151426086
-0.051571174346055564
-0.026904149627015924
0.09583623278434564
0.07600492912671537
-0.07493604793338575
0.00856609556353852
-0.03699169870336995
0.02352839109307869
-0.012629832769233108
0.014896413186496564
0.054305905863406626
0.03374706752779891
-0.104920705298605
-0.01591771933945266
-0.004422004903890946
-0.05390027655494562
0.011310275205033131
-0.05352820100915041
0.1128204561209981
0.04134377849483536
-0.043111630870008216
0.010340709914070186
0.005666866762537067
0.08788955709704893
-0.00946400945496383
-0.030275642816471906
-0.017186112955758292
0.06682242333996953
-0.09712685129892837
-0.11426890167139905
-0.026271824531596554
-0.00735370985078467
-0.00422330416055291
0.05210228381325902
0.0639744653395421
0.028730799748308375
-0.0033909001371646473
-0.019165709763695783
0.005223961541220783
0.013869814208715522
-0.08521465877001613
-0.03502743823876497
0.02821443630170268
0.018418389639593066
-0.052327365208927695
-0.012138671490136026
0.013522341678626383
0.02323634124216788
0.040866147083231545
-0.012718183815748053
-0.03321279650321634
0.001180399977728627
-0.017492481003094598
-0.0036899168502185636
-0.029604148411829324
-0.0013148914077456965
-0.04235427694153072
0.06387307946321372
0.1366047874166643
0.015856773497760362
0.01812491246839117
-0.0020351053490406446
0.006708761883426913
-0.03015972345472228
0.0383274759247204
-0.01429957557422788
-0.016459774680637813
-0.015069795429811525
-0.010262646151221442
-0.03886835836889493
0.009222396958300641
0.01447019920615745
-0.019203350885418743
-0.013677205673576968
0.03800194780629547
0.04714540076586611
-0.0020346515908958
-0.00962003472916087
-0.03979784210795908
0.011796281519696085
-0.010034781350660875
0.0052104216612018864
0.02284534265051527
-0.024983058711153947
0.01633831528413021
-0.006632995601916466
0.017955546925784664
0.018271152213613955
-0.012162111620983043
-0.028334377199026043
-0.004339126427883733
-0.0074244907142500625
0.0035047257419475574
-0.038335110051497034
0.03670099611386335
0.02698228991037225
-0.07105253436700718
0.03942700712247089
-0.1631246607630823
-0.15211122795844903
0.015170508542302319
0.046885655622248716
0.06809898474524781
-0.026050763157916473
0.024695825566205074
-0.007052937565615898
-0.0007230927925121461
0.009548773712551988
0.01765309923392446
-0.017418868721892713
0.014115239905142745
0.033885980715671116
0.02619709842927369
-0.08019843126656856
-0.000825585111846604
0.08804381647207923
0.1344214388871082
0.035574969181390546
-0.030914671655455694
-0.0009411401688151857
0.01328051832963695
-0.026919109587436634
-0.03919372913988169
0.02013993967587444
0.04789700943839386
0.018340415052819047
0.025713735128405104
-0.0027747027415227186
-0.0029260691144443866
0.0005082079229984278
0.04258753720703392
0.009168115885765278
-0.08148926962535676
-0.050437826054549606
-0.02563928069807036
-0.00943105262052636
-0.014520219579143791
0.0185207324372316
0.060665898044916275
0.0265652266306027
-0.004015958555970659
0.030028045992378245
-0.025037948706167854
0.013026833413044699
-0.003236948910042883
-0.006609910061113279
-0.0005858536550898609
-0.015461953679820388
-0.11308795079130951
-0.04280780756633037
-0.040381814960651616
0.011509199133290507
0.01986749050488618
0.017395062138205904
-0.03706435193014129
-0.0179019741509059
-0.003346653496438912
0.056009108787141305
0.02667631188698074
0.015306406273419582
0.017025560738216705
-0.04919113802484954
-0.04023631720034942
0.00016377466351314798
0.005632831061708689
-0.015020788849822624
0.012727387391836936
0.12851293054436702
-0.008819284211794775
0.024051911112778945
0.0453402595978842
0.021938786911379567
-0.0883108771792242
-0.1387792183274397
0.034870864737358606
-0.002547087632383823
-0.01332678844338757
-0.03365319310124461
-0.04895558797519608
0.020578810933865366
0.19905337712174995
0.10289528045014829
-0.01532142591757915
0.014780144363272176
0.007307498193562405
0.03362809334795216
-0.021527526378359387
-0.004347451485056136
0.02480786719071284
-0.01708274096968324
-0.028511552429948718
-0.011845571700893207
-0.015281668565958858
0.006629092294328786
-0.0002134992785562808
0.004742956362564886
0.00835450380020181
-0.012606833625025992
-0.029024452087260243
0.04739816417278033
0.024705223826819757
0.037162655136752876
-0.11306382750722156
-0.10619271376439791
0.020332099456375097
-0.007188651574874492
0.009768901761375926
-0.10870557404939318
-0.027907023890602674
-0.06973163078580301
-0.02334258721328806
0.01653066906598012
0.05053006781225314
-0.012401324061782404
0.0047751661515626305
-0.009118081807779928
0.06657289201507986
0.07039764779227527
-0.03768495982127773
-0.03560342684265728
0.009699441344331105
0.18381098650578903
0.012720845485052692
0.05210953000256497
0.004413439819873825
-0.0902455211688586
-0.0953461172487119
-0.14461123102056309
0.010196649166154186
0.149732909054317
0.006166131059835166
-0.049819668759022384
0.07477415708940285
-0.011755194646560174
0.01242510475117553
-0.019055576971088554
-0.0050183435200562235
-0.030376925014367392
0.016237937945358643
-0.01209055719212105
0.04402324654462911
-0.018752939670197206
0.022327491459584514
-0.04713568026408984
0.01702012060340689
0.08300174652387445
0.008626589475398379
0.04109621964594747
-0.03386598705273457
0.08826730865707037
0.0632053350221595
0.01669065491834525
-0.008004363496552865
-0.05457800168557896
-0.006309173878204016
-0.04607725368303817
-0.07235001705346089
-0.055810299253758945
-0.031301484119520724
-0.01929513795979185
-0.020321061330071048
0.026844762711351586
0.04679832610454839
-0.036373427149376726
-0.03530483314405074
0.0364369563485438
-0.003490777934222043
-0.00719355101293809
-0.010078899035755885
-0.03125306246963019
0.018046917792582072
-0.02665314099009053
-0.03152561896995971
-0.0019847853459104958
0.007448635252053871
-0.015565766262872297
-0.0058019077345571905
0.010156741964704952
0.0049499706944440966
-0.039216828604728526
0.06924926455878688
0.025515181918848738
0.006988319023887929
0.051658954273339074
-0.04115137559423331
-0.019598825106981403
0.03952576895426547
-0.012906953374926181
0.00024216344879974955
0.0559668582717324
0.05396210936700951
0.032828019080022114
0.01362758401964185
0.026162660120824074
0.02609440303673705
0.010162893839709752
-0.024310429087357196
-0.13477792897173407
-0.031108893713487684
-0.005794368718275205
0.031102254385503174
0.010339469030579956
0.036273733685676886
-0.00137819471947711
0.0026820716874751947
0.019333315848830895
0.02869247301314302
-0.030938168679045197
0.04651008614995659
0.000152841455445504
-0.017903239540347154
-0.00036500611467861455
0.032573908180094674
0.03798978809409681
-0.18644236450317575
-0.09226253856325795
0.006141779043383424
-0.07031810801271238
0.051294519877569895
-0.02343107220706229
0.04947567110907879
-0.0019330931174589545
0.03287942748546418
0.04357326320775063
-0.02634208733631112
-0.014419719102677952
0.04844356964494207
-0.014875743211237583
-0.0013732952666200245
-0.005765473666515279
-0.012381747579116698
0.0018752917134568594
-0.004727880109306419
-0.013071289286383162
0.013062287360809948
-0.024971596658574787
-0.004804944157652255
-0.014003350917823251
0.027120741251367843
0.01636418660629715
0.004383962904364913
-0.04207347269695262
0.15464928296530325
0.06921913707512595
-0.019294425636856245
-0.013450919587395598
0.0013255235492071692
0.003534265537552332
0.003544540341083942
-0.04306189526819168
-0.04123257341171809
0.01165282116336983
-0.020646330190413394
-0.03747966384507757
0.03961835783735648
0.0284128592344289
0.035953652290702826
0.03107987952735856
-0.14017539272954155
-0.02279229507688826
0.05192979745196861
-0.013498919880864126
-0.04550174846307586
-0.00736289407648797
0.0022170095011512896
0.0017286147021617622
0.000620927770685168
-0.002816200151259976
0.027059617550321713
-0.03615062747183872
0.04258957592047816
-0.016811196484078143
-0.04387205652155475
0.10717588314172267
0.06288325259153033
-0.012166232668392792
-0.04139248119416895
-0.007300849061300227
0.019577975877179684
0.013446306851311637
-0.04504803761553644
0.015010329345628742
-0.005138740045928499
-0.007258409214898342
0.027477344170246443
-0.050033026651992406
-0.008942212941244627
0.02847875991509513
0.016328648780263758
-0.00663575518838419
-0.006212744966980571
-0.017775957897122024
-0.003179454016741239
0.007052421937098095
0.03840239525754373
0.025912298917009878
0.002791636684584717
0.01864706154956095
-0.009655916315120089
-0.09567304024036254
-0.02837486768031387
-0.018222730918333718
0.01337561085603031
-0.005360275834861225
-0.013832687780807054
-0.02150083243338286
0.0032793880219311226
-0.0004075192099406328
0.04000324274269369
0.018747748513720804
0.009456026598457894
0.11562875534173406
0.07470497262155314
0.01459247580170749
-0.09602031458451533
-0.04148051342475368
0.023353053585613327
-0.044099797459846886
-0.010222780016436285
-0.026560377621140056
-0.06432224781049847
-0.09499681864739551
0.011214235615205407
-0.05517826839417113
0.04402016049047753
0.07951948637874817
-0.0004043800884128787
0.00020006899091871405
0.02432773300830671
0.02044740999267052
0.003886303202408856
0.0011139442894461018
0.015552347742632073
0.06812261209510603
0.09112470187955252
0.01218240810953058
-0.01441999941441809
0.022414066831149895
-0.016256108012906032
0.024535968579019848
0.0570260111321837
-0.04622032092862258
-0.04118616836234682
-0.014000219866379612
-0.042522048500532775
-0.0765607179310993
0.04166015172929244
-0.03237120751437537
-0.0446643437682776
0.02693509730854363
0.04104306453055177
0.004627083164310184
-0.02468934079642033
-0.008325573131714418
0.01973409279031602
0.007857516847692165
-0.0034740659979677537
-0.029816301963399287
-0.02424227434388429
-0.030417703458538305
0.014632493835872987
-0.01932075925402046
-0.008640594073454272
-0.0648449302232401
-0.004405016912266062
0.015162355325355807
-0.0034240291620587656
0.000364656905388392
0.07176845203054637
0.020534222960779027
-0.0036598579369367767
0.037603214075587615
0.03112173846837004
0.03161411071851764
0.03859646416864548
0.012074663344385938
-0.012030345819705116
-0.018053825766760016
-0.017348746260337788
-0.004318320553064932
0.02812943957846729
-0.016824388324256243
0.01460851079169177
-0.04990141068995163
0.037935351655180374
-0.07448571936023347
-0.12306403914578752
-0.008357494918442593
-0.11056825273488113
0.038151364354706764
-0.0008245599075975288
0.0325455271968625
0.04634930813768202
0.025608636394445317
0.0016376510835190772
0.025485029246176332
0.024309509902920714
-0.018100590334868487
-0.007710712531412623
-0.009149695989917264
0.008747640525491679
-0.0015594237609748332
0.0011020691858979065
-0.019849004080407722
0.04867562146969012
0.1259391315634238
-0.00012531321937182404
-0.02567901444467144
-0.04632138791425364
0.007945770233525117
-0.024607634473570075
-0.02352508898213623
0.020673684506660364
-0.005031252129101821
-0.0546385764468893
0.02542022015995
0.025119805361131703
0.005031629851431272
0.045406090635686555
-0.032401750745149414
-0.06268439695569138
-0.023635235895150725
-0.017530456690178463
0.002793868204695086
0.011874483319515839
-0.026942445699615725
0.05507628820870927
-0.018328352593641215
0.035971691481966064
0.1191938165244057
0.02421361718698512
0.004504008227999961
-0.0027709381361602278
0.02066648576992334
-0.056694319246522025
-0.015182802581146715
-0.0036057554936007067
-0.007897631772060447
0.009618409645396191
0.04117203138614446
0.054540847241815286
-0.020808101795396557
0.02214586118946439
0.0009069769333145838
0.0038437836237591853
-0.01892329080621144
-0.01714570239894706
-0.019929813353455807
0.03349265591746456
-0.018138991032788716
0.048082514931356436
-0.01588323208337182
-0.11678169856868803
0.052634619207732575
-0.0006169664293180758
-0.015445573857362591
-0.0013827983716603672
-0.029278894426465914
-0.005055815098623666
-0.023884954253365842
0.007151682646016011
-0.004865959580053551
0.048597052640857376
-0.09471950364049507
-0.054778543577025204
0.030213999180663115
-0.00526508328868317
0.001172054182522004
-0.0029135733343785856
0.03342524661623103
0.02660003452555986
0.022482798060557262
0.035921647938819905
0.00371263546827531
0.018940207073678703
0.0010680386530061248
-0.0030274998257875346
0.034776396498693546
0.02398427594427734
0.028357812366626853
0.006741391341493176
0.038185839249004164
-0.05346456178484973
-0.00783845158083343
-0.0028502460230428006
-0.10992005252439485
-0.005998185068226159
0.018486939622970214
-0.011368989672136301
-0.026774718229130814
0.05792186849169257
-0.15269938407130776
-0.015479929221117609
-0.016404347195226213
-0.0010227926341364664
-0.05823446980249317
0.007280044163527816
0.002340493638119143
-0.10696492128957459
0.022154555945281526
0.06599747771347161
0.055549961992330865
-0.0009621071662647819
0.0033436124834310727
0.012330524265509159
0.05247182303586662
-0.0036960029294262303
0.008505902883612164
0.03731798978885829
0.07110645869387834
0.0007261053628611845
0.022945995242804836
0.009482515852774693
0.020312769380951758
-0.05176013511568205
-0.02861648079567976
-0.0017491144713402337
-0.017124586588920025
-0.001548426767186054
0.02044493910388321
0.002147472063387792
0.0031358472035848926
0.02187590865817814
-0.018247709555201372
-0.028558595714356098
0.03472854014960168
0.016803001635963894
0.006168704968998938
-0.00038378486486953674
0.01132929495418008
0.027916555212862158
0.017126438122184614
-0.013313712031982162
-0.01041565459355969
-0.008056313633735051
-0.02379439212986733
0.016849291499822
-0.01589804568889005
-0.009644539623895197
0.0029203247280603496
0.008963877657848602
-0.006618513550701001
0.0191337797824422
0.016747303981929605
0.005883422770616283
-0.013105531525616122
-0.08410944792228169
0.014172758411584422
0.016631382925614478
0.015383392155651163
-0.03245707231596727
-0.02752247892667813
-0.013928330888305855
-0.0029257841932100255
-0.006443494172053441
-0.008169030982853358
0.0048952608464543105
-0.010739515606124257
-0.014184343050206058
0.02458244128599482
-0.042400045505859345
-0.06723585734713225
0.0002084732855409183
0.0016186689097729555
-0.006883280529385436
-0.03893486430989065
0.16042243824952207
0.06484904657082428
-0.028569926487243148
-0.019439619153295954
0.015230592109447497
0.015043049303192765
-0.0165758954189296
-0.006001356874256552
-0.01673131692140943
0.012196820405064339
0.009171853731434872
0.033263946943929354
0.04639668519517872
-0.0054182466458508405
0.0051283054307683625
-0.03459257272022051
-0.00016399255817462808
-0.0025570372246415556
-0.015258729169342868
-0.001761682862796605
-0.008930318792674948
0.0048159325600140935
-0.004430312664015175
-0.009984666393157215
-0.023641858845432354
0.007847670447865126
-0.02563140363605945
-0.009443050013987656
-0.0737045029971579
0.004526778342507538
0.2416911362767924
0.011257913639057825
0.05160877030466484
0.02747722681706884
-0.02568369217569702
-0.0004806841452496744
-0.05074535759748392
-0.04164955890952176
-0.03183505752243589
-0.025603313010782378
-0.031188435149889365
-0.019658399511882932
-0.055445919982093354
0.0410912610954038
-0.018205764844351872
-0.011861057364947239
-0.01038766050697144
-0.017638992851317595
0.02194019972683342
0.0011810105486326314
-0.02057253020041289
0.03568207351163561
0.006944714241523273
0.012359934589683028
-0.0026853504161804907
0.02257802735368632
-0.021930425093860964
-0.026948985227927207
0.11574709809819231
0.05557394985145416
0.00265210915820627
-0.008825197021452501
0.0052595537318622255
0.017600120119473477
0.01949713018642503
0.034213663401752054
-0.0745015631291438
-0.042540460589824754
0.0052319292202008425
-0.032544378943034594
-0.055996159863808334
-0.031223358942320374
-0.02098854016690547
-0.008976566598862338
-0.047321958763097235
0.018934016398718525
0.10111950496920939
0.025225071723239685
-0.018525576295127775
-0.01940635163640185
-0.00022772136319575714
-0.011642387739791257
-0.031087034099196397
0.010848142137781194
0.03253567233669961
0.018808475239700768
-0.07622053770637774
-0.04343744058866747
-0.08872705434042422
-0.0021379680118849853
0.042793318119496264
-0.004286956453978052
0.029175825043462708
0.008633334542571628
-0.010135040005264554
0.017564550784817397
0.12016463329711152
0.03664402812074662
-0.011198690224735497
-0.007759309069056156
0.042471555504123966
0.06793909790379468
0.020920235231477458
0.01941400678287755
-0.034053765755706594
-0.011371904076386434
0.02067962353079813
0.007831102135752043
0.02064182452977979
0.01967591001689772
-0.020005793785116077
-0.040925022525390854
-0.018720765138046574
-0.0003276322016198034
0.00186783593125056
-0.0239781613032353
0.008053143679957074
-0.0730325649008993
-0.05937492834051849
0.037107602990669016
0.018675058609673632
0.015720153055503245
0.026949273785989703
0.006005327831134178
0.007701771958424402
0.011078146132158706
0.03403569005675365
-0.020027989634086196
-0.04175742319250635
0.02304778771952899
0.03000721402162144
0.047524924725179045
0.022467936098146644
0.0441534327852495
0.017691010674849305
-0.023358615952557792
-0.046580407262249955
0.005037470353270722
-0.0546887087373502
-0.11520900378018452
-0.02590923490110452
-0.04462414969527633
0.003833962450255122
0.013801911280838535
0.020558694929147848
0.01612531962923281
-0.08607668186486067
-0.05405157458797811
0.011903024139730056
0.014351766688543176
0.025394470224995667
0.014314425654613997
0.0062796758333496985
-0.004192140553965043
0.02379340933430274
-0.013061083239048091
0.004834720300572528
-0.004671112250622873
0.04249020548703417
0.018706296397773985
0.012431574690502413
-0.00660907606828384
0.030383462908291074
0.06197314660846995
-0.008674280748425491
-0.022217567120588463
-0.017943142430385153
-0.09117642524053614
-0.012594628198108622
0.01688268663349544
0.020231384270795773
-0.0028661259265419965
0.05473068231809025
-0.00041607005856810793
0.025294455583638475
-0.020828282160312017
-0.151011787064371
-0.022858242554389452
0.021280771457000847
-0.011917040519229745
0.025149332689119216
-0.007829556353195804
0.00207955096512406
-0.010093673729201573
-0.06609395681813847
-0.04156662839988685
0.0857979285727897
0.07748095942953423
-0.0021777323837927436
0.016320067751761206
0.033834052563702616
0.03278337090512298
-0.004820689473009041
-0.021382951910698545
0.06383794172889908
0.0405480264861697
0.0013194204225987468
0.021765694079715302
0.0621089393326498
0.007071090013855938
-0.004306769223508172
0.009667827577451493
-0.09775298767141356
-0.06557735655096156
0.036193885413344846
0.003169731906606109
-0.013489757602111649
0.012082613883216606
0.05939204660863832
-0.03588850319492763
-0.012247700231015625
0.002416186039849836
-0.02562703552980249
0.01695141994395938
0.09501902757977014
-0.02540211044069492
-0.007119147500600413
0.008829354772730235
-0.015812351054481404
0.003532868263986463
0.021100835267591534
-0.004398832473743515
-0.005305292013900072
-0.042808838160699164
-0.01480082230367997
-0.022508563913036607
-0.0009964390645252445
-0.04531789012214384
-0.0008082841033085902
-0.009348796441541504
0.0039840421051270045
-0.07644486138943633
-0.056383070554569883
0.03575283000409581
0.005822128044295998
-0.006706500444365353
0.010772202248727339
0.03259953895513275
0.020159613775182432
-0.01920269280567962
-0.027478012834042102
-0.03203521240464109
0.0034206700447798532
-0.015195682039313778
-0.07066218935003957
0.004294646947316559
-0.006913507486668553
0.02173964861858621
0.003050727017610254
0.027830374064790896
0.02050712547293791
-0.011020287177359171
-0.014765964553364177
0.09711942064520693
0.05709153600935751
-0.023515607659951872
-0.02382108615206779
0.04685297035525515
0.027612240536559654
-0.02357323051702515
0.0028054620547046517
-0.0248191223298508
-0.0031454023561605835
-0.018759189575003825
-0.019155700299079776
0.010359980696673956
0.1505431072671724
-0.00023713218198854834
-0.0427495405099379
0.00022928789566793552
-0.014140831869000852
0.0064997105896071215
-0.0541743352575252
0.08191444764991103
0.03243871524286215
-0.01715954050424371
-0.042261253857194175
-0.008468582326971688
0.11024132815686251
0.017785723186100034
-0.02580995439505221
-0.04959082676803467
-0.0010875292652759141
-0.007121467811257326
-0.004863876097632063
0.11449921403781464
0.004150591444263315
-0.025736950561353174
-0.01294081587156806
-0.03363988028099021
-0.02076350535127906
-0.007364066555279833
0.00020747761095412027
-0.002301182028224669
-0.024834964206600838
-0.040253382798760264
0.01200198641443122
-0.04898984006076244
-0.025981832281443285
0.0057934849107229396
0.0028974137964981285
-0.032945169322901646
0.008077410492068842
-0.029189228060474727
-0.03461496886733111
-0.0197808710127554
0.057408708872180865
0.10713832047105319
0.004599513346257096
0.006066455771831729
-0.011471217180452147
-0.027715115395851562
-0.023309384352494744
-0.048997715067505804
0.026298155662403323
-0.012243751553665534
0.13396426555147323
0.02356591689846053
-0.11657938243159428
0.029083176929040354
0.004145878963793919
0.01748381544388579
-0.012769636641267337
0.005138669140953436
-0.03731807018379246
-0.0015193691743090223
-0.009028830547561881
0.006219445504631114
-0.01230882942820142
-0.03710544142141502
0.005842020307838111
-0.03950081338808857
-0.017253646283554417
-0.0014280716772588757
-0.027220044832782068
0.03030882585345366
-0.018166190762880646
-0.028204813554940422
0.04155148823551803
0.01597714582081486
-0.009007009030264291
0.009820387135027213
-0.019915021800254413
-0.03740743453124011
0.031211295272594274
0.12419549661470537
-0.047196038147491653
-0.025645301694651026
0.07928909131146444
0.03541945393172026
0.022161571303781984
-0.021175275483006042
-0.022873809198780324
-0.01304599063183789
0.013473022792595315
-0.038198175906433554
-0.050336429651443554
0.030508979517000705
-0.0072707853117494285
-0.010294934183175626
-0.006048740955260488
-0.017605468710979316
0.028593161027833516
-0.007314450796636749
-0.018905951973346245
0.028306666185982918
0.04071047995775648
-0.009755026650053771
0.035874879642135364
0.08761228850539095
-0.047972158981808226
0.0006012807999754073
0.026657208902901443
-0.026499308495676426
-0.049240378525147656
0.05893565858027622
0.048020291968496776
0.06621840039003736
0.00298573184581704
0.0043843925324979945
0.06069654286622855
-0.03034546543661327
0.0007992900517123701
-0.009836424725397202
-0.07814554611091132
0.001545192173646092
-0.03555340785126511
0.04200332200684869
0.1125810300938396
-0.057602485761649946
-0.2321268855206255
-0.01678122531675978
0.03503120416017851
0.03144649424598016
0.11113071836355731
0.009940736078775884
-0.011765817478089937
-0.12655145842496685
-0.034797718912673074
0.022823634521730952
-0.010218302930944525
0.009253399385280506
-0.0266992446392611
-0.019584497608731148
-0.019196153228603612
0.005210526239610722
0.0339959184778508
0.047342911206923154
0.006684440877882486
-0.055583507024162385
-0.05058976109256982
0.06315244453194192
0.044874481957847906
0.018759014257063996
-0.006102297771933492
0.021157915847456982
0.05622572208328729
-0.00035747740485942857
-0.03167480096388689
-0.052341300925699996
-0.003282743881420442
-0.06536945690940506
-0.0432094880925335
-0.14695277456405814
0.04470601507820427
0.032373073347774506
0.03157458145115582
0.020153103624640206
0.007360868278430818
-0.009179245780924097
-0.009414248829231576
0.031864383217225165
-0.022473996239068417
-0.0155877973622511
0.02191802923097635
0.005188271665629543
-0.005714642132239313
0.04439684222154104
-0.01798395407089804
0.03968926020714876
0.019975364081383788
-0.017564071211497386
0.04775032169579003
-0.014682163495106282
0.03866254828367456
0.11684225715367325
0.0029217197839077466
-0.018059964575971574
-0.016558515707053998
-0.15930530175782473
-0.05306463527104832
-0.0016889782858980574
-0.02542117255091441
-0.00938269857365328
-0.008850494987564385
0.019115990590226065
0.024126355936337773
0.02480354986065226
0.0023591391466710934
0.035161727541970514
0.014655759857234728
0.03727052656619856
0.016045027889329197
-0.003957727960452193
-0.03811793044968168
-0.022324523040808168
0.03491558738769685
0.012427127869098411
-0.006565274676192389
0.004925015551537495
0.03739109049853695
0.10145307689583614
-0.008345780400885152
0.001260476984761782
-0.0565123338496303
-0.021786324545499766
-0.013828020225691738
0.05153247490473651
0.03277823100894814
0.0006276375954770646
0.011257132984218
0.0425884419603231
0.005680902757336744
1.9883234110491548e-05
0.017724154017657593
-0.021544483545404985
-0.11152752935090013
-0.016847776545438793
0.009343548580042845
-0.030055164060869825
0.022529209661432455
0.017403164919719563
0.0019082772428509404
0.004604442331183209
0.03982833174662584
-0.11693971236388233
-0.05690466148592251
0.026014690187215677
0.012717315167334086
0.022585715829233688
-0.00030295879790422726
-0.00979706711825655
-0.0068983194476816435
-0.02607370039599336
-0.06131057863269418
-0.020931242674830382
0.014392462746626348
0.012084701745400493
0.04155588087536679
-0.030874006627889618
-0.17198204769164646
0.08206670948216369
0.12836245717807807
0.003940888468292977
-0.0003460077618650737
-0.04773033620384799
-0.06885618876024246
0.0410522297513702
-0.0019629779776945883
0.014788211873989208
-0.004204944954301344
0.020549170342961182
-0.00020400525398093575
0.044594198561999566
-0.02238694576344537
-0.010967837349159777
0.030477712402328248
-0.015999362343266633
0.004565363799127606
0.04910691260896
-0.030785135949981227
0.021873088257713544
0.026238474207047918
0.01669338346981444
-0.003632885304187248
0.02614074564229682
-0.014008862988785734
-0.06214008283890187
-0.015688172639521516
0.017986133570460916
-0.02004579165275999
0.047475956519219036
0.03105437266556906
-0.028606759509599726
0.04166567000329687
-0.05549067479036495
-0.17753131631354552
0.0011241497732782932
0.056574519060386234
-0.026241060763778495
0.009890176327062213
-0.018600464562281805
0.01503783085432132
0.02165723320888805
0.05240066049750522
0.027662938744350093
0.05373646381448627
0.03032316990630924
-0.016357484627693566
-0.006451124018149189
-0.001305461624267752
0.017027588768581115
0.014715397595317519
-0.011281255282935708
-0.018261198506202145
0.0007957986005296051
-0.02346004266862495
0.014850971924878963
0.06410953428778096
0.1379582646027402
-0.05004676256236824
-0.012448301945415198
0.03471944200419826
-0.04112845248303416
0.059800015616203385
0.0805833947129884
-0.0901606208336992
-0.04333948885142303
-0.04530482570161061
-0.016321718619148832
0.006601283134115711
-0.028830453076503677
-0.007955595006260537
0.0024874460318885998
-0.005984955825769078
0.0809189697066214
0.000442615659901186
-0.12571088022701885
-0.00998874618606941
0.017902490460498348
-0.12900636351877773
-0.09649487987688429
0.04512651396346915
0.02529100722471264
0.03618892573550549
-0.00438296798960969
0.002914906200861074
-0.029681929499032082
-0.02238694750297606
-0.030259991608182314
-0.010921861736439976
0.005035000232567753
0.000635304492444417
0.014676808728435894
0.03808054875396272
0.003937506011451128
0.007483424365844319
-0.015766222791932395
-0.011339541661256695
-0.029889585692450885
0.030393918563388026
0.04259765536347683
-0.0006491843180750246
-0.0064178471422946136
-0.00193708996528446
0.05700565493701796
0.07460906882595425
-0.029361998894303284
-0.10072228592367398
0.10302555498797335
0.1433364727898379
-0.05626233316231566
0.02814224592121263
-0.014810550019485435
-0.0028316540641552448
-0.013153680090451203
-0.015176698864722445
-0.006434877151202948
-0.05094968344188063
-0.02060624422251327
0.014171085646127457
-0.005624913277874431
0.004860172518996195
-0.0015262813279511146
0.0052008414780246
-0.02282486830799194
0.014317081345763087
-0.012961281804701918
0.09398236924451622
0.06640099698303316
-0.0095662013634746
-0.0030460330117596498
-0.007954645451273407
0.01352212684645918
0.0346991955949603
0.008315766605840547
-0.03990367468728319
0.002866658797460795
-0.025945774016038297
0.0111267592576057
-0.02807569311950734
-0.05851279427968555
0.0036820531864218417
0.00765525700907106
-0.015542654244160266
-0.009459529578231785
0.003070372642114173
0.0161474445422859
0.007550278117026465
-0.035636495609792374
-0.00961045519953785
-0.008522471815217262
0.015939636565462722
0.03336110612409555
-0.01092623056848839
-0.020601340083757847
0.011220341047655222
-0.02093835719676011
0.016830285354588335
0.01249181470208975
0.02506763151166359
0.012948737480244717
-0.02432982496350251
-0.010951298006115011
-0.03623703588448223
-0.04420806410199572
-0.07168575710340533
0.01864950497607519
0.0037106440770603294
-0.06016985379145938
-0.020726725603036796
0.012696793237587257
0.03869218619954566
-0.001751964995046991
0.06879707188417818
0.010672602962648632
0.0018429419961441405
-0.0006995642236620091
-0.004627384387391543
0.06425791539951475
0.008277735425256696
-0.04023060860511847
-0.03332241313866855
0.014500804706581329
-0.008134931718408235
0.019348985714230726
-0.01959615589199264
-0.07724493615260854
0.04275278213684222
0.0416204296230663
-0.006529022205976411
-0.00516558954293
0.008838971358779354
-0.024661200776633092
-0.007050117364921603
-0.02570868517177257
0.03786086435484246
-0.02375225627417675
-0.04262729508189572
-0.048073892829010194
-0.0011599115300052014
0.07631614390658732
0.15704851846558632
0.06509492116350449
-0.027949916271502572
0.01205623575123629
-0.04981971487249533
-0.023445744210890875
0.03158728585100502
-0.009708745192211451
-0.028033679999142073
-0.0008824206343455491
0.016851554451352512
-0.05699023670208526
0.05537683048740554
0.08012101787057513
0.02033674674471026
0.008306552909577753
-0.026767340499590644
