0
-0.00576735265083837
-0.028775544951000587
-0.008522778714768168
0.01347473010557411
0.02104074991124164
-0.029589971760708197
-0.0188270133453635
0.005787598268613417
-0.08805944940499154
-0.06461377945560781
0.020708414389692165
0.01239924089380796
0.010619351179504119
-0.056489813956047186
0.01098549706306146
0.006792099920110475
-0.004062060642981173
0.0675153494005103
0.03507066737020594
-0.026155485247972236
0.017616099895983717
0.014203783848664235
-0.029318380370259044
-0.025922461544629977
-0.013785138962567875
0.02767415434866778
-0.040870597207322196
0.049056661197527766
0.01851515178057333
-0.0033955075212133284
0.058893927748033065
0.0166014419206127
0.05263089136177097
0.03453340740242652
-0.061845025569485436
-0.021028846817414088
-0.0008596705714026381
0.053059013730777274
0.021780167606778762
-0.05436412099229721
-0.017163498080867475
-0.006082549147324799
-0.012631327825726171
-0.01434445338155126
-0.02518722527527447
0.0010312602695042217
-0.0030469199961616496
-0.010106043948867594
-0.0050900857260041425
-0.02767900509373011
0.00946247634809281
0.025085102329800876
-0.003660769393084735
0.018561850666672763
0.01774701706703438
0.00817727963198699
-0.012042148777562954
0.003978111178340038
0.026602214337559778
0.013186395928793665
-0.018745179128532137
-0.011924624141652313
0.009772872488143777
0.01775028396978146
0.058988711867491044
-0.034639475543203825
-0.0506097451260443
-0.009100773559555585
-0.05522544058089616
-0.0364312777198463
0.06036788048762431
-0.040157049093714786
0.014989624106356663
0.06792204642275232
-0.022913034329575095
-0.04029918285666588
0.01803594070462175
-0.00864393641473899
0.025675724422424464
-0.038401870412803976
-0.011780647321173426
0.02857433755405556
-0.009452135858678547
0.15598934158929098
0.05917388158688661
-0.046204151512606546
0.025401730782654366
-0.052681877883687334
-0.0435626613370689
-0.03675710581893635
0.010336587487800156
-0.014263172868468085
0.0009862637004377636
0.008834317638016986
-0.0019289683271133287
-0.012584962810799238
-0.028431957581583952
-0.019678401678730608
0.01907791319980318
-0.04207870748206794
-0.10290706414350971
0.012210917848903298
-0.003458115423254873
-0.011981378928212081
-0.0053072941120263
-0.012771129590573546
0.07619208299157086
-0.029043110028399183
0.09124884022996928
0.09462497918375692
-0.01584131025403484
-0.008448717763098081
-0.02644417550607694
-0.008156480030884879
-0.017934973248435564
-0.011895091557266273
-0.06422862958982209
-0.05997452858945786
0.11332313242842831
0.12674040633022765
-0.03767099257957113
0.04447700552091204
0.03259224855190125
-0.015110395277572429
-0.020236034483262975
-0.028852074001270094
-0.011228287806501739
0.002829839640557868
0.01613329900998803
0.0048558318361677875
-0.05606737475715434
-0.05554659897341475
-0.008557999935980809
-0.02125819991552339
-0.006937979718628094
0.07723311313246257
-0.07537253615203456
0.02588513446353792
-0.01956805721795322
0.007184439907639517
0.016791678888380252
0.004190152904220748
0.013729877823587788
0.02333680905182982
0.06679761360899403
-0.035162424875005385
-0.012427836777489388
-0.0372430117247111
-0.034356785472629256
-0.013292155204844319
-0.004085463160738814
-0.06656622505107043
-0.026063454630406272
-0.004971029197796376
-0.009318988809733815
0.04072326775085069
0.04664850576579617
0.0333578581232231
-0.010597370720725622
0.03472987923829934
-0.023556525525809453
-0.013133424147317573
0.09084411365817881
0.05321550950633622
-0.0034443790048529752
0.014635578266506985
0.04265000602337619
0.06738800679597369
0.07162105318581498
-0.06210485602464559
0.02659848045341646
0.02997570848606652
0.0034582163748315053
-0.003248063280785723
-0.006721586901492343
-0.002604948363339927
-0.032173310036045205
-0.025150675718071263
-0.01117804571770621
0.045328954326471306
-0.2046651654611892
-0.09518377895029066
0.08183286665362342
-0.03423272832974595
-0.12380481830724031
-0.07815363886504026
0.005837537911404904
-0.04036895607368428
0.10298626291533533
0.01113140537613089
0.008655651206387139
0.037891605878088555
-0.1225715782826117
0.08046520092030593
0.007704513035093622
-0.013021566429742948
0.002349204747221915
0.03099896397145105
0.050899591937778786
-0.009046327733475745
-0.009499294873225546
-0.062274252102717816
-0.020900441376985934
-0.010469463208454793
0.10233098421732896
0.03913944232526682
0.020364114213084174
0.03854781153687219
-0.048632417208208316
0.05844571487168377
-0.005327947680407724
-0.0032424996641952156
-0.018723911819159982
-0.027042601173498403
-0.0015958110354734093
-0.06568697238695115
-0.043426670999477265
0.060448581890609615
0.029793856139246285
0.07391248105330349
0.03975802814202948
-0.025938776469979087
0.04064501192735053
0.11251370805065153
-0.006116035609455747
-0.025846320381517664
-0.04885988411190529
0.018514114655832376
-0.01914403271362109
-0.0277482501433242
-0.0050527963800797515
0.01590800181344618
0.017952601106906003
-0.023809754575991892
-0.01878230712238136
-0.008465330508469227
-0.026750225691228084
0.033267952511914854
0.04224135767512778
0.02411909394200373
0.0020642124350289197
-0.0034879271342671708
0.054080107095941715
-0.028041663586873624
-0.026792400577900482
-0.005827705242991195
-0.008749217167113424
0.011043422167341081
0.00721921210123678
-0.0070837411458019904
-0.15198227045451068
-0.0057057504302455405
0.0016823069166670601
0.03778026218624828
-0.0003527804787737424
-0.0008410877747733837
-0.023490348515201837
-0.047335329435649616
-0.02559396067717948
-0.033169320074905785
0.002200066676271488
0.019058421649826622
0.006670016961247142
-0.013161117323301835
0.008225229736911636
-0.01088685386441305
-0.04868215346983689
-0.051840442498680965
-0.006768888444771245
-0.019450888137506565
0.024450230800449786
0.004598776697450921
0.004315638211012801
0.006771351370788357
0.0353413986014432
0.033626577832009
0.004189009081592499
-0.0013452341582078672
-0.016708651182884157
-0.014413190999831191
-0.010949562329323185
-0.002023053702411943
-0.021922480737781684
-0.026957411646661832
0.008374609613706202
0.05790849936369203
-0.04492434827396355
-0.014912747821913387
-0.041024002237581174
-0.019122204101135257
-0.014772782406632117
0.006963543558581108
0.17194356412626322
0.25950836231848035
0.020677218899113115
-0.009671462858423133
-0.0028522962532175136
-0.029452865114153137
-0.05312876923147301
0.08060448013460497
-0.006916590342129606
-0.021818150118596412
0.031104979012745674
-0.007397697064715346
-0.016516762579127535
-0.01652259750968076
-0.0280300475062987
0.040138533648651616
-0.03253712690503113
-0.0021399198869047156
0.03693392420449112
0.026463317735258694
0.0003760663886292415
0.0009366115576674576
-0.02407688779339489
0.004003480832143623
0.031171148092601433
-0.000997339781394973
0.010982490999709918
-0.04526468125882914
-0.0354383556021748
-0.005272808444265541
0.010721544342532483
-0.01390147771564675
-0.005065244465653954
-0.047417593967669626
-0.03708098018450591
-0.026963517695600764
-0.007175554094877574
0.022715867610441243
-0.0010286347557212003
-0.009126380728306354
0.00284409220540421
-0.006352472992834789
0.00692685871914023
-0.002961752023202976
-0.01597588749908675
-0.001713113827874212
-0.008276906521941536
-0.023909764553865984
-0.02671258993489783
0.03859615824815476
-0.018390758068279126
0.020594672246772326
-0.006443386877156166
0.007829055379135485
-0.000827196182239349
-0.03620385247326419
-0.025852472709976926
-0.03763981141310919
-0.014944449880039063
-0.04872046397689384
0.035375835159991785
0.11461853668516117
0.008788953976083742
-0.030287560604584752
0.0692511931515382
0.016805693847830167
-0.036474513710575154
0.0068353331353250306
-0.012676934365153518
-0.028487767398623992
0.0020602382979974785
-0.019335467504348974
0.009233574166588612
0.021477827814674874
0.01612271562286883
-0.00531955216177133
-0.03595347709660687
-0.021348473262038717
0.040127597689324807
0.05985948084340284
0.010682117174316507
-0.06218136872292354
-0.06603233419791973
0.008854418233342412
0.05757599598351236
0.024608659470820013
-0.036033168719178256
-0.013103122927184083
0.007513890580348879
0.0411694699551671
-0.008599791511808844
0.037899166207545534
0.0032745507812593604
-0.02343728980902832
-0.006934946853402051
-0.015915048120092302
0.03401154570007373
0.02373564245972899
-0.01732312754053051
0.08290335374860743
0.08031254210316477
-0.014742707600131057
0.025734833433641458
-0.017708000970805434
0.03648267479155663
0.028581199012988223
0.010628288003295338
0.014404970218225635
-0.03789172683024565
0.030406439300859265
-0.07568960897520924
-0.15376065445296602
0.045797110416039344
-0.057602792387326504
0.033379497922097504
0.039754514484113136
0.06747784205073783
-0.03585246692175123
0.085633535711015
-0.1471104587149725
-0.10236930535191928
0.09592582326683093
0.005287157213704527
-0.0046291529509601735
-0.0022057482812303554
0.005764530833888055
-0.03038127706996543
-0.0074010140461147865
0.009979396457164303
-0.005330639414837129
-0.030068998320455932
-0.0017914628270371694
0.0040811317816782
-0.0014403604076890612
-0.02485342283203389
-0.026142607521966885
0.0015082804655575438
-0.0928503722135581
-0.03109812218612859
-0.014321744037471142
-0.00790576154464841
0.062498511089046256
0.003907569285611287
-0.005987557775047151
0.009006229987050205
0.015926499812613733
-0.02536745971081696
-0.03408711811475339
0.03318795941507213
0.02894810368048733
0.022182202237564005
0.029419494484466378
0.008356168670006013
-0.011941254261791712
-0.00741251037513256
-0.016058169926916277
0.0110053115909328
0.0011267164190205553
0.07334196759225489
0.040725459814919915
-0.023571058882637393
-0.02065012742067815
-0.01444881274194425
0.04400798173266489
0.06325043859599969
0.04255078672388451
-0.0017378082994179496
0.010580395923084145
0.0236868503093066
0.04152699914253735
-0.08982792488825184
-0.0951668092162174
0.03077624482131465
-0.01117806180405884
-0.011279967867063902
0.003139580773645542
0.02598901045207501
-0.007090718199437373
-0.018894143274288226
-0.03214379498986078
-0.0031442874112009613
0.032082955537235204
-0.0356230834233311
-0.02229280809031205
-0.0056705538656147605
0.0013084982920173493
-0.019916217053208587
-0.014471493127567826
-0.008162293734700227
-0.011414811815360987
0.03516604236980196
0.017318624003613944
0.027112198791428125
0.07636437552050113
0.019542107303588605
0.022582149226468673
0.0070742861988234386
-0.02501308546159918
-0.016947055978740327
-0.029784558576320654
0.004880792522084429
3.646414527752291e-05
-0.0010481495391980271
-0.04505757688456236
-0.027768191647357443
0.01958216708007064
-0.015328695000015602
0.016062197492954608
0.022258376161991292
-0.01990410234381006
0.0004984609825436541
-0.0038878576321947464
-0.024186558269422426
-0.008923308661273945
0.02278420170464036
-0.03518427574393772
0.09246051502120006
0.10954502853052485
-0.07085275522768178
0.018841903222998883
-0.004832655998719383
-0.001744632466491344
0.006405668427323394
-0.00025222346227293053
-0.022941370850159237
0.05757545089862137
-8.280489167107274e-05
0.010620788830767154
0.04427086790599268
0.02085332866818269
-0.05382454808107195
-0.03210939121601922
0.002000847403330082
0.015918860821358613
-0.08117152811667946
-0.09407249960581367
-0.14804137994167538
-0.05923902302754192
0.06988738014590856
0.059232837043136026
0.006680557016572174
-0.021101848187527188
-0.009083823247630955
-0.0027151428312438657
-0.008757072345171134
0.020637561307620976
0.0019684485919100178
0.025773835069999064
0.054526674462554284
-0.03127570777122281
0.049120954000542665
0.02276221040676905
-0.01603174063289041
-0.006536938793788111
0.030721074244380583
0.04184887098081518
0.016652251627367113
-0.015261072020817215
0.015303613825248247
-0.03901885314230392
-0.015374656629361995
0.020962848354849403
0.01592024967631693
-0.020663480802454132
-0.044214415327744734
-0.01388237713095111
0.02206822047528801
0.06799657395801678
-0.007117396528018614
0.0009062012500110748
-0.005896454170110018
0.02918214851041359
0.06793759104319823
-0.008538777868600807
-0.02845171001900648
-0.03413368653503061
0.006070345548674801
-0.014731798018384137
0.019171234559143616
-0.0020459900365926618
0.0007186719014935871
0.012714027400910367
-0.02752719434639592
-0.025631353706099404
-0.034626616721731014
-0.014876222203115063
0.007046633207407522
0.0006371135970993409
-0.040436450190620254
-0.018927368852593628
-0.019800946639497555
-0.004077444521729792
0.01557919974850127
-0.0053021496320657365
-0.005341367931660372
-0.05004434962035148
0.020231108355579654
0.00927718661072821
0.054967116350135806
-0.002201701634130336
0.01762062189614825
-0.001495616181057285
0.05674055232010318
0.11902716977665502
-0.03196269836015322
-0.018326037770060134
-0.012060038287629358
-0.019739488415960463
-0.011409917463862527
0.036991016275075325
-0.009753072932069867
-0.013857606036862804
-0.023247332922878932
0.01731970330220112
-0.0092197424422999
-0.0005258988185530444
-0.02801252565767538
0.03444661393612223
-0.015358442487837179
-0.03313461423378379
-0.006961080498326043
-0.024416256653511867
-0.0032688667396815327
0.045998434143931864
-0.0099977752093389
-0.030550772170539038
-0.01844131690008696
-0.0051884176608844295
-0.03620007834951946
-0.02562078882652748
-0.03581644653727286
-0.002251858116404271
-0.026890137229558977
0.13360833018901433
0.12132786489560952
-0.0015783088414203412
-0.005086422890665467
-3.3191643577212425e-05
-0.12216764237825073
0.0040272587045751575
0.04110185699698403
-0.019280159339020643
0.03119630261999934
-0.013831044638974176
-0.02732792463451558
-0.005851887252289016
0.08559231719009358
0.0036896701196378174
-0.016893635472728263
-0.0357651710948217
-0.05563636312423986
0.0013029386129203265
0.1567065652079409
0.06838919145177202
0.002371683435156391
0.15964235032737684
-0.10568428170563708
-0.032136720381671695
-0.0182559115787069
-0.040776973487198345
-0.009259660850267026
-0.026161495145650044
0.007654910377930775
0.00030982979672131015
0.00511024480251601
0.008301002491671632
-0.0023222397377480088
-0.020254950827406186
-0.04287716384737914
-0.07518735057180147
-0.06646243202071278
-0.07507923005612943
0.0011513107665928905
0.0045701667551351546
-0.009872722177760815
0.002028266918125753
-0.010437069679406127
-0.011890909859530948
0.010644907648545029
0.03258693057228076
0.1412037584480974
0.002064737352844002
-0.05363725680027598
0.01461738020544278
-0.028224063760871963
-0.020166244196386296
0.00642809699267717
0.017297103947849654
0.05544410289880237
0.02488942024960737
-0.062027748443270574
0.1048398147836673
0.09015206589751623
-0.05719563349717156
0.004623431884767524
0.013769745181077831
-0.10977401608915269
-0.05998927346012642
0.01960928143368092
-0.0042222414401096855
0.016546024969885463
0.05965623625810025
-0.005700297779202557
-0.03019317487401151
-0.006101969986726202
0.0028401327803269276
-0.011636723293678129
-0.010586418749480384
0.007069503610533866
-0.006418664425689563
0.000295849824967865
0.029567306770503496
0.02690771677703284
-0.0002712319165923811
0.05616952834239517
0.0426982553332207
-0.004246022419320272
0.014340332063824048
-0.01360036073406718
-0.013983628503510502
-0.004247359192080839
-0.03149143965701202
0.006198808610744675
-0.0056141908689303485
0.009593537673806139
-0.03231775311134293
-0.027173040802405762
0.0074604293744639895
0.0006108039493007738
-0.034495217875432
-0.051590688609787654
0.0011559943075331706
-0.035550856686473266
0.01395108262805137
0.06767483037365725
0.025758972259781614
0.01700391146241562
0.003544612955278947
-0.017349243263073154
0.000836847210324732
0.017389824280843263
0.03101708830815645
0.03757857543580624
0.02327339349000342
-0.014506297852838811
-0.016304369298400144
0.029459765027972772
0.0125539303898183
0.008896246025625389
0.1783085954024226
-0.06586686793514439
0.014794468586251424
-0.1419353694389204
-0.08786589142042037
0.008209157128176716
-0.008941311483822562
-0.04085106888405102
-0.007182478983539421
-0.020660271140205643
0.031137888612598388
-0.06510800320169041
-0.18991558274093562
0.05888423334751634
0.0367654352886465
0.01568005490730202
-0.012007174498427895
-0.010250155200548679
0.00166446733780994
-0.017433828452296903
0.008038818042515425
-0.04715635000143491
0.002765664450098219
0.030123506026621297
-0.019662800590505482
-0.0280409395089182
0.08550108916459635
0.033279781474541956
0.0357561610293973
-0.002289629922266049
0.006294626538250507
-0.00795928109776739
-0.00371862959886473
0.01404715305292346
0.009284910408694804
-0.020061066805857536
-0.0561788725813965
-0.041038407227527135
0.11435645969722019
0.053757051115157266
0.023818025714640638
0.019671175712902274
0.06660785389830878
0.12379384396322217
0.06858600883395054
-0.016364760899598645
0.003241733154752592
0.0052556638117475084
-0.012204994164092224
-0.089413813652012
-0.07117455215109868
-0.014696287787642351
-0.006718299784173956
-0.04368811001533456
0.03037390152441414
0.009705758386055424
-0.05373364659820614
0.023056890998484264
0.03931069187875134
-0.03150538118945224
-0.052278021316565976
-0.0004363592781041506
-0.000917424885664094
-0.001878971092162294
0.041102950634189395
0.07107284018656768
0.0056056518705847914
-0.006696720177698484
-0.035108241050521086
-0.008568808145265934
-0.029304726030959995
0.015482614032189502
-0.12283533728750096
-0.009657952934691221
0.013088483736584665
0.02089873589892723
0.045994762180721585
0.004903258303007445
-0.040688800209707235
0.01629416551358988
-0.08069358697110278
-0.021606262240702116
-0.0033452105834198506
0.016396414415981865
0.005635754965352246
3.3355948993257344e-05
0.024955348501543163
-0.00970727951747736
-0.011804283570564325
0.018200419256169383
0.016131195701142374
0.011513556227417558
0.05553724612853971
-0.011489854131626547
-0.03680468684032222
-0.008597387175761195
0.008922864282252713
0.008880152636109813
-0.03079249057300824
-0.010032111413469448
-0.005342900793155392
-0.025303693072335317
-0.019465427441384905
-0.004603461603946162
-0.01676191856068396
-0.016822939945020578
-0.04589891686801869
0.007702361600215063
0.025904365435192808
0.053328079701951234
0.021063311989799372
0.06658492110834821
0.1084302499357599
0.030340002567873343
4.553839377175369e-05
-0.0021451966041448212
0.003975032495425568
0.0433771286268754
0.0020528993020290124
-0.02358863562100308
-0.006971333346312215
0.031074572507206202
0.0033217809928462196
-0.01528060623531367
-0.0011912195072634466
-0.004638318514254082
0.002643645251539065
-0.006000843167723691
0.018702026809232924
-0.013407908974202678
-0.03731084969777847
-0.21255995219070425
-0.11184292987335831
0.08000019351072392
0.03317633079683663
0.052152669074594586
0.016894572970369913
0.04118362803401642
0.013897939744922901
0.04647232428920007
0.03683449309157257
-0.015176055728632168
-0.09931023401162847
-0.027058050420126135
-0.01908314922646205
0.0165947115910154
0.018824962863149417
0.03833232649701441
0.01049811720866778
0.017350188779208364
0.012304887289549806
0.011991254137973476
-0.004075806674612241
0.029885099278560506
0.010353432839138699
0.012526476436132533
-0.01692419748391308
-0.024570889765517512
0.026516172371581846
-0.011268196477713155
0.006301030181559808
-0.12475306075952096
-0.03964651953774461
0.0030086893703785054
-0.02092102675992381
0.010537695380278336
-0.0022832194696132324
0.03700630977464091
-0.01447915079011959
0.03418211175194927
0.03930528785308686
-0.006831016560261571
0.018491171876539682
0.043431975959802756
-0.015169420574174298
0.05124581300403783
0.03431697293588771
-0.001975870876356067
0.0004755215306123195
0.026004470785327524
0.01184613070177395
-0.001149419527592522
-0.02595031654509365
0.015663877085519275
-0.0635827523062978
-0.008160742335314584
-0.154024365643448
-0.13733026832134482
0.05294174156408157
-0.019035127386025842
0.04301172747152312
0.008695507584728536
0.02561386443900643
-0.008677563300858724
-0.1438149038361214
-0.023180277847673042
0.05782919886003964
-0.008771860457121222
0.030698965567737678
0.01728807508748003
0.00993125382849506
-0.024569315252380663
0.14014778090978833
0.032227419017738304
0.00405511396593662
0.021643229422534698
0.03718085255265643
-0.03205120378973156
-0.0447515436565504
-0.005553365220914364
0.07768164170505751
0.0019270395412136286
-0.002548271484600818
0.03479265509190166
-0.021903620547551267
-0.009526350481450105
0.006999535571810075
-0.019688101478467883
-0.025425975591227636
-0.0003753853923265619
0.02772618013750685
0.036751723670376955
0.05184824780394902
-0.19441716772379092
-0.1055311538593276
0.06101770533895474
0.035351931509922566
0.04127754137665683
0.0075727945917654785
0.02432180509182435
-0.05455038827062813
0.02585186389659634
0.013272494998532431
0.0025634503479928343
-0.009443927165710455
-0.05238548799486389
0.046227206895251616
0.047636778726020165
-0.0004073452210758962
-0.0286633286543306
-0.029725744295672624
0.00983004198486476
0.010757707556589745
0.008725778266660857
-0.007017116070192334
0.06336957361958255
0.010698334403373269
-0.005610960590706368
0.01471739781080099
0.01708783626688502
0.014925711939114676
-0.01979878322729411
-0.03362113352501979
-0.04466255859069204
-0.02063679208740821
-0.02798589060130917
0.011913250117816595
-0.06148567323715485
0.044993872599055657
0.15219122691933157
0.011252489840719844
0.027860465053011936
0.016330200776519956
-0.029193502977792822
-0.010090805901120924
0.02249972175593992
0.027260218018894194
-0.05482039602322366
-0.00024466617576347365
0.025148613620435082
-0.015403341041765564
-0.017901874643995595
-0.09942935483624818
-0.035133302840936735
0.02338834722607371
0.018809301466079512
0.008862452962631617
-0.03548047463492553
-0.10912429502390578
0.00251340836879956
-0.02134517280931322
-0.03978683174376626
-0.012753779942096255
-0.018100689881939077
0.03649645158599077
0.014913574950430223
0.0026752909636896653
0.007557927207418893
0.05246337946946316
0.02650221343124378
0.013078786795329422
-0.004765342520212455
0.03588155012709453
0.05605082001105284
-0.0005256531871506879
-0.010103123240017567
0.027248092247806905
0.05303209680873092
0.008085177224674242
0.0180960884978552
0.01274895226592968
0.05769424810459533
-0.001345978093909427
-0.0010745706694560752
-0.024301548183278263
-0.013707609133221185
-0.00214419312174106
-0.027289831656063163
-0.04023940620791413
-0.041684558704445915
0.023708254579785277
0.014927010566352029
0.010712813426988491
0.003990855380284256
0.017884337299137514
0.017312136804099237
0.026721679234385343
-0.08397311563736255
-0.09919694849244967
-0.020723634825669607
-0.04386685602936774
-0.0008356951772973012
0.02079763704982129
-0.014209857799444819
-0.026715220374558268
-0.04763065511825102
-0.02297776073464727
-0.04407611177238404
0.024444264887561892
0.00790578742732225
-0.015098704721969078
0.05400419693235378
-0.013693648850284389
0.024377939397983352
-0.04867134436070906
-0.04925540870820333
0.036601825991319434
0.0003670743062979525
0.05565113983731225
0.007274603845758358
-0.004039717061927667
0.04855470278693368
0.024803315349245424
-0.004261908407959976
0.018463511033517826
-0.004837979697503218
-0.0257970316821275
-0.035333358644581446
-0.0028011417397042176
-0.04231632291486279
0.046383049361737795
0.2222604475562721
0.004548420643978607
-0.0018397131928822672
-0.010410405527654144
0.030119453954553933
0.01760594387607381
0.010606295473580968
-0.01389871828780083
0.07373248926682913
0.07573159367959434
-0.01495777840751805
0.02417968004974733
-0.0014552719785362114
-0.03034275794958016
0.027944169117703463
-0.026248235809518215
-0.1816455088915358
-0.018041433351734856
0.08719389019956526
0.0034868971902190875
-0.015128610554159662
-0.051545927374149904
0.0634099079817479
0.009632179993757914
-0.04041280769277141
-0.006242059591919655
-0.03539273116188857
-0.030280653536201477
0.07701397063207217
0.0006439124542839027
0.006023061066990716
-0.0031798225024001698
0.060038606050007
-0.02247811015658009
-0.08755815009887627
0.026366274049998622
-0.06510175022102088
-0.04511692406225033
-0.06712567024414968
-0.11536713203811269
-0.00699180172512902
0.030271238937881004
0.07569677632234775
0.01574321391166616
-0.004633717781434528
0.0635623556118376
0.023279000450352094
-0.04243727955194977
0.025424963904143245
0.02523773518798976
0.07524499947114223
-0.09939577894307627
-0.09873665252328144
0.014303304120594645
-0.005892170598517182
-0.052412475398289776
-0.021856575166607755
0.018099769412050323
0.03695031691111088
0.047495306696474775
-0.013177362133317796
0.0017124765882842955
-0.0342148278207086
-0.1262762192272085
0.026025344266733485
0.049638070304513476
0.013778548411440132
-0.029576673339602927
0.005638754932636514
0.023004686647129163
-0.010782239192229951
-0.026036465304454623
0.006622758175679545
0.09211912977359361
0.0006655899487054504
0.017069752048042248
0.009820842420164847
0.03823627277754951
-0.010927535611093714
0.014697138740966247
0.03944515199736995
-0.0449464801913989
0.06744129851859214
0.017499029469560442
-0.027359000635270633
0.011843779313592444
0.017580928794434503
-0.004122382351265512
0.009689198738545535
-0.028646854364578492
0.06131207602390783
0.0013286337261186768
-0.001736434703881507
0.013686765002219822
0.005306321867022598
-0.038615267984159096
-0.0395249885124244
0.015293166192579134
-0.030365463174602765
0.016954243891458436
0.017779649564729726
0.007915635318146095
0.025586158636176432
-0.05508791045954326
0.03254247403823414
0.018891267417234993
0.018292718600232485
0.004407112479109358
-0.0028316386844183185
-0.0172655472780936
-0.011668211870449604
-0.01921375454836147
-0.0017329576030707286
0.024486813560427388
-0.017133929631791424
-0.028834930846820712
0.015520492437629388
0.05293283171960341
0.01934785838427186
0.028881279560874697
0.007553413411199617
-0.011166787678386346
-0.05109685065500936
-0.03927222610226032
0.026832177311179192
0.018076283392963684
-0.016377963227987714
-0.009007181311666427
-0.030835697035377196
-0.00864068276348772
-0.07402909035521797
-0.13439636303169733
0.06010848890735788
-0.018026579195030576
-0.010810518073718437
-0.023066857144590072
0.036587176373280024
0.03990492847062737
-0.014882346139529398
-0.007415765782627127
0.01643665668049808
0.015001783975421346
0.006708988803919086
-0.031716062999187666
-0.0040010716512333165
-0.025162447324942418
0.008275376066534714
-0.05309350039098922
0.0012321452088440061
-0.02299849137446578
-0.01684755669845184
0.1063237457246432
0.03131315333277167
-0.04132619132447378
0.007788137191858252
-0.038904514080142824
0.008787363268058556
-0.004728081784956615
-0.020888719713490874
0.020838506369528113
0.12549288678944714
0.03626283852000679
0.04130640520912486
-0.0037469783584568104
0.004926449544585115
0.03045523774328698
0.009588281717881366
-0.03753285414658277
0.010959038034487662
-0.003258802338485905
-0.014036955583027923
-0.017293750686910424
0.020679674424389994
-8.209987661746937e-05
-0.028426247126155234
-0.031105242916694923
0.005873735407588058
-0.014299294293332133
-0.038366996341041425
0.016334542205444263
0.02617901980872136
0.07816141072485124
0.014912846470932191
0.031901500688463154
-0.0058210292705337605
-0.024363439194209902
0.12166061920906741
0.04172376512829041
-0.00270454944745275
-0.033867521750478004
0.03138302448664551
0.029493875066550962
-0.01263795816561281
-0.018257552717007432
-0.09335360703706735
-0.033830102324279784
-0.02096211566216323
-0.023747541840017896
0.0035734550645603737
0.0479546927846048
-0.031210376793728022
-0.037756358959762024
0.05709465905737439
-0.015448297008754431
-0.0651207436648541
-0.0489138498579048
-0.05208930039472968
0.012901466858361105
0.06574232761319145
0.00339564997023995
0.0294805504953931
-0.02505180314890505
-0.0021197923838655653
-0.07472694586088809
-0.06500094130362474
0.0354124881612151
-0.016387493496218555
0.002316158572724472
-0.023687272855401825
-0.014565977090601718
0.009572291484559209
-0.004011333274277658
-0.1388806194071829
0.002843650895362666
0.11781710093624381
0.05639282162565577
-0.045366160548825044
0.04893148743528721
0.00024183170708899624
-0.019073151844984856
0.02579038917118276
0.02929900232887609
0.02885784953290685
0.01942688439385306
0.01307633359093416
0.010460310113250193
-0.015179875608675581
0.013783182066321016
-0.011682762738751748
-0.018134679560015233
-0.1020762077042177
0.0223866515554183
0.012639501734045776
-0.055117661729627905
-0.01893126194511986
-0.00577275890712597
-0.030988336653833274
0.12325305315376582
0.17324841991014314
-0.041483070913112034
0.018076086031613398
-0.013972259875334864
0.03035498117931348
0.04082536327427994
-0.017538284348905385
-0.03893123641480011
-0.053491014322343135
-0.0026850924293115425
-0.00278605644029551
-0.02559843947062855
-0.024588828457032384
-0.04625833466359411
0.02796895216686956
0.027353044994534604
-0.020503537847945463
0.15201515354690276
0.005887735616181232
-0.016670463719837457
0.01982670035025867
0.0027198095425807244
-0.037685792270560646
-0.020677606074364616
-0.042444147887273194
-0.07449022498116141
0.013838851792945866
-0.005948241595172635
-0.0037359747780536983
0.006099557155998091
0.06302653695417122
-0.015369205696580537
-0.014668216262829986
0.007672542809791499
0.030321425566489164
-0.008854824381183478
0.022833849703430206
-0.005703620886449942
-0.0006128545415183402
-0.007935287592728898
-0.04448879586524222
-0.04438234797213644
-0.002142707663212333
0.04117236683777135
0.02155180571164884
-0.02326138336642734
0.014616312018027286
-0.014331463259273019
0.023991051185869392
0.020589144709840475
-0.002185478888659834
0.02129454432746792
0.01880831502454927
0.02345457694051672
0.017871383562971885
-0.06238789720126689
-0.03896178759209276
0.0416144523700525
0.004420760030604325
-0.012987717365431124
-0.007156272879149333
0.0030048286602907853
0.05087664572429438
0.08133840735867771
-0.06930203210821784
-0.02521638099048485
0.01661732753882422
-0.023551957808461515
0.004999547742166294
-0.11655801324657981
-0.04750407984938672
-0.004919426640240224
-0.05634035139988865
-0.04540860300721501
0.010770312070114042
-0.0536040145168864
0.05005637237863562
-0.025390724835633736
0.027035102394843982
0.18543081870533015
-0.034221421981010136
-0.04263991992039633
0.028924827714011676
-0.0035789416717249972
0.021781407813069174
0.03287617991843374
-0.017618302112581204
0.04638000205136118
-0.06597457594824627
-0.019521018969616354
-0.027471057097171712
0.016320406172729163
-0.01430711864316569
-0.022090688069464105
0.003701449184069864
0.048700072737336404
0.04795416214855719
0.024959245197643424
0.011432512682811391
-0.03731924029962172
-0.050372342174374
0.043748764405090124
0.02891030329305801
0.07356682061100804
-0.0104148869353729
-0.0017319728831278688
-0.025498686041796313
0.025600906768174357
0.00013197177304002236
0.028383658286298432
0.027231337082894148
0.010589482531433535
0.02597363711434689
0.012888311666784074
0.022970245376480583
0.008078161321549607
-0.07236043257147065
0.018234544967843998
0.03305000519556154
-0.036818662820578274
-0.01776177891418844
-0.00806046960497921
-0.019129773355146717
-0.024867531681964407
-0.012682626135156765
-0.014992716133354083
-0.050432006170064374
-0.020447832288064703
0.01104846824659804
0.005973227377209328
0.0015671143686533289
-0.014513664549642182
-0.06296125081675699
-0.02475638501083615
-0.00031242343197973496
0.02257056389064328
0.02990002338938297
-0.006994071941927362
-0.023321676527504127
0.005326388965752075
0.013068164213916962
-0.0007526978506036647
-0.016834543542454734
-0.0036927995091126605
0.030665686487786184
-0.0018641400068077636
0.03371079524769328
0.004843467144162844
0.05458221425976953
0.0267006197599521
0.02006404456810766
0.00044995448859699936
0.017874470082444294
0.030778429689600338
-0.007521496460874231
-0.003573703703080368
-0.04659346411846836
-0.023399097796252415
-0.045973541591674785
-0.036554990145842216
