0
0.011424397066624119
-0.06044524365218516
0.005355407142468587
0.012172630936335357
0.0048122111780317224
-0.02907258734786338
-0.057349075559783344
0.012064741077754326
-0.004797948418719923
-0.02272431433196081
-0.009442065746555378
0.030377608888292443
0.018701475736723195
0.08775432122729916
0.011527165148903383
-0.00037255715556925174
0.004193767855145211
0.053708051040225385
-0.019115901034855668
0.018677755823327945
-0.0041622890207300665
0.012562897461006793
0.05318177425377631
-0.004534350899720685
-0.0300469854105931
0.010935626597087923
0.010652519463418572
0.0010581751819590478
0.02393337856384993
-0.05436306815600435
-0.0378496056255801
0.003731803245802996
0.017921412644891357
0.016873874777177125
-0.023851340489350316
-0.03333539733197343
0.022834709863179564
-0.021644497735556708
-0.0023938056353987277
0.009495327806922953
-0.018585905082629472
-0.04761797813032344
-0.008232388394884082
-0.011955293223417006
-0.014259214619290519
-0.02076940976120078
0.04874481324653689
0.11906674793639853
-0.04914094875436669
-0.03667632155123856
0.045440855198195323
0.0288251772528446
-0.019348728970528025
0.004864747518091665
0.016318049516857707
0.03846565294530035
0.0033865710932617613
-0.015325398525334294
-0.033456890682533894
-0.005708720260396819
0.02442370303240387
-0.04274550017636537
-0.0011710391937182578
0.03556459303466962
0.05715343899415141
0.016072935299889315
-0.02736753052405137
-0.03270251169169166
-0.022309816783696527
-0.04565010542820288
0.014493880480309869
-0.0017325999942538058
-0.009958656935189061
-0.02124368680872119
0.02200953726615077
0.0849903599371321
-0.05208494355460058
0.019279942599066797
-0.022186860059968793
-0.0365001869934058
-0.179216057474967
-0.007150112032381867
0.06666280159743922
0.0002891342464783365
0.03672922051836509
-0.026967139987580793
-0.015222769208291208
-0.01130475744516524
0.026306408820842255
-0.0038717264307314074
-0.016937905648713666
0.0014801357287977403
0.03852186953404859
0.01813093393376984
0.031835805459155
-0.016374885190647972
0.039811497352747686
-0.05354855336018297
0.08137508625493474
0.08936825743726608
-0.04371113973341859
-0.03461089689658107
0.016131861167395508
-0.0230833609016521
0.08928558839106822
0.028909806612785294
0.027376950914800233
-0.005853392943058136
0.012938640472212706
-0.10354407785083185
-0.1500749292202744
0.020813259612145696
-0.007403084351453331
0.028243576439427938
0.0038172249945808857
0.05464025429635279
0.0005265607367562366
-0.0073964874059953304
-0.02305596951097659
-0.021955542008562905
0.03748387847289783
0.03712698001923546
-0.005551763673633333
0.02318445794024002
0.07775698384749616
0.022418286729642318
0.02225781267820635
0.10733441193137155
-0.09197081357700244
-0.041738104378155234
0.0006340648644558258
-0.025735686344876326
-0.014274314515469958
-0.031281318558353303
-0.019844581384340868
-0.0030659902115598003
-0.025651299258585045
-0.011431653146841326
-0.009786864377501524
-0.02275607107028403
-0.028960081899542432
-0.024046530856834905
-0.006171480540484285
-0.008837603707527196
-0.020515283756676002
-0.00853843289645676
0.06689944962761772
0.0012133523007522545
-0.019928106364895785
0.016392956588446864
-0.03784825763218527
-0.029766422842728468
-0.023215448798180358
0.025016894222168403
0.0030857021277027183
-0.018998407515920742
0.025781348747511774
0.018939800459538792
0.006086830014435066
-0.02653093337086554
-0.04107706905201971
0.02088710053326404
-0.0006150862985032622
-0.017959115757760432
0.0360972222185006
0.0030718772021120088
-0.03634263930788675
0.04479935095644562
0.02634250547330156
0.05606044519310571
-0.006795761532990679
0.002055340762662746
0.027325186945884393
0.01940171470023956
0.0005639456308040139
0.01367340697795721
-0.015152076439371819
0.007511518304894131
-0.05628305694021752
-0.008419146972630884
-0.0382629687492364
-0.0013209309521310432
0.14940770693967842
0.016259763193452636
-0.006121798712869418
0.008837154619436766
-0.012410849722517398
0.032648901933682
0.009841013387658422
0.01876142612633317
0.0071364189117162245
0.061037242848162754
-0.019471207612103004
0.04108778609300623
0.010634179217415836
0.022004104563851563
-0.021379282115313373
0.007682779873857464
-0.027515307171224985
0.011204237554073328
-0.13692889937747585
-0.10560876102865495
0.011319528544263439
-0.016983550061441113
0.00900834799698522
-0.07177429800764046
-0.007278643204801817
-0.0007212512297101361
0.005686607354987672
-0.009585363185061112
-0.00036226647210597994
-0.008287949261031833
-0.01423610668116301
-0.0051780955337598295
0.03390051424664468
0.047865498013338406
-0.021264297186669008
0.03327780122733489
-0.014868301235954421
-0.012910963619394868
-0.023093151293664294
-0.0037622472081981608
-0.04022382910642873
-0.034515986546361475
0.012464983417961872
0.07129255327108518
0.011284323890585287
-0.014887549017392894
-0.01762040481886204
0.08152919379236415
0.04377083463296735
0.015936655151918843
0.0834505677225208
0.002201387040375182
-0.02416632097013871
-0.010227247565633759
-0.03654333670307839
-0.014629665857813645
-0.02749931888478909
-0.0017656206288225208
0.03098192585085669
-0.0037084614498416007
-0.07986902770378819
-0.021979712454946506
0.028440800617773723
0.0005436438426128921
-0.015007565023459627
-0.009396970209245823
0.011371003630762462
0.015392318164117215
-0.008848370429636062
0.014502623971093283
0.0121846400324268
-0.011053110599323413
-0.002265214512194905
0.004939708517228478
-0.022396913619366673
-0.0376312108730843
-0.021356674017750463
-0.056823913755506106
0.002715607561617987
-0.013230812619639432
-0.0011522488799455544
-0.00121637758300634
-0.002994015591947589
0.06067863697605789
0.10366294891311927
-0.02651658065649963
-0.020932592853287815
0.03857560599745835
0.034898408131816834
-0.017082867255550627
-0.02322444868953057
-0.04237098359970868
-0.02970514360521502
0.034283866328540566
0.044024644090518324
-0.04057750970970537
-0.01781915174122541
-0.03456911898204792
0.011851853111544913
0.05136924348145341
0.059526933035230024
-0.00233260007639851
0.11294052484722865
0.07920805258462803
0.03900687763028427
0.05205515318898965
0.09220123073726083
-0.14786329250744978
-0.09311218891753552
0.01316268636484951
-0.03949435666071202
0.002136198105002115
-0.053468137646858455
0.014108817017180659
0.021717286970002685
-0.01749577092250026
-0.05440649965018979
-0.05984706771326187
-0.031787944722769544
0.01574695939037835
-0.014001603502176548
0.0015563358317684634
0.002847217520562479
0.00171010460953788
0.06339220663074023
0.027020402631678736
0.018287258618355094
-0.03288177811886918
0.0030391620909255403
0.001521252036194759
-0.01798618928837929
-0.01202992381895453
0.02796951408657013
0.005301264189901161
-0.0300820035829111
-0.02544752719678868
-0.009038178150041433
-0.0074637323370612485
0.005139300751519087
0.00429559743796814
-0.0008839755617351172
-0.012480162565891906
-0.031631177146344024
-0.0014417635190840383
0.003169005027545218
0.01327132905195775
-0.0006505351041774266
-0.0033634848194776033
0.018507751048212492
0.016175400925135613
0.012257136791369387
-0.012305839199664867
0.016078510528576374
-0.0012431749537873634
0.035250000347496244
0.0068785488239863
-0.02945201009690507
0.04204375591148133
0.01879086327849448
-0.028628097928079094
-0.012595626523862981
-0.017836040717097587
-0.011610928724788807
-0.013512005397671539
-0.17250434937909803
-0.0861913797368028
0.012016969587711531
-0.012522413701341748
0.02401635274843125
0.04577298932383911
-0.02872038496034794
-0.011142503670746668
0.030971741918533482
0.036226575202661926
-0.013455197829177935
0.010959491566353086
-0.036123491464626074
0.14609026565331848
0.04145646522958602
-0.018775603919745563
0.01472294901629084
0.025504493622746992
0.1184645702219399
0.028281183710361535
0.014987667312916744
-0.022413234354297866
0.01021482196310374
-0.03687701548577144
-0.005427268742835809
-0.03642868585409831
-0.015464512609143223
0.03904534487419695
-0.02756928632721302
-0.038077805618400025
-0.00602186115397488
0.03053780876790671
0.003803435743818258
0.009966493184635475
0.043679966508884886
-0.022336687536732028
0.014518680919804312
-0.09023033456990825
-0.014224337608488838
0.0314189387594285
0.05379829016897371
0.03134675924625626
0.012913770932097423
0.14207273748048402
0.0031999994421366617
-0.035948769093018834
-0.07225974493851356
-0.003779622191098247
0.05066577520564614
0.02326098366327318
-0.028521555001455957
0.012216635852530683
-0.017902027302082433
0.03324172494635756
-0.08964687609865203
-0.09595372896417116
0.034149930710251124
-0.006185504442056291
0.020382156302830266
-0.05103707383635344
-0.006833298002834944
0.03256329831681732
-0.0012801324901389416
0.006312813058860938
-0.0007378705435565566
0.009222163627517264
-0.030644311460031073
-0.018542804562872068
0.03963983309700682
-0.011549637960732972
-0.033391695613692526
-0.030622763897905303
0.04759420353601416
-0.11271126306460416
-0.15514152882534663
0.05569569208423451
-0.010243609729635327
0.03032967022932886
-0.0007217353997918698
0.0366358264205787
0.03070457846345145
0.022555670000399083
-0.08035814799338585
-0.03814637155293461
0.007605532259420169
0.016188739154117317
-0.027086120224213486
0.008726266997856365
-0.007899082496516127
-0.010259504478642465
0.0943659461797585
0.010777133866001718
-0.025678999880560292
-0.011207230183028351
0.008443665690915824
-0.05632034949691215
-0.027275852711222143
0.030485714281712845
0.07213585081626252
0.016412358233860468
-0.0214679227933868
0.03226617103079443
-0.03891357044944116
0.07131628253486492
0.04873357503404988
-0.021748304758558046
-0.01793999984572795
0.009386265166283665
0.020281364255188495
0.02801037810383637
0.0006013801610278409
-0.03932241470108312
-0.04105679429275597
-0.04136495600605726
0.08612741932941792
0.10975287440241906
-0.029754780714541323
0.0027617911497346075
0.028225212953708247
0.014283329250626031
-0.0234955903745166
-0.012132136516178513
0.020808809026714444
0.011439492903774615
0.033538289795368104
-0.005019608061123675
-0.1584793502094024
-0.00805140054088693
-0.019508331286805868
-0.006132291726039408
-0.022885721991331223
0.05868674741785535
0.0013953806878980184
0.00622763135394191
-0.011511998658108846
0.02154443210195645
-0.027099713147244086
0.009337607863512681
-0.004704574941005322
0.013386181801881886
-0.012529483160961294
0.05521367743696839
0.016220762940420425
0.00801661489028889
-0.018846756963417605
0.012255847831614089
0.04631957818105538
0.006077087329955929
-0.009034845299057811
-0.005241729119176221
-0.011728480041575179
0.01123613830381746
-0.04340765620977213
0.04919547384663965
-0.08504354353663861
-0.027025615500531227
0.03059751825672808
0.011957621311716139
0.02768452231178227
0.01634981851358928
-0.010559619955080469
-0.04546139479705014
-0.009217657097200729
0.026423220449183566
-0.03320059783539675
-0.018870969019543615
-0.01417322373523541
0.01833273081543893
0.020532371436512088
-0.019359811352051157
-0.04136917594675802
0.08180541936101887
-0.023455441342518684
-0.057620023524635244
-0.016473202872829062
0.05873077990034983
0.12039129291684454
0.0007260641588372937
-0.008174570930994916
0.02270698375341183
-0.1208438128684613
-0.07289961110225694
0.05770476289202202
-0.05705722339417509
0.0015866723479171104
-0.017516049946955606
-0.025320666296565413
-0.010271649469010826
-0.010670831994861532
-0.022507771461805458
-0.019088103746598185
-0.003641812523563941
-0.013812117404825661
0.03151545710723548
0.017857931923062485
-0.02346131166292476
-0.05290195083227827
0.08807787893441221
0.10423413747448686
-0.025146611187302357
0.008442092870627454
-0.0029049398228975887
-0.005166147306583766
0.05202125930555196
0.13367501481010946
-0.013047125497941604
-0.02275461221400416
0.017952311044967736
0.027536857051534087
-0.008308225350888163
0.024620298717481556
0.0006628317064712386
0.02868981791334952
-0.0071388054475805054
0.09386953617936517
0.07989017825106046
-0.010448486041102264
0.005480420323580551
0.036801702872038926
-0.055246833326120674
-0.201550701302866
-0.006299308218476391
0.004224452129039145
0.015095819201582743
-0.17275065535489234
-0.020975569357261765
0.04150611824862873
-0.032699735442959
0.02449492370604079
0.010509980622024684
-0.013794832238672396
-0.09313705240425336
-0.07634563746104786
-0.022969082007037775
0.03677939213178967
0.036659856587988655
0.009014194467342387
-0.009161881721825747
-0.012548775547949217
0.0070374323772391814
-0.0215163711938674
-0.025091391955803788
-0.008724151005745974
-0.0028989736808057304
-0.04095693307896111
0.05433686504572295
0.007572866984420174
0.038882403195700514
0.039962078397023065
0.03638073617667962
-0.024373135996972235
0.0017061449145316311
-0.013401265747766773
-0.011401207924046607
-0.02778268637373699
0.01824233571031066
0.0865120665209096
-0.001882625118949147
0.0035436495126288338
-0.013208728321781866
-0.015802422544271885
-0.011467701506116965
0.014031855836390623
-0.002953896434753958
0.06769913675007598
-0.010437646600059962
-0.0005082524381893391
-0.025933980969506495
0.03927090129691941
0.025238378221308616
0.03245041525660674
0.024143061907734693
0.014870854063724686
0.006741524444546715
0.09374715242852358
0.03630759510412167
-0.026813491420691823
-0.07498231199995249
-0.06337858896379972
-0.009230355326015476
-0.040479400923660834
-0.03360532400140735
0.0002535989341695546
-0.0016158471432788288
-0.002995395805013688
0.014619106604985775
0.022511721143921568
-0.001381046091471079
-0.005951076297892917
-0.01938721357089648
-0.09303768005761678
-0.00640383554163196
0.05894816102684339
0.06915479439818
0.02178273475327752
0.017653010978963234
-0.0380060927333014
-0.008015909543606833
-0.007867530522685382
0.04049991894343113
-0.016757058359795362
-0.008611238418938624
-0.015495717827653086
-0.010512263471310367
-0.030041147537339278
0.01419042274418663
-0.019838473741677475
-0.02013652960395261
-0.011068127144796425
0.012550782208357104
0.04445384680488927
0.05080343560287909
-0.010982933967025748
0.02104332132764722
-0.012475385115536064
0.004510409132704297
0.007757271212006638
-0.005980997577399525
-0.024268802570386577
-0.01109646017928164
0.013760248831191563
-0.021469014522735978
-0.03663188429943672
0.023515076227242016
0.06367485215952523
0.0074653821997801165
0.03340824396145019
0.03873433955648871
0.015241450403242238
-0.002052161063103431
-0.0502448917377588
-0.021936742125813414
0.08299134788685723
0.035455197491262296
-0.01642157218063289
0.026328842155557478
0.032638198171925974
-0.033253268091116214
-0.11646734904483755
-0.005215069383760414
-0.05811592483460676
0.015314794434711584
-0.02225339897203189
0.05225146090256855
-0.049852189171862515
0.02905501321888147
-0.053876539256213066
-0.1695357538901932
-0.12189206085166268
-0.01816948924315014
0.01939544194115677
0.16424741197828824
0.06449416642723207
-0.03648519996002414
0.008058863702387876
-0.013220916647655777
-0.014886232062428227
-0.011550240554605849
-0.021772618602714403
0.009685339358212168
0.083876334739373
0.04205447256622384
0.01513356976611476
0.008770160297979628
0.02319781071575732
0.0014394674405473998
0.0007300510869186082
-0.024139093129104432
0.03941272778063905
-0.048227629876463805
-0.021307614974719405
0.0845992886926579
-0.06347744661332037
-0.04998628313433149
-0.031182365299446523
0.00950177927784695
0.008322722132067388
0.03401139251674835
-0.009640876320598814
0.009819264228838344
0.008359459956571866
0.005524852609470187
-0.01657121057447191
-0.028010855202038616
-0.010074072189266403
-0.005468731980697477
0.024728985233574235
0.012385277649591575
-0.00887375778517995
0.032249080696945404
0.045013633077094405
0.01008747316187654
0.022048385269769544
0.0058830871706742945
-0.01879173964631876
0.015019274050602771
0.031067603606783914
0.0037783330919535273
0.010021423216864158
-0.006597878198012039
-0.022580631227981485
0.04147814893370942
-0.007783699797573816
-0.026809560219333763
-0.00576735265083837
-0.028775544951000587
-0.008522778714768168
0.01347473010557411
0.02104074991124164
-0.029589971760708197
-0.0188270133453635
0.005787598268613417
-0.08805944940499154
-0.06461377945560781
0.020708414389692165
0.01239924089380796
0.010619351179504119
-0.056489813956047186
0.01098549706306146
0.006792099920110475
-0.004062060642981173
0.0675153494005103
0.03507066737020594
-0.026155485247972236
0.017616099895983717
0.014203783848664235
-0.029318380370259044
-0.025922461544629977
-0.013785138962567875
0.02767415434866778
-0.040870597207322196
0.049056661197527766
0.01851515178057333
-0.0033955075212133284
0.058893927748033065
0.0166014419206127
0.05263089136177097
0.03453340740242652
-0.061845025569485436
-0.021028846817414088
-0.0008596705714026381
0.053059013730777274
0.021780167606778762
-0.05436412099229721
-0.017163498080867475
-0.006082549147324799
-0.012631327825726171
-0.01434445338155126
-0.02518722527527447
0.0010312602695042217
-0.0030469199961616496
-0.010106043948867594
-0.0050900857260041425
-0.02767900509373011
0.00946247634809281
0.025085102329800876
-0.003660769393084735
0.018561850666672763
0.01774701706703438
0.00817727963198699
-0.012042148777562954
0.003978111178340038
0.026602214337559778
0.013186395928793665
-0.018745179128532137
-0.011924624141652313
0.009772872488143777
0.01775028396978146
0.058988711867491044
-0.034639475543203825
-0.0506097451260443
-0.009100773559555585
-0.05522544058089616
-0.0364312777198463
0.06036788048762431
-0.040157049093714786
0.014989624106356663
0.06792204642275232
-0.022913034329575095
-0.04029918285666588
0.01803594070462175
-0.00864393641473899
0.025675724422424464
-0.038401870412803976
-0.011780647321173426
0.02857433755405556
-0.009452135858678547
0.15598934158929098
0.05917388158688661
-0.046204151512606546
0.025401730782654366
-0.052681877883687334
-0.0435626613370689
-0.03675710581893635
0.010336587487800156
-0.014263172868468085
0.0009862637004377636
0.008834317638016986
-0.0019289683271133287
-0.012584962810799238
-0.028431957581583952
-0.019678401678730608
0.01907791319980318
-0.04207870748206794
-0.10290706414350971
0.012210917848903298
-0.003458115423254873
-0.011981378928212081
-0.0053072941120263
-0.012771129590573546
0.07619208299157086
-0.029043110028399183
0.09124884022996928
0.09462497918375692
-0.01584131025403484
-0.008448717763098081
-0.02644417550607694
-0.008156480030884879
-0.017934973248435564
-0.011895091557266273
-0.06422862958982209
-0.05997452858945786
0.11332313242842831
0.12674040633022765
-0.03767099257957113
0.04447700552091204
0.03259224855190125
-0.015110395277572429
-0.020236034483262975
-0.028852074001270094
-0.011228287806501739
0.002829839640557868
0.01613329900998803
0.0048558318361677875
-0.05606737475715434
-0.05554659897341475
-0.008557999935980809
-0.02125819991552339
-0.006937979718628094
0.07723311313246257
-0.07537253615203456
0.02588513446353792
-0.01956805721795322
0.007184439907639517
0.016791678888380252
0.004190152904220748
0.013729877823587788
0.02333680905182982
0.06679761360899403
-0.035162424875005385
-0.012427836777489388
-0.0372430117247111
-0.034356785472629256
-0.013292155204844319
-0.004085463160738814
-0.06656622505107043
-0.026063454630406272
-0.004971029197796376
-0.009318988809733815
0.04072326775085069
0.04664850576579617
0.0333578581232231
-0.010597370720725622
0.03472987923829934
-0.023556525525809453
-0.013133424147317573
0.09084411365817881
0.05321550950633622
-0.0034443790048529752
0.014635578266506985
0.04265000602337619
0.06738800679597369
0.07162105318581498
-0.06210485602464559
0.02659848045341646
0.02997570848606652
0.0034582163748315053
-0.003248063280785723
-0.006721586901492343
-0.002604948363339927
-0.032173310036045205
-0.025150675718071263
-0.01117804571770621
0.045328954326471306
-0.2046651654611892
-0.09518377895029066
0.08183286665362342
-0.03423272832974595
-0.12380481830724031
-0.07815363886504026
0.005837537911404904
-0.04036895607368428
0.10298626291533533
0.01113140537613089
0.008655651206387139
0.037891605878088555
-0.1225715782826117
0.08046520092030593
0.007704513035093622
-0.013021566429742948
0.002349204747221915
0.03099896397145105
0.050899591937778786
-0.009046327733475745
-0.009499294873225546
-0.062274252102717816
-0.020900441376985934
-0.010469463208454793
0.10233098421732896
0.03913944232526682
0.020364114213084174
0.03854781153687219
-0.048632417208208316
0.05844571487168377
-0.005327947680407724
-0.0032424996641952156
-0.018723911819159982
-0.027042601173498403
-0.0015958110354734093
-0.06568697238695115
-0.043426670999477265
0.060448581890609615
0.029793856139246285
0.07391248105330349
0.03975802814202948
-0.025938776469979087
0.04064501192735053
0.11251370805065153
-0.006116035609455747
-0.025846320381517664
-0.04885988411190529
0.018514114655832376
-0.01914403271362109
-0.0277482501433242
-0.0050527963800797515
0.01590800181344618
0.017952601106906003
-0.023809754575991892
-0.01878230712238136
-0.008465330508469227
-0.026750225691228084
0.033267952511914854
0.04224135767512778
0.02411909394200373
0.0020642124350289197
-0.0034879271342671708
0.054080107095941715
-0.028041663586873624
-0.026792400577900482
-0.005827705242991195
-0.008749217167113424
0.011043422167341081
0.00721921210123678
-0.0070837411458019904
-0.15198227045451068
-0.0057057504302455405
0.0016823069166670601
0.03778026218624828
-0.0003527804787737424
-0.0008410877747733837
-0.023490348515201837
-0.047335329435649616
-0.02559396067717948
-0.033169320074905785
0.002200066676271488
0.019058421649826622
0.006670016961247142
-0.013161117323301835
0.008225229736911636
-0.01088685386441305
-0.04868215346983689
-0.051840442498680965
-0.006768888444771245
-0.019450888137506565
0.024450230800449786
0.004598776697450921
0.004315638211012801
0.006771351370788357
0.0353413986014432
0.033626577832009
0.004189009081592499
-0.0013452341582078672
-0.016708651182884157
-0.014413190999831191
-0.010949562329323185
-0.002023053702411943
-0.021922480737781684
-0.026957411646661832
0.008374609613706202
0.05790849936369203
-0.04492434827396355
-0.014912747821913387
-0.041024002237581174
-0.019122204101135257
-0.014772782406632117
0.006963543558581108
0.17194356412626322
0.25950836231848035
0.020677218899113115
-0.009671462858423133
-0.0028522962532175136
-0.029452865114153137
-0.05312876923147301
0.08060448013460497
-0.006916590342129606
-0.021818150118596412
0.031104979012745674
-0.007397697064715346
-0.016516762579127535
-0.01652259750968076
-0.0280300475062987
0.040138533648651616
-0.03253712690503113
-0.0021399198869047156
0.03693392420449112
0.026463317735258694
0.0003760663886292415
0.0009366115576674576
-0.02407688779339489
0.004003480832143623
0.031171148092601433
-0.000997339781394973
0.010982490999709918
-0.04526468125882914
-0.0354383556021748
-0.005272808444265541
0.010721544342532483
-0.01390147771564675
-0.005065244465653954
-0.047417593967669626
-0.03708098018450591
-0.026963517695600764
-0.007175554094877574
0.022715867610441243
-0.0010286347557212003
-0.009126380728306354
0.00284409220540421
-0.006352472992834789
0.00692685871914023
-0.002961752023202976
-0.01597588749908675
-0.001713113827874212
-0.008276906521941536
-0.023909764553865984
-0.02671258993489783
0.03859615824815476
-0.018390758068279126
0.020594672246772326
-0.006443386877156166
0.007829055379135485
-0.000827196182239349
-0.03620385247326419
-0.025852472709976926
-0.03763981141310919
-0.014944449880039063
-0.04872046397689384
0.035375835159991785
0.11461853668516117
0.008788953976083742
-0.030287560604584752
0.0692511931515382
0.016805693847830167
-0.036474513710575154
0.0068353331353250306
-0.012676934365153518
-0.028487767398623992
0.0020602382979974785
-0.019335467504348974
0.009233574166588612
0.021477827814674874
0.01612271562286883
-0.00531955216177133
-0.03595347709660687
-0.021348473262038717
0.040127597689324807
0.05985948084340284
0.010682117174316507
-0.06218136872292354
-0.06603233419791973
0.008854418233342412
0.05757599598351236
0.024608659470820013
-0.036033168719178256
-0.013103122927184083
0.007513890580348879
0.0411694699551671
-0.008599791511808844
0.037899166207545534
0.0032745507812593604
-0.02343728980902832
-0.006934946853402051
-0.015915048120092302
0.03401154570007373
0.02373564245972899
-0.01732312754053051
0.08290335374860743
0.08031254210316477
-0.014742707600131057
0.025734833433641458
-0.017708000970805434
0.03648267479155663
0.028581199012988223
0.010628288003295338
0.014404970218225635
-0.03789172683024565
0.030406439300859265
-0.07568960897520924
-0.15376065445296602
0.045797110416039344
-0.057602792387326504
0.033379497922097504
0.039754514484113136
0.06747784205073783
-0.03585246692175123
0.085633535711015
-0.1471104587149725
-0.10236930535191928
0.09592582326683093
0.005287157213704527
-0.0046291529509601735
-0.0022057482812303554
0.005764530833888055
-0.03038127706996543
-0.0074010140461147865
0.009979396457164303
-0.005330639414837129
-0.030068998320455932
-0.0017914628270371694
0.0040811317816782
-0.0014403604076890612
-0.02485342283203389
-0.026142607521966885
0.0015082804655575438
-0.0928503722135581
-0.03109812218612859
-0.014321744037471142
-0.00790576154464841
0.062498511089046256
0.003907569285611287
-0.005987557775047151
0.009006229987050205
0.015926499812613733
-0.02536745971081696
-0.03408711811475339
0.03318795941507213
0.02894810368048733
0.022182202237564005
0.029419494484466378
0.008356168670006013
-0.011941254261791712
-0.00741251037513256
-0.016058169926916277
0.0110053115909328
0.0011267164190205553
0.07334196759225489
0.040725459814919915
-0.023571058882637393
-0.02065012742067815
-0.01444881274194425
0.04400798173266489
0.06325043859599969
0.04255078672388451
-0.0017378082994179496
0.010580395923084145
0.0236868503093066
0.04152699914253735
-0.08982792488825184
-0.0951668092162174
0.03077624482131465
-0.01117806180405884
-0.011279967867063902
0.003139580773645542
0.02598901045207501
-0.007090718199437373
-0.018894143274288226
-0.03214379498986078
-0.0031442874112009613
0.032082955537235204
-0.0356230834233311
-0.02229280809031205
-0.0056705538656147605
0.0013084982920173493
-0.019916217053208587
-0.014471493127567826
-0.008162293734700227
-0.011414811815360987
0.03516604236980196
0.017318624003613944
0.027112198791428125
0.07636437552050113
0.019542107303588605
0.022582149226468673
0.0070742861988234386
-0.02501308546159918
-0.016947055978740327
-0.029784558576320654
0.004880792522084429
3.646414527752291e-05
-0.0010481495391980271
-0.04505757688456236
-0.027768191647357443
0.01958216708007064
-0.015328695000015602
0.016062197492954608
0.022258376161991292
-0.01990410234381006
0.0004984609825436541
-0.0038878576321947464
-0.024186558269422426
-0.008923308661273945
0.02278420170464036
-0.03518427574393772
0.09246051502120006
0.10954502853052485
-0.07085275522768178
0.018841903222998883
-0.004832655998719383
-0.001744632466491344
0.006405668427323394
-0.00025222346227293053
-0.022941370850159237
0.05757545089862137
-8.280489167107274e-05
0.010620788830767154
0.04427086790599268
0.02085332866818269
-0.05382454808107195
-0.03210939121601922
0.002000847403330082
0.015918860821358613
-0.08117152811667946
-0.09407249960581367
-0.14804137994167538
-0.05923902302754192
0.06988738014590856
0.059232837043136026
0.006680557016572174
-0.021101848187527188
-0.009083823247630955
-0.0027151428312438657
-0.008757072345171134
0.020637561307620976
0.0019684485919100178
0.025773835069999064
0.054526674462554284
-0.03127570777122281
0.049120954000542665
0.02276221040676905
-0.01603174063289041
-0.006536938793788111
0.030721074244380583
0.04184887098081518
0.016652251627367113
-0.015261072020817215
0.015303613825248247
-0.03901885314230392
-0.015374656629361995
0.020962848354849403
0.01592024967631693
-0.020663480802454132
-0.044214415327744734
-0.01388237713095111
0.02206822047528801
0.06799657395801678
-0.007117396528018614
0.0009062012500110748
-0.005896454170110018
0.02918214851041359
0.06793759104319823
-0.008538777868600807
-0.02845171001900648
-0.03413368653503061
0.006070345548674801
-0.014731798018384137
0.019171234559143616
-0.0020459900365926618
0.0007186719014935871
0.012714027400910367
-0.02752719434639592
-0.025631353706099404
-0.034626616721731014
-0.014876222203115063
0.007046633207407522
0.0006371135970993409
-0.040436450190620254
-0.018927368852593628
-0.019800946639497555
-0.004077444521729792
0.01557919974850127
-0.0053021496320657365
-0.005341367931660372
-0.05004434962035148
0.020231108355579654
0.00927718661072821
0.054967116350135806
-0.002201701634130336
0.01762062189614825
-0.001495616181057285
0.05674055232010318
0.11902716977665502
-0.03196269836015322
-0.018326037770060134
-0.012060038287629358
-0.019739488415960463
-0.011409917463862527
0.036991016275075325
-0.009753072932069867
-0.013857606036862804
-0.023247332922878932
0.01731970330220112
-0.0092197424422999
-0.0005258988185530444
-0.02801252565767538
0.03444661393612223
-0.015358442487837179
-0.03313461423378379
-0.006961080498326043
-0.024416256653511867
-0.0032688667396815327
0.045998434143931864
-0.0099977752093389
-0.030550772170539038
-0.01844131690008696
-0.0051884176608844295
-0.03620007834951946
-0.02562078882652748
-0.03581644653727286
-0.002251858116404271
-0.026890137229558977
0.13360833018901433
0.12132786489560952
-0.0015783088414203412
-0.005086422890665467
-3.3191643577212425e-05
-0.12216764237825073
0.0040272587045751575
0.04110185699698403
-0.019280159339020643
0.03119630261999934
-0.013831044638974176
-0.02732792463451558
-0.005851887252289016
0.08559231719009358
0.0036896701196378174
-0.016893635472728263
-0.0357651710948217
-0.05563636312423986
0.0013029386129203265
0.1567065652079409
0.06838919145177202
0.002371683435156391
0.15964235032737684
-0.10568428170563708
-0.032136720381671695
-0.0182559115787069
-0.040776973487198345
-0.009259660850267026
-0.026161495145650044
0.007654910377930775
0.00030982979672131015
0.00511024480251601
0.008301002491671632
-0.0023222397377480088
-0.020254950827406186
-0.04287716384737914
-0.07518735057180147
-0.06646243202071278
-0.07507923005612943
0.0011513107665928905
0.0045701667551351546
-0.009872722177760815
0.002028266918125753
-0.010437069679406127
-0.011890909859530948
0.010644907648545029
0.03258693057228076
0.1412037584480974
0.002064737352844002
-0.05363725680027598
0.01461738020544278
-0.028224063760871963
-0.020166244196386296
0.00642809699267717
0.017297103947849654
0.05544410289880237
0.02488942024960737
-0.062027748443270574
0.1048398147836673
0.09015206589751623
-0.05719563349717156
0.004623431884767524
0.013769745181077831
-0.10977401608915269
-0.05998927346012642
0.01960928143368092
-0.0042222414401096855
0.016546024969885463
0.05965623625810025
-0.005700297779202557
-0.03019317487401151
-0.006101969986726202
0.0028401327803269276
-0.011636723293678129
-0.010586418749480384
0.007069503610533866
-0.006418664425689563
0.000295849824967865
0.029567306770503496
0.02690771677703284
-0.0002712319165923811
0.05616952834239517
0.0426982553332207
-0.004246022419320272
0.014340332063824048
-0.01360036073406718
-0.013983628503510502
-0.004247359192080839
-0.03149143965701202
0.006198808610744675
-0.0056141908689303485
0.009593537673806139
-0.03231775311134293
-0.027173040802405762
0.0074604293744639895
0.0006108039493007738
-0.034495217875432
-0.051590688609787654
0.0011559943075331706
-0.035550856686473266
0.01395108262805137
0.06767483037365725
0.025758972259781614
0.01700391146241562
0.003544612955278947
-0.017349243263073154
0.000836847210324732
0.017389824280843263
0.03101708830815645
0.03757857543580624
0.02327339349000342
-0.014506297852838811
-0.016304369298400144
0.029459765027972772
0.0125539303898183
0.008896246025625389
0.1783085954024226
-0.06586686793514439
0.014794468586251424
-0.1419353694389204
-0.08786589142042037
0.008209157128176716
-0.008941311483822562
-0.04085106888405102
-0.007182478983539421
