0
-0.010875234199916482
0.01010677364282818
0.018001041163255984
0.032292951187579556
0.025539909190729886
0.03540579904489989
0.04043874387604783
-0.06304672597080585
-0.039338717341354884
0.017005721887022276
0.017387286537681793
0.04816234082092563
0.09525950322173252
0.007935518159416288
-0.0009933114754045967
-0.15064873240778415
-0.005381247771732366
0.04680029386675628
-0.027391953340225303
0.04767077539899835
0.04503832363141684
0.05754034193950268
0.0772489664708884
0.055558198642042665
0.013752299816695736
0.02261746923503442
0.04644852957551489
-0.014503266010588545
-0.027994525077822883
-0.009310100580795077
-0.013879696391860456
0.008877871926364989
-0.03325113502444793
0.0003874362425125323
-0.0664317763157848
-0.04655292478510467
-0.05563588719988203
-0.04681744681598618
-0.001375253622569709
-0.04176802715379343
0.017392453473151236
0.004572644811941084
-0.019711143747978194
0.030000799951674345
0.04813936074782937
0.04683678684973734
-0.07672740373967116
-0.07292581471496287
0.04051498124751657
0.00787435827105687
-0.03509051954079398
-0.003368599914184495
0.07227030081584643
-0.011472064939546472
-0.011557397367650912
0.015195311947584379
-0.057953829794425794
-0.03269799196442012
-0.04293918157141656
0.005211531742774683
0.03708655857548132
0.017504017973224525
-0.0032460690898252925
-0.041471131073618904
0.06012153306802083
-0.0016322354392355983
-0.029145593182867628
0.0040453407828988696
0.021681449796316005
-0.02117532346999581
0.00631732766464584
-0.02588321487732697
-0.02336811686987009
0.01639433865697958
-0.0052430774682001415
-0.02042864497968928
-0.029083373935280012
0.04636480952216256
0.04879887633539065
-0.00216643420178812
0.030875510591215495
-0.005075219623857271
-0.013849273596999535
-0.03401653740416513
0.010451628414186584
-0.0215472570491073
-0.0009015062842806757
0.019969571395683477
0.07425012191011887
0.06623911710799535
-0.031209818148726944
-0.0071883767818204216
0.004929081598876047
-0.012779426367687051
-0.00427947675440564
-0.03695000507915695
-0.04624426898439195
-0.052390927065282804
-0.03346050853911907
-0.009037112092301028
-0.028174649982111683
-0.02052603392101168
0.004634953597271047
0.1586842782214477
0.006441812496599858
-0.05150888734196466
0.10737236338016981
0.032738005509817786
0.008404240975394037
0.042125395156330674
0.05640138013563826
0.017001073528718404
-0.024093709940744907
0.0016022421992748428
-0.01052503200788315
-0.03493295053569633
0.05127838100782456
0.023372685510100914
0.010357294169680653
-0.008686176134502165
0.00599143487400633
0.0294654304024105
-0.05386088287152337
-0.07817363816241281
0.055631517896679895
0.06141468078599499
-0.049095091202196885
-0.0339240364396963
-0.04303336608219197
-0.03912942231977672
-0.033267759709185656
-0.0067864462911426384
-0.02761183764266526
-0.01687046439961467
-0.010880302971752518
-0.025039014272244323
0.032849263607579615
0.13241866961850854
-0.017148215353962142
-0.008113317949103653
-0.03731552666963316
0.0055594618958969225
0.02071439181103046
0.03201817246980475
-0.095684224842268
-0.05845703163644345
0.010749438878532396
0.013958532939822353
0.008566952344272677
0.04592019221766066
0.0162822008969384
-0.011048249113191862
0.012020105513936964
-0.010142605293073747
0.019110018637121237
0.0015112699133853753
-0.08159906785028524
0.0049860145616275895
0.006190410377171356
-0.015787772408465642
-0.0028006376256999354
0.0004498189682715989
-0.019424655569408106
-0.00754722340988804
0.016124724667288218
0.04498889423730412
0.04192489541798534
0.010575203722866248
-0.025648693923791533
-0.02444997960460112
-0.010864047558918495
0.022573921839794883
-0.034798891504297526
0.013640115715232165
0.03216622364813845
0.01862816424002848
0.03685440615632543
0.050417801814365774
-0.009540374611411193
0.026468573425863166
-0.00237550065614884
0.026118005987931226
0.01314959877459956
0.005351168403237585
-0.09568333001181951
-0.05096556408532757
0.034480576007690465
0.009119376446449405
0.006582987805574662
-0.0029463330325052405
0.0689117517453915
0.047574928501971786
-0.020062780334636057
-0.019466344995489833
-0.03832492451174261
0.022150991130743862
-0.0006472144558579407
0.003931799375078948
-0.17513246195788193
-0.09282391196043588
-0.06343469098662938
-0.0009641514315627186
0.027713825413612524
-0.0619437339610098
-0.0067200233531652595
-0.013508910753379722
0.04151416641199101
-0.0013633163713104727
-0.04439407899103727
0.035106669097149344
0.07554764348734692
0.009435632147639907
-0.0002842104240016944
-0.0041313350260945665
-0.022004746927180057
0.06580234110675752
0.18809645237541994
-0.027727044714760063
0.004356191912820624
-0.04334001905122261
-0.017303347298299368
-0.02011625734849709
-0.014830192019541753
0.0004957563673577794
-0.012793577912368561
0.013310872686992999
0.04903300074805742
0.019873108056246775
0.004029879549246348
0.08063636194139148
0.07627140112006685
0.004591925439549003
0.06152783950053996
0.043787138779995766
-0.03246575244617753
0.0016880665688928003
0.014328460358527813
-0.010177975868434592
-0.07860779076877644
-0.044339539200591666
0.025079811713435016
-0.03055085466179759
0.009292371734832418
-0.1052711450719355
-0.06396385892003337
-0.005760932944690053
0.02701808752395631
0.04330095196967036
0.034165262242468436
-0.03367623909184629
-0.08936059672771729
0.007059772544718757
0.003612620358606932
-0.04337341934707515
0.01922101949842732
0.05532281154052002
-0.012376841181778266
-0.0010946301317014708
-0.018304603262768133
0.017942835614652593
-0.1111991497456717
-0.0946827436524189
0.00377280979647271
0.016364877208955905
-0.0013075650890000512
0.017091374866882874
-0.013950377444659202
-0.023785449378095014
0.027073961098548344
0.004900404859953646
0.03128492611913977
0.0004063064805495566
-0.03586223617393338
-0.05071901364203537
-0.03453744576829953
-0.06661099546205988
0.07572896382250881
0.09233499369774052
-0.02579048202863307
-0.009506320827941195
-0.037140306891460105
0.11026916559626326
0.08565307080405753
-0.020849134442459023
0.050872423606436026
0.06199942598092625
0.13023823823092462
-0.036241128413981666
0.030011886519551417
-0.03712649705206724
0.01570125915299441
0.03658548429548045
-0.006334427034396794
-0.03360523265629437
-0.0021392670963652468
-0.0074220763637177
0.031148590777388924
-0.03888394592757247
-0.043297793021558124
-0.045246951219008444
-0.014529186559085847
-0.017393607004467838
0.05087963638748178
-0.026051204764274163
0.22501610062236554
0.08283408890661702
-0.016608686317776625
-0.05757440366946812
-0.011059399540476855
-0.011142519422925724
-0.03625209168688083
-0.03109373881847847
-0.05404251171172171
0.013152905475631506
0.010427374307904351
-0.027728234387098646
-0.010998270842375408
-0.03248670490017032
-0.025971943833398098
-0.047385656303624006
-0.017167286616390432
0.009990743441944075
0.059464979895197785
0.010235992511831259
-0.026088908863765563
0.007283464417929454
-0.018721232519868545
0.03209631138051628
-0.012250843214523948
-0.12349267127630051
-0.040000312470214815
-0.02343136036773631
0.03588078551294437
0.011341973460446759
-0.01734668276722763
-0.006059469687764983
-0.012829525073829217
-0.012611328184979873
-0.04121593649284587
-0.06441810355725765
0.04191591387277953
0.02114335695223509
0.06969586128265387
0.07464899718945488
0.038181327955469024
-0.02085037253084409
-0.021906898377243026
0.008113799144784333
0.04334963392091075
-0.029932880298870763
-0.018979559600159762
0.008158185304742533
0.04899466895918169
0.039076383827773516
-0.046567726184976246
-0.02460029408420289
0.012565494968366522
0.10943491033271027
0.042530812594874824
-0.06226024155227308
0.0436159572026371
-0.03507642663258384
-0.012780173966310693
-0.1212642163384229
-0.07909150208959344
0.042172345329830656
-0.011107934918521106
0.02720406927529251
0.0020575685111357796
-0.019813185463851732
0.04497364722397805
-0.035493481803503445
-0.015775259569846108
0.07967356913160056
-0.015474474425629138
0.006686370577449556
-0.04078762961117411
-0.033953018814816244
-0.01231609975982748
0.008523321666095297
-0.02365044741196295
-0.010380509614978602
-0.0025945196240024825
0.02632948635480413
-0.0501669083692438
0.18301399069453192
0.09817716089763225
-0.0354977007149706
0.047106533852930496
-0.018974937266644135
-0.02011631867271581
0.00624574310400566
-0.04401047955518626
-0.021585839048504335
-0.017548008950135086
0.004649848819229394
-0.018240577361297725
0.021601011921828162
0.03624693959101937
-0.0022243886538696658
-0.004241929862351693
0.028742380196800317
-0.022298358513232638
0.10475054475660715
0.037267302169582774
-0.06082107711103609
-0.007542578822547055
-0.024833773340992567
-0.03679783029999104
0.011121720940788896
0.04339792547623644
-0.15121164469890666
-0.15623252629770373
0.012358256171239897
-0.022526073997585144
0.0019333798403456893
-0.021691886922271555
0.12944371413877806
0.07205450130667698
0.004661295691443104
0.03643796419734872
0.02462027953170252
0.031056066255729254
-0.01561287156805195
-0.002780563380868979
0.038376591821810996
-0.10830455013123538
-0.12280017313445486
-0.021539343948417167
0.01581721302629344
0.007456327553038897
0.10703084384883549
0.040004855437041395
0.052610531753787916
0.003517442887238098
-0.03989439227241527
-0.0442984767028606
-0.013057245007808322
-0.013360222135872466
-0.0023900402775044963
0.0033347249770571967
0.012852288568154391
-0.00466393603589969
-0.03866260011192943
-0.014183491255757515
0.04383997058228916
0.045120640272354934
-0.049010094269213295
-0.0028279852928033075
-0.03143953230637495
-0.04164920509985104
0.001027476589341902
0.022629960342174155
0.0021647673466317126
-0.0017791158249945117
0.05848305108290647
0.05762045532266259
0.0409324697975571
-0.01590970264218701
-0.026511386192996544
-0.004266230610841454
-0.020714447616724155
-0.028119301570851785
0.0016964325583593398
0.020548921502052498
0.09641164521038287
0.05366526322738469
0.008880243702622723
0.017849281543667484
-0.04511223170209156
0.04197899043830036
0.08191525988557091
-0.033872796579667075
0.01041104799590606
-0.012868733013432129
-0.0358973420464492
-0.0690505973934068
-0.010475598935095693
-0.03542322435724747
0.012959041118779489
0.006243107319561555
-0.012911714435623776
-0.062651153067353
-0.034894021515605875
-0.07112627653972849
-0.011125477417164027
0.011876853325992667
-0.0172061772168451
-0.012281909747627575
-0.05812002224352488
-0.010302221762553387
-0.009701312288543576
-0.0912680018862196
0.10677487828864866
0.1372432485042587
-0.018816030499585416
0.0215305133137549
-0.05386329548529176
0.039041462270466294
0.023443118853093785
-0.003568736044472269
0.00786442562769505
-0.010353412070126739
-0.000977224622405078
0.005799054990239707
0.043837178854432446
0.016066744988899893
0.004434985319560345
0.009114968216047351
0.012952724264834993
-0.005407608725942527
0.007973388397121266
0.015375554445717874
-0.057500674568446965
0.014172894991054395
-0.008279218985908363
0.003338379922170834
0.03277489940032595
0.015085322326298022
-0.009753391795775513
-0.05428170822205386
-0.06360795479569843
-0.07672477189141942
-0.013524749650481314
-0.01409010060378402
-0.01246800649752424
-0.013215897439140034
0.03314401637250658
0.06819106903345375
-0.030942710440398213
-0.013528187267510386
0.006023878936303202
0.034631760726706935
-0.01749351852772307
0.04520848231309906
0.07143723366106586
0.020282873833670386
-0.08964362078628543
-0.1057403754044894
0.08077981632640144
0.18946470490745076
-0.0006748502355212732
-0.05487692009348083
0.05939303035556477
0.07578984526055979
-0.08388918863977156
-0.01395299131908184
0.020505298624470918
-0.01905918843732111
-0.026560768515831286
-0.02199432069086352
-0.03234766217622898
0.018965413216223036
0.013037856799922837
0.02797165037607647
-0.020166405744060006
-0.04250809590362447
0.025983301118585506
0.022318356779331427
0.03615166800240574
-0.0025446265675068925
-0.04146665115060727
-0.00911923638217108
0.03455458518801505
-0.019099891077767425
0.02267320058730774
0.013680301698340076
-0.017888147666727253
0.012875397782501007
0.0060855579874900196
-0.010902325268424155
-0.026367791017863053
-0.0015146220356448954
0.033719534623108866
0.016507270358697725
0.023626392154813797
0.008073720298963753
-0.0670945257228894
0.04312519910606185
0.010328594953262979
-0.002433743355775833
0.007321354120703377
0.03325939497557969
-0.032213260410357554
0.001626791449424049
0.0017209475356823394
0.015595805215658926
-0.13362160000184653
-0.13574413424157913
0.049853267903240614
0.0048733830320957985
0.019398582482299524
-0.02066567614174908
0.04297083146526498
0.013571620082162764
-0.01312935199581282
0.01554667473908832
0.01186309288077867
-0.002467801033987773
-0.02447910323555727
-0.015633159354047292
0.03360717697741578
-0.008369101688154463
0.03006737159882713
-0.016055228611037333
-0.01685474730762429
-0.052272420258437945
0.01810107391297716
-0.17353220582265025
-0.10588306777571942
0.018700082154852315
0.02258967402042813
-2.1554544913462655e-06
0.0726965629026221
-0.01084153487318121
0.09433090830358672
0.12881096546241658
-0.03392081782595173
-0.007979983953512754
0.0075491383231726375
0.008651178041650522
-0.048432472661475344
0.038013944809994246
-0.05419160808422984
0.0737068178781907
0.15186201818506329
-0.018220488927252084
0.042924816283503586
0.004128051964817278
-0.056096661175314685
-0.04911141138937842
0.01067929033913677
0.03807470046636021
0.008808641162897377
-0.022662847832063855
-0.01701741972257179
-0.051334697703259616
-0.06357084692953457
-0.010474348625243612
0.0063735606367203435
-0.0889187240677584
0.06883809422864884
0.061793410990151044
-0.013796019536100703
0.03169478098839161
-0.039561936895829694
-0.035473943858513275
-0.03416476593454939
-0.04507807493478377
0.06016415321154062
0.13822731414962208
-0.02302886384839946
0.0130534867000844
0.02297852334237681
0.02030892757838224
-0.018943552651897726
0.012004340343336261
-0.01899404429279975
-0.026050419044293643
-0.05185623082882576
0.00841111332830551
0.01844975465081991
0.0004879881717991534
-0.010095349290801504
0.04439982648259115
0.05686803563346243
-0.04133844095647118
0.004959914339245528
0.017165995053655483
0.063453730150464
0.0021138113411635663
-0.0024300457520056782
0.030643873137606043
-0.03259754546962266
-0.002312957667420361
-0.04071532113734111
-0.07857321038156734
-0.04786875886963692
-0.016309522330307122
-0.025536301403235224
0.027118233843290224
-0.031059577562439336
-0.00629077642990561
0.15453181169275979
0.020176567276252375
-0.017091277163092517
-0.03319633845386874
-0.029581854596426184
-0.0073756575964321934
-0.025105661015516773
-0.0003742711672968754
-0.01471926783035423
0.02670669537107129
0.03754468413200796
-0.029943965198918576
-0.007796587596701256
0.005285990026072169
0.009515115527397993
-0.011140908583439286
-0.012732823091730152
-0.02224714425764084
-0.029911430078050853
-0.012229144591328036
0.018703716829953972
-0.00825986320973191
-0.015441782419786708
-0.03987695155890535
-0.012950743507299101
0.009888326806956449
-0.01895133192819107
0.05990175572328916
0.20450275055161612
-0.046956336584867704
-0.06921268700591406
0.009902168679708865
-0.09232518543446981
0.004202029540886015
-0.0033811191947418166
0.08438589036779545
0.01824277315154265
0.051916936728095144
0.019191476003913768
-0.014937679736302587
-0.014377545720779528
-0.01196506735861513
-0.03822121255638686
-0.1328487168701681
-0.03862443091903066
0.008084680649103747
0.024749295242692756
0.03026874221335558
0.032773016758160425
0.003844285613674955
-0.012853946523100642
-0.021588603307179478
0.017358329180511306
0.04978671896548719
-0.03725446392854555
0.0006397470388372197
0.011057830672765613
0.035644004097845294
0.021989829182829997
-0.04064455190500705
-0.07612647335352202
-0.007334038059175573
-0.06210671196532144
-0.014311312332260082
0.041797827598353376
-0.006961479795622238
-0.004155088879235197
0.001401093150339012
0.009353845192149227
0.04324451924310549
0.20671672940589372
0.25910442006747153
-0.024314988111010388
-0.0019244683791797945
-0.006154108750275242
0.015118753102086158
-0.06377910585906414
-0.025752532961852544
-0.01487070731574672
0.004271069303708503
-0.030481104344096857
-0.04078585513673385
-0.022999276847907188
-0.03148782601812528
-0.024051778904736885
-0.0034692613022780303
-0.05934390385331221
0.012316610360747313
0.026789304861829562
-0.030594770594237656
-0.07671579542920065
0.007087100385023353
0.05279249038560762
-0.03593845595033015
0.007937900370734639
0.010771384219752005
0.08135144908484603
0.0028232463563586233
0.0024989541531790947
-0.01662888601466269
-0.01686163215966352
-0.020136656475738906
-0.046915504014645684
-0.055921585070030845
-0.05753866480844567
0.037113187414013
0.008447882580423173
-0.00824831266817568
-0.003735654279644611
0.002163129868747675
0.07537001641670356
0.009646410007318017
-0.0004246980181464853
0.03856399440349229
-0.013717723441211313
-0.045423590179315715
-0.043118376054314615
0.0020706338410035993
0.04359391559923545
0.010399721787187153
0.025092155945715882
-0.0017277987699916512
-0.022303083789877717
-0.037907310429518955
-0.06555864071276925
0.013414583902243237
0.03789972542210961
0.016967790154261902
0.008161245138883883
-0.015274487555048013
-0.04514404722350185
0.019354330722785102
0.013047466298544658
0.04946482997620363
0.016991328213298143
-0.016252404360297824
0.03712058186096631
0.03901272104066386
0.04177761700643121
-0.027286591251919172
0.06967614049346353
-0.03289949727979118
-0.16655070810024417
0.046073115135381884
0.020533972866561737
0.025453569792966015
0.030898614776197056
0.05325127495186604
-0.007646655473485112
0.034200573779679014
-0.15481284853366667
-0.0008553638035242928
0.005355999193292393
0.019648733068013825
0.1008018884864143
-0.04798422929700315
-0.05173112079091992
-0.0021957056232529554
-0.03518616106905971
-0.006063836471142165
-0.026620142184827743
-0.031282997192980194
0.0023578871213447775
0.06389579229601389
0.06317531902628082
0.017818295329099117
-0.02188251915449284
-0.020094643338027615
-0.028177115437718416
-0.0663600397932397
-0.034271466467413934
-0.07992227402956259
0.004901295919646657
0.03909116140903828
0.12216527724820712
0.04312453186832876
-0.12458350144344812
-0.016561484958211845
0.05759917645736685
-0.010319513822630244
0.030914519464474665
0.1730939450682598
0.024129481152461624
-0.025805399838936142
0.009073824824444533
-0.010050516466750602
-0.23674238559965632
0.007608910795478502
0.08747866192897782
0.012362473379309446
0.01902291393950949
0.005504140288642783
0.005451731350392678
-0.018584000203719694
0.01980361026000557
0.012783129152414124
0.011284265775772498
0.02613884333089249
-0.0950828246174703
0.0801244802939551
0.02752582667423399
-0.033281827699876546
-0.019141211589274884
0.0501087070629572
-0.0032747220134347515
0.0005288646315292154
-0.040028491159423064
0.0030396906180451327
0.02519431314803096
-0.007056046959709411
-0.025970377794259942
0.014442363807359547
-0.00502859914611824
-0.12444054623583872
0.01212230031495706
0.008381710139910329
-0.013839387577560638
-0.009584630120482256
-0.05115847754735552
-0.039017337801413525
-0.014704186467067264
0.04633195153018408
0.028267642064510164
0.01309110583781657
0.10947101992244096
0.04409649692890711
-0.0074216570689039155
-0.012696186465493536
0.02695771415836717
-0.02988241137283765
0.011562234701822575
0.01731797986281376
0.05349287859162563
-0.18053904714348762
-0.15944595288986074
0.02780638917964403
0.014357788406452736
-0.033194314611327984
0.023234168773195587
0.12654122999910958
-0.04396900429017458
0.02228855385937641
0.013111927891635752
0.04059051109692611
-0.023922142738922434
0.012926450836512633
0.0342726884321281
-0.011421541493594343
-0.01778164309644842
0.005032254652057896
-0.008391020228339981
-0.02632864392040108
0.0034191533238510214
0.1081519686206542
0.018904851647929516
-0.011831877364056751
-0.03765766351011938
0.013940364913364294
0.045599502671730595
-0.008732294801313198
0.0016869663954557396
-0.008884253584090453
0.01729113636587155
-0.01677502671807838
-0.02341737275803503
0.013539680939363983
0.0243356815592671
-0.01871605037257973
0.028488652007975044
0.025115896201320563
-0.012258488949915342
0.013825302916874836
-0.028021849026188542
0.006704531523750699
-0.03280116002470631
-0.023537232180703933
0.0006704690344302583
-0.016797157105246742
-0.02663437906574262
-0.001588610855663291
-0.014589857479716433
0.004809473585874366
0.0031491182807292174
0.000466759643495694
-0.0380466943840949
-0.03347238592881884
0.028796183550451684
-0.0027619729083402413
-0.10112792893953337
0.004435763071513044
0.011392426235764657
0.05035268350931994
0.0072276894011992256
-0.006854776249259248
0.07256651084941801
0.06717064052971404
0.047828277912055836
0.0016399656322656426
-0.014077134298223933
0.0579080505101212
0.0314511826903137
-0.021630764738332316
-0.015577867092572613
-0.017291179486059093
0.0113058946728521
0.0025034329199773446
-0.015687758347411998
0.06520678514758724
0.04498620476792107
0.04343436168676445
0.0006064102747633389
-0.016687435787230094
-0.01940771669506687
-0.009416754742010508
0.002422574509192403
-0.002094585276983092
-0.0696864082477746
-0.034128374728106925
-0.018563330301433884
-0.19594512719462812
-0.017001381780513393
0.05468266137848939
-0.01285872995592272
-0.13223595037890357
-0.044405312265069885
-0.01858488797489786
-0.011851361938050939
0.01753263096385412
-0.004965980117110029
0.06153106739121994
0.008531351520028513
0.000539533191604221
0.028727761445581014
0.04375298096432686
-0.01085931867545058
0.04130633920408225
0.07081569463898486
-0.009839172038390336
-0.007751031668300965
-0.048788285823465165
-0.01103084846532043
-0.007728512962135938
0.03511259613713743
0.03962481638909767
-0.04226578994414325
-0.03220229777498492
-0.012015280381955826
0.040327188566145415
-0.008260787827690443
0.06496242242539264
0.027192977963158504
-0.013668754236043986
-0.01002199600303551
0.04275009415139024
0.021647831264250673
0.012526883943268079
0.005575955405959599
-0.016450655775738107
0.004353726623789317
-0.042335811305828315
-0.013560407136305387
-0.002420806762684023
-0.019768951833526803
0.01641891579306528
0.04975806234440666
-0.011149399712882882
-0.010703095688273925
-0.007833197744380306
-0.058362035998977393
0.002445591867878899
0.05377472321008202
-0.002572079475362158
0.005819698155729986
-0.024207815984204958
-0.005466978834607075
0.0014433761881750254
0.007661901282911356
0.04034542876290615
0.06524836239817847
-0.03002743072160024
-0.025407187242171538
-0.004851293117424031
-0.0008271667518288865
-0.01697572495667233
0.06809477758542855
0.0853674703406575
-0.025858990994108894
0.034415333237751276
0.042746002072750554
0.05043407537822825
0.030511922057359125
0.0014754455805762886
0.015000221563779458
0.015577064677827393
-0.01501073355955845
-0.1284047595207898
-0.26530787852685106
-0.06066649824186587
-0.004216164117688488
0.03559204122038795
-0.009603224843351355
0.0006041571947744675
-0.03232960598038193
0.001598938184321207
0.07337563900142303
-0.0012417533036799878
0.04815565924329088
0.05645363041341664
0.0004829683209257536
-0.05147576870241608
-0.00377411675258657
-0.05977062135918668
-0.002203719780539629
-0.013546287090150488
0.008655908841605704
-0.0013297411116216372
0.022645298237511362
0.027649478444270983
0.024488487664880588
-0.006734478882841104
0.03749849429301253
-0.06685121684436521
0.001687443188903619
0.013150585973027498
-0.020163633489077324
0.018310776826614215
0.05622701436714879
0.014849416560099842
-0.05978835095387129
0.013246275545185447
0.010471189663414272
-0.10291659395225608
-0.09433577264403022
0.045165497286462
0.023869786630278066
0.013624959880123235
0.02653537876285309
0.0036895382986625925
-0.05061561019167649
0.12255495680038636
0.0744857260145227
-0.030153843415245466
-0.03773217217598748
-0.020276436388257102
-0.00830903164764567
0.016276549771757885
0.017239121352048567
0.03379437139666197
0.003258125322799031
-0.028289882518145387
-0.001363754596689803
0.0113523143319982
-0.012911814589914252
0.02738532120773534
-0.017898716801968598
-0.021617679491296622
-0.022169013609155457
-0.03734167758808836
-0.05718730931026992
-0.0225450903571614
0.07279182056835755
0.14886150680749335
0.0063545627841313365
-0.012624877863956097
-0.012305806873501439
0.03278617598325377
-0.003999301271086377
-0.015585331843402765
-0.0029384823292673817
-0.030100110874418183
-0.008310595257861098
0.0036738624208657936
-0.03225167381381493
-0.0217864322778439
0.009185422274376354
0.003446702846360918
-0.05377876845955995
0.058947238877837586
0.035680379253513465
-0.007123035477409165
0.01293331588951766
0.007697443557320076
-0.025489658810113055
0.03895233752316204
0.027842222705608557
0.011192203307556377
0.05031329412468496
0.014614586514085133
0.01058321564022033
-0.012021080509760943
-0.020858464417182237
0.005399601264207532
-0.008228420654144563
0.003600252026554043
0.020781843610529663
-0.023804018574970106
-0.05396311664606209
-0.029166874751369132
0.03300485586831635
-0.06270152231260732
-0.031018486770660686
0.011824255216986362
-0.016486653474242687
0.006934658559467601
0.018980118840280665
-0.053077664498634124
-0.03477602467051776
0.022378344029494644
-0.029269295932563534
-0.006424352841897374
-0.051725638437357745
-0.00437528393794109
0.0978009529132483
0.05346407661543958
0.10077205438537333
-0.05448439189402206
-0.043448067985554645
0.03300422394460826
0.007911832534438232
-0.03165652130548099
-0.002772809612499878
-0.006844220760507712
-0.00855963594843493
-0.06997791785669606
-0.037518683032837404
-0.013120651079942099
0.013132456536835058
0.03789156109894665
0.06391649482880384
0.00821451624529336
0.02283525252812965
-0.060126190429721095
0.007826277671226125
0.032677426106528774
-0.007676867658882418
-0.025668921822132235
0.0015208221282334412
-0.16624036448706217
-0.1524104531304052
0.030061910311192815
-0.048801579894683846
-0.0009083808366870957
0.013863040106799304
0.027067914826397126
-0.022822317743528223
0.03452165173995013
0.030668113595060043
0.16012451972383615
0.052995135659547214
0.032043378314773
-0.01796683836329136
0.02794200847533812
0.0679765615322595
0.060610591282598346
0.1041603713121782
-0.0036880096226920836
0.0014255229416101694
-0.029683071195772223
0.006941561546786532
0.018186597012794625
-0.015721240624254246
-0.008350278946154808
0.00736158402995325
-0.01680961698702813
-0.06996295192307694
-0.033577254259469246
-0.015661654136074645
-0.01790861481936576
-0.0682541250706574
-0.05621312239498519
0.018937502634521177
-0.03295129545674869
0.09468372476349876
0.1160444222547028
0.04569252383453301
0.08341870052809523
-0.03522276996753452
-0.03291496560271968
-0.007360346110338379
0.013895025258554591
-0.07110324072734599
0.01116540070589593
0.09233715696185595
0.006645879646798539
-0.06464103410101874
-0.14702946338842007
-0.01539191792088537
0.009974722469246362
3.038543534984073e-05
-0.03159669643493788
-0.03745981971202656
0.00844331418572861
-0.01185124521060885
-0.021170715386859208
-0.01488743050750084
0.05022150675943071
0.021096550044696873
-0.007299558905378136
-0.006533322062582352
0.007939417467168296
0.03122543737758036
0.02516880566332269
0.037443050098556745
-0.03102393760899226
0.02881232656382294
-0.017077507274195283
-0.031993286525615346
-0.07316480137842485
-0.06115303317136517
0.003969987760683949
-0.010383842839246437
0.0035017910639905717
0.04460220280603722
0.056441194496797194
-0.02902188195615896
0.008875996192513624
0.004447612029629033
0.024856643958161246
0.001797044169671279
0.01776808961486576
0.006077879421773852
-0.003960641463137514
-0.016016760082457993
0.012287646529892997
0.112576429040113
0.004370362217176142
-0.026236817004467183
0.004352723401565425
0.014843229559500147
0.03158027453528258
-0.04071995683512629
-0.03191951474422046
-0.003013556542563944
0.04557850682244195
0.025646112278923987
-0.024436596905684758
0.0062195949981621495
-0.024464445910420456
0.0059245086000580685
0.003367748807970228
-0.010458437443466164
0.008566577089017072
0.008972368004001917
-0.021958516553513757
0.027657592854167277
0.008517689587469061
0.014781586999766987
-0.0672814652916347
0.0029995712133095657
0.03687411808636143
0.035455112618827986
-0.00682837105900384
0.014963525132661536
0.010803423649445426
0.03915323570898359
-0.14592320062665504
-0.13911033413050847
0.052127516059454565
-0.05292177056195869
0.0014890197060457167
-0.026745860899158105
-0.029467572258874686
-0.010102009027729007
0.01179131891330419
0.017241799143547135
0.03024696444145296
-0.0006459059744211384
0.04047705869577099
-0.008683957633866247
-0.013735346990632906
0.015523698312337571
-0.006037877119098447
-0.05093263869729529
-0.014846983062998259
-0.029521001564805846
0.025206201148325436
0.0072228367628517365
0.0018966101345565698
0.04443845992923584
0.009882445408152812
-0.004627052704707185
0.0020159190569535956
-0.001864242807668301
0.02158636839632166
0.08585829573998559
0.028866280838089356
-0.013241892608584719
-0.026239690274233573
-0.023804545845412545
-0.011416473326973764
0.026728332227469835
0.015144599824116986
-0.028028638977335193
-0.0017438842571231828
0.014610874865922855
-0.0030621714027732876
-0.013953966230140967
0.004195490973732068
-0.02400707292753873
-0.009559531149999759
-0.007905536351446142
0.010907787488949822
-0.010984192636850635
-0.0011996610608180803
0.042352710054634014
0.027026510491842994
-0.010085502058718476
0.01608676108087089
-0.027673751214871006
0.011386874993085034
0.05556407883134547
0.02199855943360302
0.04221354244417338
0.03163570139027546
0.10302460518403142
0.005877404050228252
-0.0008814995540561073
-0.013912628929097042
-0.0019184829232390583
-0.039014890871677275
-0.05635280609594955
0.026642019489060635
0.04387828611425267
-0.0075495772415601296
-0.1649904046754954
0.0038011177579813705
-0.020727754072575297
0.004062069987514128
-0.017087066139988397
0.02643271410800992
0.0014545902748592894
0.03587773212203728
-0.12548703242481946
-0.14828615947025856
0.016260244461805188
0.07209686611581087
0.045682343939388484
-0.015444132982383181
0.010868772315372656
-0.028802207877531388
0.0018370141114018251
0.041255412909786904
0.034968562241781326
-0.012063880645543885
-0.030812918207136577
-0.021721020285054356
-0.04074552056478218
0.03545623871241367
0.003770873975701566
-0.013718276286179333
-0.020067575593554297
-0.02299275290142189
0.021538123903276904
-0.00561158138373305
0.02971672850457268
-0.059664044686922164
-0.009740603005102032
-0.018594877338666174
0.023256523387119792
0.048332367694044774
0.0025840506396873713
-0.003425405263857822
-0.023685142622495856
0.02990106614528745
-0.002486122711776725
0.028555484209192347
-0.022091160758018074
0.03577964008862776
0.12528352329050516
-0.024028326145896953
-0.01693267706914408
0.025702417818878342
0.021028846394281445
-0.07477064742659258
0.0024377049196949684
-0.04682265944577108
0.026832061887131307
0.012290656627919169
-0.0250185213223995
0.030804181305806252
0.01693661073669981
-0.017861552025000157
0.0009609329468491553
0.03458669800427553
0.017221679459989755
-0.017696338862482515
-0.03784454541945435
-0.0066259343545165186
0.05800464571756694
0.027799768949000225
-0.015060395080864259
-0.012791702473766863
0.033083656940540246
0.03260505829157446
0.015027249231832322
0.11504361725746322
0.05528445191373053
-0.04667921134876308
-0.003789550419653828
-0.05932725369809806
-0.0596134754230827
0.025880320506428356
-0.010710137160290577
-0.019571034390162296
-0.0436226711652304
-0.055770570065445155
-0.10997568640765523
-0.07869055583402829
0.023062972113505765
-0.018151787671533852
0.12469564184901204
0.1483099483950468
0.010173678985730749
0.011322103301880002
0.022338216492129376
-0.014448876490716559
-0.000650804153652019
