0
0.02411422109628843
-0.014413438228519815
0.06844500839513323
0.028507527073637677
0.026098549883720203
0.009934069641851206
0.012083765581645992
0.020218709699805743
-0.0018692983267039915
-0.10419951779850625
-0.008848928774885812
-0.042129495433412094
0.01934811948292206
0.008136707829549275
0.019435270203419192
0.034493891071989066
-0.08530213120343867
-0.03251288617997225
0.023399485928539968
0.0005448417550007771
0.07060838498404172
0.035754489542920244
-0.0026030121040554353
-0.012191658683158434
0.034854147884569614
-0.0031842869280214645
0.020983878194634667
-0.3072200143641046
-0.1132600344634576
-0.017641230118026208
-0.029916994730726766
0.0038072749114753616
-0.03158292041478067
-0.05021784382983914
0.044477476692212754
0.09201458650648682
-0.002185587784628709
0.009669109307161496
-0.03317817698958981
-0.006360398832298539
0.03854255737955182
0.029529348142752536
0.036211896104481264
0.03381860337432878
0.10967358986764969
0.09125435965988132
0.022826928102450007
-0.0077818151804106206
-0.026538857671058794
-0.023688210620648457
0.055248874263248815
0.03555387158316954
-0.0026569927022760146
-0.03683316756764086
-0.030140206728979657
0.007593435556082121
0.004544098055439962
-0.03383524972388578
-0.022387455369948402
0.006505862857835227
-0.013526367060055989
-0.012406239228599862
0.0028725745102420176
-0.014228450133479205
0.01244907947519515
0.014243818283572072
0.029843987382325892
0.012936066982551047
-0.000367259075071628
-0.027232941155172694
0.0024792975805913737
0.024301031905913883
-0.0075646635242059114
-0.016525034830516032
0.03202329471721172
-0.023786217919260798
-0.023437229175122583
-0.07789309856057136
-0.010303276226691237
-0.043561627159707246
-0.013181933679003987
0.05767594973841841
-0.017880330854655888
0.05784374429251786
0.025933706199319454
0.002027162660952731
0.019307875211289495
0.06231887001563981
0.12440836886496051
-0.09379175666216585
-0.1549703924183779
0.02538006058384474
0.01937816756062363
0.015803958150236993
-0.0014729885752581867
0.05607669543095153
-0.029764796661881972
0.00721994463208525
-0.013101698207222902
-0.010763227743647236
0.0012767511388170796
-0.08588002828678373
-0.039507781276852144
0.020022010448607613
-0.02979044377557269
0.027552490223093667
0.006242407736335969
0.1182834153670302
0.0026761078603677576
0.02720790112937686
0.0004522064144843862
-0.030112884164385116
-0.018482237871030833
0.009602649840507675
0.019035160819318418
-0.007085025237041051
-0.013251515498690882
-0.015138736480252726
0.06098671366040984
0.06661817483563436
-0.06290371860204572
-0.04541283949699837
-0.04386375451026392
0.01135650731281176
-0.006540359407373008
0.01996412711048281
-0.11162091820755776
-0.029016262747514607
0.043821408857318805
0.036084135749076277
-0.011117958505951615
0.010334012202028163
-0.04411848683507341
-0.04259350486428694
-0.00601725920346405
-0.01650021384179544
0.026268148557367338
-0.03301631889053037
-0.005700456347627583
-0.008277579720393717
0.07405801001179212
0.055215154174343035
-0.06887392223060126
-0.008614080260905226
-0.0008268259631036928
0.17913207047597193
0.05123765453969706
0.006570288882244567
-0.01851754658695108
-0.04007196010399575
-0.03028872417984198
-0.019145419905343717
-0.02251430757264033
0.09123934083654675
0.09749979440206628
-0.052869686222307276
-0.08215029522885571
-0.0018455499505073585
0.032335598989216646
-0.006398414530665089
0.02068708974478285
0.0022125351071933122
-0.010731609760619968
-0.03351919297822666
-0.02242407730362459
0.018107072160625702
-0.007615616460778636
-0.020082863309597295
0.0396229521270327
0.03386855642819717
-0.0022808363667626112
-0.02206106287207697
0.007402738521941952
-0.01046371191796122
0.02164821098704662
-0.014288876655280244
0.04612619128866052
0.00209208075922443
-0.01636609336355471
-0.03576101013793321
-0.00794774964336412
0.008973222148125341
0.026152071427357128
-0.1850468472585268
-0.029317223150116565
0.041847329306242576
0.0016862419408288525
0.07470681332909856
-0.07899476990554667
-0.01697041444025263
0.03459611859882823
-0.009724602948302834
0.002233702204324233
0.02053071705983112
0.021278965314302116
-0.005328569232148708
0.029310560770583777
0.025096273016617824
-0.018971999498962066
0.016294788826179882
0.00014575461616727814
-0.0010506708025498934
0.008173727306044327
-0.0071925988675630775
0.01342259351615002
-0.016042813337163526
0.04180903571496849
0.06026172245864323
-0.030247714054748978
-0.0076625422017391675
-0.008088805671345317
0.021665690182011216
-0.002075397540942365
0.005262735183980827
0.08040388641980982
0.0021304688417952385
-0.012309707526929026
-0.006191069546917839
-0.19245401678237745
-0.031364921119679354
-0.0007387828858767364
-0.02919490340779256
0.018164078893019676
-0.001505828631284858
-0.0011297082591121479
0.0025666611641024474
0.011865457928557324
-0.007160426695649207
0.005802173019293887
0.036215595570590516
-0.007289467274617654
-0.024825700849637963
0.001909856575645182
-0.00705357573149066
-0.006518992648420731
0.03444577834780925
0.009271877651518604
0.02586103764675081
0.037620177497991264
-0.018284749863379173
-0.026522766559053806
-0.049586137611408516
-0.03223839670499843
0.0033718065944819938
0.054710237417464995
0.012056922530510276
-0.10065760992391244
-0.036463532837424845
0.04171011228084693
0.020433557438823188
-0.0025183253363692303
0.005056373908357473
-0.016681749812901214
-0.02087624433040375
0.047718466275901934
0.08962820491400351
-0.009968241410378144
0.02894438217332688
0.0022083108857410255
0.0363576721128662
-0.02877337432075622
0.006495870092681758
0.055572115115411234
-0.018037647399052642
0.030335245722024163
0.04680489403882599
-0.2169255544024044
0.014493855904083431
0.1379848508593304
-0.0032468245611557826
-0.0016041427886167414
-0.0711139878759357
0.07856186739833661
0.08494139943623168
0.0030741691493280277
0.005725888618435109
0.06382442551111417
0.009984372327901404
0.004669495678073689
-0.1582890047381862
-0.06502932134738709
0.023999110682742398
0.005402937213682259
0.028235072294847913
-0.04188827303981687
0.016356344834127158
0.009424367910468148
-0.018396631474065204
-0.02814859324773887
-0.021851988574077098
-0.18602252705966776
0.0042797752324699
0.03852817379520242
0.021329158987474284
-0.011894337470305036
0.03351806822956605
-0.08341421075298235
-0.010206211888596151
0.08187736770097591
0.024400064639942275
0.0199303099188061
-0.01558300111756457
0.027723216246119106
0.022669414487775295
0.006155959925419965
0.010383073569211405
-0.024493584483160857
0.028165270678079304
0.02396551357238888
0.05860313360066688
0.05874743257944714
0.00444208625384979
-0.008562778656577223
-0.04004796112609115
-0.021295876644529716
-0.01555605020866507
0.03573890774788624
0.019073955608336135
-0.013672547372016506
-0.02042544726596575
0.02316563761739715
-0.0197143051342914
-0.02653779558506515
-0.009583361362483098
0.013763576546128042
0.011827975914851633
-0.004829477036878272
0.00019781341423565465
-0.012205896681345267
0.012090400189117643
-0.004760084633632259
0.031092320811652502
0.060839878880715
0.02531213826002407
0.04280759655361735
-0.1201857115824606
-0.16615016403602662
-0.021805604528812625
-0.02983283257501255
-0.019187323831275367
-0.01155206237916645
-0.018390011762249348
-0.008619646324254791
0.011514760222564124
0.001373535537088454
-0.049248990733324526
-0.03802558459275899
0.030812123413949313
0.010677136142474281
0.020674555910434655
-0.017978330431351112
-0.008254133773383774
0.025117334810403923
0.021315764506029733
-0.049938604754311125
0.006276134601308664
0.037251653724229485
0.03514404294002756
0.011272585145921209
0.01744376216618971
-0.006083052063280248
0.0011857217371073535
0.07672253150905826
0.07588016366865592
0.056226674067440204
0.018558234737080702
0.0002329190120395343
0.015868337180615213
-0.0021852544676717956
0.020820187828368475
0.03972862507171043
0.010031995105406448
-0.021729167865914497
-0.02173934621612288
-0.028389897495276543
-0.05325000515960371
0.010237418402515455
0.030238296325623998
0.02389206414154886
0.008299026041547806
-0.02675774231969282
-0.018045566751785796
-0.024151807888370312
-0.02435463786611276
-0.011110971489352058
-0.013320825586858074
0.012027527355277704
-0.016678196402312998
0.021109519550291785
0.009290612763150588
0.03954322697160534
0.025112460823402138
0.021918130427314178
0.014213498483557761
-0.007428191035680284
0.004122456180011138
-0.08528477083124542
-0.061430629901587534
-0.0014802157188087918
-0.020988523022754526
0.01958732595297464
0.07328856450868079
-0.020539402671889872
-0.040090929155538246
-0.08661061281954505
0.07965646016387636
0.0533958960087436
0.007307744849615845
-0.03515150262941094
-0.07108955197800551
0.0027659367793404807
0.00024375795467670636
0.02773097810658128
-0.024202331369676793
0.007367672407973154
-0.03184892775774647
-0.10254894228663837
0.002406685977867365
-0.005342586834530902
0.03297531534375465
0.05696568434737011
-0.022553454745650587
-0.010122721440287485
0.007558270433258738
0.0027781336917345007
0.02258536358367877
0.04341660130015554
0.009972075560250263
-0.016180666242522818
-0.017393813644567675
0.007463414700918142
-0.0006407288751719047
0.009054262692107871
0.004524962784562994
0.005144932176003122
-0.023403384320125054
0.0003684650603702467
0.04595268798489899
0.014449131364142855
-0.01207342218920673
0.008763199692587532
0.02368816608729864
-0.013351045865594708
-0.017172159348510223
0.013794942951740077
-0.005724747647155331
-0.026351619397991213
0.020456339322613544
0.05976772174104353
0.009374089113242005
-0.0027497726020537967
-0.008668950181637176
-0.007919812264035965
-0.017465449870721995
-0.05792336304260255
0.046031765918863696
0.05841860480748716
-0.009009078054030435
-0.021935332229150745
-0.002812604769691144
0.028428474827710378
0.03678055709931338
-0.02421314389080473
-0.010058507090387043
0.009865016809513035
-0.016536162470831926
-0.0020484303508089955
-0.06415095209802645
-0.06745619713876196
0.019918437883049787
0.019500989999959566
-0.018129835919630834
0.016378101956624952
0.012459742715954873
-0.013565013459369635
-0.011505873026836392
-0.024667335671963938
0.0009748073159149595
0.03020581754647197
0.011494779211774397
-0.010365754426396584
0.03305391495495605
0.025023333562362107
-0.03245585239991596
-0.007870737336451277
0.01521417516333252
0.015771102496359813
-0.030845838185705143
0.022318542469951675
0.031370686070716504
0.009961991832961729
0.0060210462794424
0.004504112642469879
-0.006362665541886588
0.009565456292717777
0.00410911806876258
-0.030675769965154205
-0.0035819763619047073
-0.023106811313819718
0.011377631849293884
-0.006272200413311624
0.0180188352692472
0.03669203937643142
-0.16466421906398374
-0.021642811797103752
-0.022904367927861904
0.006667855941031674
0.08076549266971039
0.0811794378671315
-0.011148141041250068
-0.048382737269299
-0.015142267240277143
-0.01929691709818694
-0.12986456686712564
0.06811137498274872
0.061043345546048344
-0.041393622835948586
-0.04783955624846421
-0.06148009617797312
-0.00251223672924033
0.04314574970133279
0.13505959275225243
0.024989560405979144
-0.001566664106475592
0.022477623484060155
0.0017960388313426475
0.017813111854918427
0.04682759822709583
0.015487739611121553
-0.014548589075973981
-0.009843975403295683
-0.012622362209981922
-0.02779679068387338
-0.015714519411238775
0.023821873993038933
0.03541966202984289
-0.020796271654421106
-0.00231873183797888
-0.0324748754444193
0.018578867689930403
0.07375103289825084
0.03132651776404494
-0.02612540494729103
-0.007184928703616439
-0.012342066577311132
0.0278194071468891
-0.005926732469483589
-0.01630100985586598
-0.010396947373916476
0.03653414931141128
-0.010635196802858094
-0.013232903860449926
-0.009769417830377826
0.004403089155210361
0.00041030286585787355
0.013282144524334497
-0.005707144553406157
-0.005791451369804527
-0.00593454352589907
0.010694011649986724
-0.03275840612234808
-0.04346590851065999
-0.05732386833001585
0.0004283555734686217
0.02121019001698859
0.02383944866604534
-0.01893827351183601
-0.018947749004466864
-0.034013586941662656
0.009824724187820322
0.03359432635749782
-0.03556342852687566
-0.017837224636877907
0.0022202677379557782
0.017844588431417646
0.015194666137987364
-0.037965852391570944
-0.03500595105503646
0.005343660897923956
-0.009123661110119603
0.003788052985774814
-0.014354834892942116
-0.03441036074384698
-8.772813893307803e-05
0.007577769057953849
0.011625661766449984
-0.01133374399810499
0.01431073493612523
0.03197788167985619
0.02015838444262445
0.025912195110612945
-0.0187069497388601
0.020363995118909496
0.029261381252078698
-0.10216022502086283
-0.040609557764573055
-0.026114781064149745
-0.02086436882781144
-0.018616590171759796
0.009645745546713947
-9.755899826825168e-05
0.026440281041046863
0.2874346853282296
0.11403191106961864
-0.05655883205931381
-0.036102464099617475
-0.023961348777083634
0.10280511975113607
-0.006722673889945446
-0.007823088598743111
0.001338595104281961
-0.011390867785367445
-0.022786453726420054
-0.019331489635753468
-0.0025330965397833065
-0.014690789813574223
-0.09438075947084192
-0.04872183988799871
0.024470466694745657
0.009660835716621791
0.02329900340858165
0.006240051981469109
-0.019142864484397858
-0.01221502650083788
0.00030407501002196465
0.0010411892538439078
0.009006986516562733
0.02133722178251277
0.028722318698418046
0.022376570033847486
-0.022818263064712963
0.04806202262780985
0.11555145081208328
0.0026924134224264582
-0.040717205624292555
-0.032694644394878174
0.002101887463817373
3.3554540078679455e-05
-0.014913246280891404
-0.01870976959038816
0.018739437917165182
0.04810364162035637
-0.005701136958398283
-0.04981916876154128
0.01958406610600587
0.01197733741858195
0.008963365293462661
-0.1744206856969903
-0.11431990223500486
0.02762632201192013
0.010528232436959129
-0.02841596738087603
0.0021023245271017945
0.04723224339883489
0.010434838871168584
0.030059022883108164
0.02270818926228076
-0.013606291330102322
-0.004665428755880631
-0.029638797401223473
-0.03259467010336772
0.03051415572534784
-0.050752342897591736
0.06535690989170312
-0.13024682356809378
-0.1702061233738102
0.033496965030124205
0.02394610532272967
0.035025219602544316
0.019647282264400826
0.03627052098741467
0.10948244610052218
0.023617493773519578
0.03241853564494451
0.04462920205627918
0.016839246737551505
0.005416120775648094
0.012202667432728676
0.056938793899548396
-0.03294720109208307
0.026177750887771013
0.014806485125826191
0.00044225468298613704
0.0025140047870755417
0.00764007334212064
-0.005820839128919463
-0.006337668308589543
-0.016601383062059275
0.005887965714133668
-0.023026796499838725
-0.0694193020350436
-0.022994001837116848
0.004346702259959227
0.014653656438616552
0.060146284331218484
-0.03148142976194531
-0.012394124971261003
-0.10004384200159007
-0.08460969306768562
-0.023811995448482653
0.037754486419559974
0.00988764674818154
-0.022047563030808834
-0.02144881386035169
-0.0007576445892681484
-0.014379429956812437
0.02616396851014906
0.01128646058239341
0.16467605302180652
0.07203315453751247
-0.01902863188868813
-0.0016545053913692494
0.03077040572263541
-0.005431792938911643
-0.09280620356209417
-0.03486538543147458
0.0012581631757130614
-0.03672655602836238
-0.02591896365777309
-0.02300973570129422
-0.014855561534871078
0.10276927895235885
0.03054619463846311
-0.06303260951257789
0.13654205704659148
0.08937282560788071
0.004331733857266511
-0.005725794736985371
-0.018505652920639055
-0.029616837047619998
-0.07937762109112562
-0.0141397854460783
-0.0352660986710696
-0.0019163687876287165
-0.020884191398171832
-0.022655517075640806
0.04278028876735627
0.01583773201712263
-0.06714499805151221
0.009720026554240441
0.04995660985386547
-0.015026133606109238
0.010853854679799008
0.008237995979216138
0.06266460956250071
0.11778238505310905
-0.010230795342198748
-0.03347168830378662
-0.04705030411730638
-0.05154287003125997
-0.0014157191728580401
0.003743566563498874
-0.040844894668560214
-0.017481359785309642
-0.031502040385012815
0.0009694775876823586
-0.009124784673458269
0.018296768274735083
-0.0030377035284203024
-0.026007278711054457
0.04358915012588834
0.0762572692041475
-0.002526787578737598
0.034133503013262956
0.0019020639170878244
0.009338265613653017
-0.00045543987385654005
-0.022923628077911793
-0.03879116358426311
-0.011542670738268375
-0.006618833814838273
-0.008888332474801669
0.008740420343512235
0.01748341655919572
0.018581870016267668
0.027659158554450416
-0.018669995480420934
0.06896102969801025
-0.11428945882399245
-0.07713258443033619
0.04873778076635125
0.05027204968629323
-0.012879211069089147
0.019504542120697993
-0.012701455240835829
-0.021916541642043166
-0.017301974182692897
-0.0031298798404090877
-0.03627771884617419
0.009598760538891665
-0.0018346814311886183
0.014095000320707828
0.03878720728978502
0.013425432152101333
-0.034760606274255354
-2.5540813601582294e-05
0.008649162006566158
0.02585185133577928
-0.039815701442637685
-0.025711684806209407
0.07781854202753682
-0.051419660335933814
0.007806749929147879
0.043763322894982866
-0.007487946819392846
-0.01547067713782051
0.018692024335883788
0.06366112801847662
0.0236047038124031
-0.06820264010778063
-0.0065053532543551005
-0.06052444077476628
-0.031910748123436736
-0.021710061973702934
0.06599590228921019
0.024642101498645815
0.018019690671235912
0.009845715381370962
-0.0016443833478699374
-0.02852553044681755
-0.0386491465644785
-0.043892211014912016
-0.03881436743377648
0.006548973671244872
0.02558019397976772
0.06525706336650217
-0.009021757704466763
-0.0046549786663523714
-0.022238283397554046
-0.0053002616622018555
-0.0005092597656455273
-0.014139178511644925
0.05524815664978232
0.033341240078703205
0.008612557424479127
0.005916545221524438
-0.013479971398595336
0.020448323937348228
-0.01802352624172579
-0.017186204077099566
0.025368387523510928
-0.0001941701257353675
0.0005842645298192444
0.024397745890315053
0.011504181984564599
0.016175602899180276
0.0062964815948067165
0.0002229911084264779
0.03239187031610878
-0.0010602644375382311
-0.0037970370584108444
0.019142711241976848
-0.011599502928575579
-0.015281110254486804
0.005374955742986427
-0.018690027750279815
-0.05496183348475854
-0.0344948472957944
-0.01384530321452244
-0.01179686925949189
-0.0073498770682481045
-0.011727941710013082
-0.04210427643067304
-0.022773425619343427
-0.035903518796496114
-0.004696388870660634
0.004076921695456736
0.009213203116951233
-0.0022491113393241793
-0.018222366727730244
-0.036969158659404866
0.0046309164775103166
-0.020524170805568134
0.07833157692935831
0.06419711064265875
-0.011231543662554034
0.006421586810790735
0.011220827592653911
0.0702989504573622
0.011473486551686504
-0.02933320258367579
0.005412333015735782
-0.03650516942377345
-0.014879567513264804
-0.027320746195333544
0.004406354801274932
0.05011184964422347
0.05852275918278959
-0.024183585651693332
-0.03229948503544246
-0.012194825864548297
-0.05691755047360605
0.027263731789285872
0.12193062782067723
-0.003379158253469977
0.009084136819194696
0.017661734189944555
-0.07151488029442601
-0.07964590476312798
0.036338909096002486
0.006429810456796114
0.08346803864489723
0.035487304896133345
-0.0009794430042709783
0.025381778286358538
-0.019641476375736162
0.00471868357834647
0.02568712182896661
-0.006005904826015938
0.010292133380515494
-0.03669107072296542
0.041673087229006714
-0.17132506131650835
-0.07669140868928223
0.04150674475731498
-0.01026040279682493
0.010309409543626604
0.07142249497316551
0.02412267909145036
-0.02553889733204183
-0.035952738565194445
0.01415933605326053
0.07145839356556126
-0.0035166898187637984
-0.021707677158246806
-0.023285087468324583
-0.024566988489289638
-0.033919285232681784
0.014944019864087728
0.03461008053726592
0.030231718802997923
-0.004000305658319892
-0.025501800031089938
-0.0017693397135165518
-0.014662318010255427
-0.016427358553573582
0.023238794361348937
-0.0021398537119922097
-0.006057912059587438
-0.01156365469697593
0.013349780559857385
0.038317181504190626
0.0177506761630197
-0.014884361178270878
-0.04383557073139837
0.04280660948846988
-0.002317414800090181
0.016982012815128792
0.012752446357483679
-0.0019091097212415057
0.03508136269515574
0.06827279054584287
-0.028738678767907484
-0.1086204524276414
0.03598533276462212
-0.0071604046958682055
0.05698236091967997
0.0225714133591227
0.0003766624294078674
0.009427679036448111
-0.05810414954579055
-0.04099195265646093
-0.013878560846637229
-0.006367386876208629
0.0005847717247134896
-0.030132812033984095
0.015600456523072062
-0.02459840633330176
-0.08429596157180895
0.008528684603749939
-0.024338291397785854
-0.01717599918858463
0.0025116408242152307
0.009262645441909337
0.05521603053126457
0.03585209732115586
0.049036423830757486
0.015215110701294218
-0.00809166989663102
-0.02940855098878663
-0.009043874298292124
0.027618557054642886
0.0013428658756503902
-0.015048419758013198
0.026767592859896387
-0.007747572881922429
-0.010931909522802593
-0.010934999630464596
-0.004471847840417555
0.007611361312449356
-0.004878546051140373
0.0101130818103755
0.01724105165478861
0.07123434256467694
0.030088874624086655
0.023243689885852858
0.008725026390326115
0.010747920633783013
-0.018136579653918565
-0.02352774879140901
-0.014825230784810534
-0.02556198133612735
-0.008700871107241225
-0.030239820302005747
-0.045268031436524546
0.0257157134936583
-0.044044831272106566
-0.019270594881053642
0.035759141014693345
0.014517451944720261
-0.005399151173432637
0.005612622942201065
-0.01773829390506042
-0.024831631780840233
-0.028997728497840318
0.016329812383557026
-0.01507527276766771
0.0007606631095567877
0.044953748589426905
0.019583398307701526
0.012257863227734412
0.04199825012392388
0.0073843833247079875
-0.0963701431233603
-0.06349163376249287
0.010154775327979211
-0.0450793100625576
-0.010486089777438092
0.0008482938142049869
-0.006112419368175525
0.038528721367803165
0.03262547845459389
-0.014725252627210235
-0.023885504813356027
-0.04031192948894506
0.009278498229511472
-0.015421626965091714
0.02008012341409929
0.08664494216743916
0.0014800885893296483
0.012474845683640722
-0.007793005643615366
0.08718883363606147
0.03381007610827341
0.003547756604492412
0.0003317264941798683
0.015787108249663995
-0.0376276650125972
0.1235035010736746
0.0813110664290512
-0.033033732080926435
0.014265153947448676
-0.054358865429284434
-0.004908457846677248
-0.02788760066725467
0.008458627845333072
-0.04845458086047172
-0.005222299112850161
-0.005214812862477169
-0.06457777180954838
-0.07470937308552945
0.0060704883192506335
-0.0021263702675144956
-0.05320860974482725
-0.025410779261541408
0.024474462551280652
-0.0007690828366974655
0.01972988617147522
-0.0007514436211381317
-0.07720641928228492
0.025819718875206107
-0.0014783871574289623
-0.015444296844150366
0.03725942204462006
-0.020934642771344953
-0.025074122674541913
-0.013517642317222932
0.05573554659801158
-0.01462283448125537
0.03532376248363751
0.03533536875879373
-0.002720355366830104
-0.004529650544861344
-0.012198171236934105
0.020860722160869358
0.040644832754654324
-0.03653464545110512
-0.028243660880851233
0.02413818056617465
0.003113368637403405
-0.01684107804099853
-0.0016083064359865176
0.05778835754619842
0.014044787928097664
0.017387569192394186
0.02771500257104201
0.015049227657708943
0.01854072521556128
0.0020639338974670182
-0.03885977338451426
0.0805009924316365
0.020897830280731042
-0.046264779063379106
-0.00348995489867773
-0.028287471597199975
-0.0051137839211356255
0.0032436046444446246
0.03422899237276415
-0.005694494111878109
-0.016238802948806797
0.002876587676282625
0.04124217286071651
0.01114994142252991
0.014534288580245669
-0.033423471485087106
0.005350837060181921
-0.021039471285845466
0.002249007115445114
-0.00046611433883464237
-0.002134614818951182
0.0006026504333928643
0.011716003200319094
-0.0036414968308864813
0.04771149782923943
0.018964579367953524
-0.005112370134621322
-0.03821031940779367
-0.0025606144509122417
-0.033213313856898775
0.00646227414231771
-0.18001010572595072
-0.1408958913925775
0.020930833539999135
0.012213880163063646
0.014623237069424345
0.003865096194243932
0.08851184820021243
0.03967758425005303
-0.005902880816278136
-0.0007438238873315325
-0.029863595968758695
-0.00022374373489895795
0.023934396178227766
-0.00029479027328306194
-0.03285537829056801
-0.0317715918811949
-0.04262445627613088
-0.05446247978263175
0.021429130837006257
0.022037512068066176
-0.014905705152623136
0.014859183781342756
0.007672452933664379
0.024580428366752064
0.042816730355199686
0.05018472826686498
0.029964744356882036
0.03924576581126381
0.0006371687913929435
0.00753813741541551
0.004230382923867612
0.02880003910834583
-0.003189995043630983
-0.00017623838554429715
-0.010060234131934262
0.01793777110262249
0.034708810792824694
0.006967651879058855
-0.05572665995462221
0.04099040632725273
0.04187630243929298
-0.01756160350427893
-0.007920259939864852
0.024382214056688643
0.011112663805265478
-0.021339487724678606
-0.018415272275257227
0.025216361042913804
0.041121061643172696
0.013345454975309527
-0.0070971509769159925
-0.08018399210441178
-0.09253914550995533
-0.0747633450392778
-0.06096836867236313
0.03661978071432337
-0.019912511014123203
0.019372803501767635
0.06702265604506313
0.016321412388487423
-0.021123237340406872
-0.0373628187702456
-0.011853978070590823
0.029467178321147224
0.06544575713282487
-0.016433691495863822
0.02541433707452733
-0.014840925836657083
-0.02097284219083715
0.007936845399823764
0.01479386727133716
0.02040327184552644
-0.13689868158184557
-0.030779735253088317
0.06816438503499077
-0.0091724843718947
0.03300168168733243
-0.004352638564449835
-0.11805350228040434
0.019384710330094663
0.012191735598884604
-0.030154350544167416
0.008438940471955422
0.057678777432270074
0.01450815113674932
0.03883048678933293
0.0072014473991175495
0.026684353803583277
-0.0866358525169014
-0.11006758940454094
0.05068034260555447
0.02174284206400868
0.035269010033683754
-0.019299562046836347
0.03617007794864563
-0.054738876256982906
0.012524334690083126
0.06883063759676518
-0.00620443539609956
0.00994224553781138
0.03900330809479332
0.005269681858310383
0.15560120074841546
0.07113715084756386
-0.043915889868295005
0.004526319075006209
-0.011248452385197569
0.021149372607578446
-0.03343022175885232
0.019482758734638665
0.04468463999982907
-0.033025426048638576
-0.027035164742822814
0.05208282409872633
0.03469474837904049
-0.016968383706395838
-0.019891829492622852
0.03188093326402449
-0.032859883582483915
-0.084690007513002
-0.0017997585047882848
0.0009014108949851958
-0.004914789381347692
0.06330416040484813
-0.07966106504743534
-0.2175593153741221
0.031161602181993132
-0.11696528014927383
-0.08166910634709526
-0.021315193358664927
0.008799096892586507
0.005703719594243496
0.005284777507805577
0.011111464677926224
-0.0232800217455742
-0.014101659341716229
0.015992486558710918
0.05275508116441956
0.08905809937276886
0.01367112486730249
0.005674137276316773
0.03240536899093135
-0.002679650176531654
0.061576515165700334
-0.0052802417395176856
0.016847109900124273
-0.01511759792719708
0.07057173567725357
0.12616043866545046
-0.021003179400983132
0.019478381613827714
0.03243827639167763
-0.02626653316494058
-0.06088354991087683
0.021198850161755302
-0.012167334930696858
0.02545975568103232
-0.020543862269102764
0.018580050335623606
0.0013405378170631916
-0.03462496104120808
0.03188408080004968
0.006743002609297093
0.04309921980332758
0.008476607157611107
0.01054127607044707
-0.014756901192912475
-0.07050338819097034
-0.14688050164419197
-0.0723469832500656
0.034931453845965174
0.01234482160044947
0.017527536701759466
-0.020305662513779594
0.011171371050521257
-0.006512427950955903
-0.019470245514414824
0.012783686826042659
0.008702814812229625
-0.0032071936557687693
0.01537646852104406
0.0037931522485642787
0.012446290957810498
-0.0398079786214391
0.030492288525854703
0.04001535365708329
0.04650476486425212
-0.007688330563529169
-0.1224069868606645
0.009878502750587218
0.004608417120338183
0.008840676774230801
0.0012634008195427258
0.07666306131366282
0.023371797110685825
-0.01691475771850679
-0.03141243243798694
-0.010815046274658426
0.01837749680757467
0.08156399280607401
0.041646170152821585
-0.03372927297724438
-0.0018055469302967195
-0.00350415451673715
0.015399313585891366
0.021596528343373556
0.0479177636412684
-0.028446171645527075
0.010650888146936335
0.005921148825363043
0.0494830564209415
-0.1331670996327142
-0.1779430245367367
0.03213642181369607
0.020489264181448856
0.026829688077613482
-0.01198388813702962
-0.004813758331678611
-0.026609753323341243
-0.00874354825044214
-0.04397769100770918
-0.01625779119841377
-0.024465621763533566
-0.008089075862635233
0.014405001828043905
0.008941867200857465
-0.08572794076609501
0.0011056507811936258
-0.027510180958508875
0.018608480203895706
0.03139280924821073
0.09865927498666742
0.0380184535721525
-0.03586325224724125
0.0038662320556425195
0.012709273486399678
0.0294942126585344
-0.018258415289553208
0.01336273856076422
-0.035142215135812865
-0.023864131373830966
-0.030572102996623513
0.10570921311243527
0.0792993640920199
-0.034356166332660414
-0.015029320630709886
-0.031967401407895286
0.06822915550596913
-0.011810083130874238
0.017113488073289298
0.005227811083767021
0.03617933753383135
0.023181201883352286
0.04128290067251245
-0.01551564586892449
0.01388312122786387
-0.026936697072145063
0.09103542334625526
0.06797782612108165
-0.004482376052753977
0.03405505958227248
-0.022767932033536088
-0.02277249958812591
-0.016201690820458175
-0.021222571509223447
0.005770402671353391
-0.038063878945816206
-0.06575952756617535
0.04513322096539908
-0.08330170534590824
-0.035943445586332695
0.005395456590093815
-0.03157279981387954
0.007355405288724732
-0.0031666624303338495
0.0360593192456033
-0.03790466410577567
-0.04970559457998048
0.033043930353688064
-0.01052945963031664
-0.03592023853972652
0.007906302792609031
-0.0012606264430510934
-0.039283962826381455
-0.027956266895211846
-0.18420505718394165
-0.013111937661939983
0.08222269148973682
0.1117825008750967
0.020528780881998627
0.007860108220405051
-0.021906157044222267
0.01726683781306883
-0.0065899407498740655
0.05059836145873139
0.0245669812222169
-0.005636650101715972
-0.014966454888459038
-0.019895041992830178
0.05671215705800048
0.07154622266387518
-0.04496806253831967
0.00037471211738386394
-0.019676395851994294
-0.008585118185617639
0.03019456945426257
-0.029725475737034008
-0.004620441298904984
0.05663231842141623
0.017597397643208116
0.029979685643382638
-0.035400207205871316
-0.03286826042682029
0.039892000730945655
0.04583061847122848
-0.03455663399095335
0.008151390695756742
-0.07595263486677918
-0.04133217606392158
0.01038388648755992
-0.015378405009603607
0.0022840250580250087
0.023400383367903944
-0.005723676151366958
-0.014767638938747735
-0.017502163035421202
0.002344173395091976
-0.02100086331165509
-0.04386126200063265
0.0538143545543169
0.028054629230160052
0.0025331752207532836
0.0497420955769443
-0.0002982003131671984
0.011842108289469744
-0.03368589283417389
0.023293852713496113
0.021780942636004188
-0.04210168620858074
-0.0388946960230843
-0.03233586602923574
0.01620282030593497
-0.00216881243586531
-0.020794593071227826
-0.03744589285446363
-0.0623185139421375
0.005113953412324542
0.011616369811393842
0.03490460713096344
0.047940949660181725
0.0592754176286959
0.10111843068015142
-0.02676342272460149
-0.04139263022018163
0.0009257174090628342
0.02142665278358803
0.012582922948717141
-0.0244055019531045
0.02113899056639304
-0.02354596779243014
0.05291886163874967
0.03964149732680697
-0.015963815073649995
-0.0012518066388241438
-0.0033200273351448586
-0.02617090680303508
0.005510576308113964
0.004856599993105663
0.005659373014475974
0.0010742212155425252
