0
0.014325677691661872
-0.015115108139483307
0.00409817899467699
-0.024639115753494
-0.026877062556801955
-0.009191216135998857
-0.006327362160920095
-0.013418031575581451
0.022037759639171362
-0.02331189450283454
0.014946502940115312
-0.02200464042038545
0.008575548528409147
-0.0054135616221392315
-0.012120655978595836
0.002303198168499054
0.014387920011603713
-0.016849493008816163
-0.015535976510982761
-0.005895200086935031
-0.04998369774600911
0.013548862862537077
0.040283553517135355
-0.019134827363053854
-0.0024861857581228615
-0.005935208822383422
0.022440447866214942
-0.02253182807271459
-0.007450618213376828
0.0011684479980402747
-0.020854727295158873
-0.03015434420765061
-0.006352799216088429
-0.005767804972100598
0.02984611152249273
0.01862180340792066
0.06536838332210533
0.16737750365310594
-0.026719009851653066
-0.015639950974725397
-0.00356154009399322
-0.015994755452489216
0.004594904787942506
0.004923806270120806
-0.017691566297067703
-0.014351222306594138
-0.002934236419375034
0.009442252193245357
0.05054353590448997
0.032687196088096795
-0.012696657800427667
-0.000755673410412304
0.00818732770842188
0.06729372831571755
-0.028180043792194492
-0.005536791047363124
-0.012152822848922476
-0.029048570465743107
-0.02786688612424261
-0.03446319143541304
-0.015664041414570874
-0.01185537226152676
-0.017607056107100814
-0.014964938753862907
0.0022991661779733852
-0.0033550993048278473
-0.04224802943198078
-0.027580993823196526
-0.03770326371342376
0.012192587880682209
-0.06309539111073406
-0.01796072252593192
0.1115205955635474
0.02801783871517042
0.04737151876291067
0.05377494428966915
-0.019581199559490323
-0.007600769368881596
0.023673898771399502
0.0010841058736102596
-0.027552023208893266
0.04510452076095268
0.0525883777605994
0.004787628591310139
-0.03964905242952325
-0.0021893633457669755
-0.018051821125301418
-0.016868002995332972
0.0229423096055224
-0.003590869841977869
-0.04657864633963369
0.028784509743991223
-0.004435316758978779
-0.002975351947529503
0.02826811741805188
0.008953046695187789
-0.018858453983305157
-0.0027680684537469227
-0.016441290161166147
-0.05044963237993866
-0.024851161656216238
0.006671555653699415
0.04936969203227005
-0.020961010397704313
-0.021780661634054614
-0.007974199644751573
-0.018438631758638895
0.01884654139464654
-0.004832755305126351
0.03333503318359181
-0.0044753328956781335
0.01446918388187039
-0.07894785319313592
-0.06733232569536012
0.026178885560806713
0.0970555220995487
0.029897214664374346
-0.057225128008702386
0.06120989259771816
-0.1064111764737673
-0.03592280550218096
0.011456026226628325
0.02079771596464057
-0.025861063678984962
0.03969679814315374
0.030177789015778285
-0.006572622458185439
-0.014645793314566577
-0.01926763492785418
0.07196402519775093
0.10067447103019518
0.005425496517998972
0.025418854067817426
-0.018092327535951296
-0.036935680827884544
-0.05037176485610504
0.0032769928184869547
0.03946917533086274
-0.04078444014865138
0.01120046212212378
0.031933485100927035
0.08566049232870346
0.023465633458100977
0.004971468955914435
-0.027717436773235068
-0.01567839920197446
-0.02215617360619425
-0.01624755273662349
0.04086092220128845
-0.010357240037583863
0.1106961484867273
0.008230259370870166
-0.035369873975242876
-0.015551693467863212
-0.008917746237195542
-0.02899046793321966
0.002729612279629863
-0.05771018168207013
0.0010581225637620493
-0.10028134478899103
-0.16539385161421277
0.04566689841004489
-0.017082254507438492
0.11691676951073247
0.052737416077160586
-0.03125183633802297
0.005696312911251819
0.028742179062262757
0.03090668327782332
-0.02867223482868561
-0.004015476466260994
0.005455748602359637
-0.020416322414577127
-0.026512775058928757
0.0010581627719176236
-0.041484156128845005
-0.11051291043182587
0.0020946844347330593
-0.0041808382761567954
0.011859049162143935
0.003619021664496171
0.018322169673676045
-0.0023344678426345444
-0.025480085969164352
0.0002816245614921781
-0.02685978525003974
0.001953463216905127
-0.0041267916682241335
0.015218863674580687
0.07709609611086035
0.0052537530913082916
-0.019299578369501153
0.028888274227526895
0.0012830604394391593
-0.008962918327143892
0.0009023628814811151
0.006102581388594432
0.007845020744453179
0.021546625687243717
-0.029019808636324303
-0.043560263622669425
0.024617262929536716
0.13355742989049582
-0.030750175225018706
0.10492460521123749
0.13709847811978
-0.06884198481797274
-0.019178954795647025
-0.021092858816095694
-0.022508047565007707
0.028278067240603513
0.05036400547617272
0.03440625133820767
-0.0618447397326045
-0.0025501279948568997
-0.0490263234328773
-0.14783452532260954
-0.015744622891082943
0.00983259823651456
-0.03226398630921843
-0.022004875823652535
0.030126502794417673
0.010322481896937971
0.07903855045599835
0.019716418568060876
0.10147057067703379
0.017370224203585267
-0.039649604763014414
-0.03175090514664251
0.0014566849448895028
-0.014523869874429595
-0.009060033129081132
-0.0014443895650856145
0.06649017628950553
0.0007749432401484628
0.04288325035806652
-0.00018029371031305088
0.017994503434005712
0.034391706172993905
-0.01312821745536392
-0.0015832009367476737
-0.13067198471879013
-0.057223596989327365
-0.003295772517585598
-0.02553550428134164
-0.008858313056327222
0.000736270423178607
-0.04762294651927503
-0.0631641795768473
-0.005258797373369562
0.02935091564836602
-0.03623509651503095
0.06964556211520617
0.04789336434947551
-0.04280612504451725
-0.026934237035033233
-0.0478217800978285
0.006524712786125086
-0.005918604150741375
-0.001685552025884913
-0.024742076645355777
-0.016594515122450935
0.016051840086407042
0.049484262928630535
-0.004621079361555158
-0.01878431332873969
0.01691120063966087
0.026293332771801063
0.02657939571514152
0.017825069818673562
-0.03732080538097884
-0.04090449808307749
-0.013298925030135295
-0.004621931197259535
-0.007909150084901865
0.07701139351684447
0.04432458402677363
0.06417727849455016
-0.019723893933176924
-0.05426433176206383
0.0163690441974203
0.012235356321634343
-0.08857833048881308
-0.056002251560898754
-0.008000124165153718
0.123905081357305
-0.03960298161245568
0.1601827247273009
0.06445329155397168
-0.01977583707160446
0.017116759667907804
-0.041327968051805955
0.018589854932599462
-0.01892534904214139
-0.03034025625432831
-0.041500464765802526
-0.016750367567005122
0.011712192002462976
0.01391608838094927
-0.007597144598935335
-0.016449080370901363
0.05570782989510738
0.19778334996668756
0.01565239854509267
-0.0770098260479135
-0.04136898747550663
-0.016603702824633738
-0.02706865685174349
0.02787194111438545
-0.03971779132534383
-0.0364062118278947
-0.02327627148219868
0.010435957247779817
0.04381789185862734
0.019738322658985643
-0.005120575628270996
0.014307265564360563
-0.010644608744741536
-0.04973908887736626
-0.01162842381109716
-0.03137442852125423
-0.04623699188265666
0.014642344492077611
0.01848734335335656
-0.011014143994573657
-0.03829676922107524
-0.0201765452599125
0.0054308477575346825
0.03999133706115475
0.030968036528065453
-0.00033668442693527757
-0.03393246933029965
0.011864969733045972
-0.010906281216670722
-0.018954996390576354
-0.010590468896632363
0.06640086004297417
0.005907867969127158
-0.1149184555497268
-0.002935620804246698
0.03233589346980001
0.059242339508160796
-0.017576358754114445
-0.02314293134532221
0.004734865203317152
0.043293864630599144
0.002005847143645546
-0.034002677395115234
-0.0632045384939452
0.00458380341419946
0.012610414021030126
0.028296732771374854
-0.010573639867979405
0.006265282632912004
-0.008340518969434638
-0.04740207441402557
0.0012181285540966696
0.015736991747662535
0.049230241670991666
0.025574056190395794
0.008783574431235104
0.007679704033820342
0.025986140285558564
0.0026495275765556826
0.03385673265190065
0.02012579787691856
0.02355421471054411
-0.006389156691352404
-0.017226102014751613
0.023187820798036704
0.018472448840483387
-0.046468967337187125
0.0096776814016606
0.024790840442960333
-0.03461753962824171
-0.01877484928445225
0.01238387169905176
-0.0083502002341747
0.048050616925308556
-0.1455457836998905
-0.1250888402487047
0.03988653775205098
-0.0029352691515578764
-0.019494178766166877
-0.020430026570420874
-0.02265993273126221
-0.00035392840235483575
-0.010873551505351617
0.002186096526323502
-0.00534002986422508
0.057305291965842726
0.13272890531142192
0.0009479584832469705
-0.03681289954792895
0.0008340609362580323
0.07192520525215786
-0.033253106154178695
0.004077636697117486
-0.02571978352576279
0.036525101889205956
0.02121274026679578
0.010768834315940607
0.027221667095898783
0.013749498274735997
-0.004095539161411968
0.03337095357541231
-0.04912095211994509
0.057648194098339454
0.03746054362435224
0.002775172095204181
-0.1482275494982015
-0.0810053349645214
0.08645345164161729
0.0176304740716014
-0.012552589166455484
-0.0207728638511595
0.009495779030064076
0.00883951061439598
0.027970959037863733
0.02800691474609883
-0.03526075378081689
-0.022926988488519026
-0.018830668952099363
-0.012781531175400975
0.016188322751339766
-0.03082053465826012
-0.14305880538458285
0.017351171273454178
0.010694019085945259
-0.020011624258506822
0.0018216200026587809
0.022794164134579777
0.018979007581827353
0.006421260974645901
0.05198399563491031
-0.014621545264279773
-0.040086961551007515
0.037064943335870404
0.049554824601563234
0.03815023625324165
0.0015910984852794364
-0.03180927517083305
-0.06304502479828225
-0.01788722036052658
0.002624164435270142
0.03170423866084476
0.12955925896739034
0.14466304800016486
0.052600623541227354
-0.04664017449961984
0.004966227302315334
-0.02177605575863308
0.019923176164418317
-0.024537914112452767
0.01869086170389904
-0.10249969494266334
-0.09902761745693135
0.03757482482038154
-0.03962847231420132
-0.06063353338333108
-0.04624236846084595
-0.10312184510311426
0.021203204703279993
-0.016464157953666222
0.012283715276430534
0.023771902433942237
0.030658464079143178
0.031012229897835728
0.017904415620343422
0.044686665563164356
-0.0002024688275045365
0.029457750433963287
0.009888731956832283
-0.0024437207118589337
0.0016244902955509881
-0.00593191554853036
-0.019101551565838225
0.024017423643344266
0.029666840203625013
0.0073281748911468245
0.011432458914957432
0.004098809721070631
-0.02101298016546768
-0.020357602880944018
-0.014953282194951768
-0.031215915618124958
0.021164994319221243
0.006596604713526235
0.023924423536258326
0.011408031021088137
-0.02289983644942386
0.051990045683695155
0.018006969713781195
0.0011751914161933106
0.017276275371272975
2.5036329384520685e-05
0.003665060463996928
-0.02319318733037523
-0.0006273861817723307
0.02286422582525144
0.035107880001482704
-0.01027976213927703
0.03547175585461348
-0.03744007583913861
-0.105585838970076
-0.04485781059530441
0.005603881234565621
0.020629604692342058
0.021849349717361893
0.024450077903354798
-0.021278795935920865
0.027734672112052078
0.02312265123854481
0.030100638666589685
0.008661838070693541
0.0374115875487354
-0.020356488007799795
-0.2754997324475032
-0.021880445321595565
0.022174572727821935
-0.008715555487387646
0.06472687011808398
0.025355153502583303
0.03245007894591109
0.02011485758921445
0.008999758916737833
0.0329480290643213
0.040559249934979565
0.057526300623589835
-0.05427987620517883
-0.01169171593732183
-0.19438299556226982
-0.09174637977359021
0.04153943475479191
0.003630700285126422
0.002466898672668411
-0.006580865873022917
-0.005870548603729825
0.009350048063601705
0.05107334739128598
-0.04588357468016925
0.049330919539587174
0.03160668789052166
0.09562384811277702
0.05087090231425528
-0.04217785131989533
-0.006516607009008232
-0.0017472686175838909
0.0025689526507232507
-0.0190152071280166
0.009972892457050374
0.002962064955382683
-0.017546499132243324
-0.019212466688305938
-0.041124779383102925
0.0013421728874325992
-0.025551775453334005
-0.0005512272524148797
-0.02295942177203269
0.061629264392291855
0.06336367452715799
0.002205438395906018
0.06285552566258124
-0.017128507173212442
0.006891837438854251
0.0013933613163275526
-0.009524394349181094
-0.04963885593611461
-0.03750572368968898
0.019299701560355324
0.04762658184914443
0.018009117274280593
0.02415410747515254
0.02285813881793184
0.03633469696222124
-0.0593598445530148
-0.051435024721373214
-0.0029239350501987864
-0.01315769790808963
-0.023015171964762878
0.00594624426424382
0.05792572351014107
-0.027603997557345803
0.023062106398741213
-0.04621477388821752
-0.03244081686193745
-0.00721709451968889
0.004831989115145501
-0.01658036715775459
0.016508274190565296
-0.0294351038132241
0.11684308227670791
0.11563794342825057
-0.009955911191175322
0.013309029086234323
0.004781996295958907
-0.008275107481914378
-0.10182571559164634
-0.014069936665032458
-0.02038487978909442
-0.01910768664181502
0.013178043702909628
0.03967279084048857
0.024123699537550225
0.04288161538657332
-0.07576946463357788
-0.08045491351595994
0.02031467909345759
-0.026424290622611417
-0.003561039512960425
0.006869106418676185
-0.03884092996136321
0.06172412072675025
0.006952795172920487
0.018915480598325665
-0.033770399550027294
-0.001330514843255189
0.055848096396651475
0.009976999555739816
-0.02364948807399219
0.013687224004439514
-0.012349768046052523
-0.013671342734992008
0.028296895228791374
-0.006000546825564905
0.02324655201223961
0.06514840458392315
-0.01866779893070602
0.0017605234910158141
0.001278431352168942
-0.018092503874174416
-0.06765797683300696
0.056379794065422456
0.023158279527829846
0.01967575575901651
0.01838274718759722
0.023877652159421742
0.0364165250370393
-0.010083047492805908
-0.025850327653736918
0.01462936159548799
-0.10926694097914764
-0.09336269801049472
0.03238735495185897
-0.012024687066957243
-0.021796821997676345
-0.030429945086479816
0.03955591968401766
0.007483527025891987
0.013883135790642688
-0.037467087058589366
0.07378250335828192
-0.1779750549771788
-0.07038917235863934
0.02929323647571022
-0.013308943111201213
0.022237320355933232
0.013480261113658864
0.0103922071741958
-0.026736524575429688
-0.019917269500510128
0.04119448009386409
-0.012070752994499499
0.00897420852137598
0.020622438476709606
-0.005696226729820288
0.029633715926417656
0.0067270357902713095
-0.010357869255527865
0.013426294861659154
0.0374873448063808
-0.009803764370213188
-0.0067167430531421225
-0.007792721358711903
-0.02495941219483523
0.04606948499292923
-0.05114458253254324
-0.035526170883017676
-0.042503599727670704
0.008618158455505967
0.026045479574521965
0.005540475065426636
0.10357899661480394
0.04495146956807345
0.06030098021405386
-0.002963743295767543
-0.004455098841034864
-0.04252779538383775
0.021501262071600757
0.05062537633273514
-0.01000166036367808
0.036525556253528886
0.017760612822501447
-0.012590106313145655
-0.014519027411258725
-0.02029287684282824
0.010857263124580342
0.019759256611222614
-0.01655753874911928
0.05612736023981052
0.052862924196209395
0.0022318150440836506
0.002941003216451678
-0.019891152535877143
0.03263120084356557
0.0058915097215537894
-0.015506555562582331
0.011753489525028228
-0.04101433383472839
-0.02983914557143994
-0.06270194719697252
-0.023001918404789986
-0.0006627983825663071
0.012926278491685508
0.007636095414917193
-0.0337662732570878
-0.013121399205006233
-0.016821804860290057
-0.030335170852969787
-0.01886156584710665
-0.007914724355995297
-0.04725778349235177
-0.012030789336821276
0.02927008616521551
-0.04811885604432009
0.020921643425331128
-0.022398036722683687
-0.005973861952788015
0.10089501260873915
0.021608771808032768
-0.044393719337094524
-0.03929730494095933
0.01031910480352961
0.011000052315712236
0.0010356021388908854
-0.003710892233161581
0.022817448182001043
-0.03705639823603598
0.007125357729897488
-0.015473772921381704
0.0786175737495086
0.05328430415069189
-0.01356699371160581
0.06210458175321866
0.0037732960104105567
-0.015115183946509406
-0.02185679698340635
-0.014685065272263327
-0.028320315227964826
0.0004290915412139773
-0.011792853939224407
0.01092404303302924
0.016498982729516946
0.04607585309241714
0.02472664809348127
-0.017311282223132093
0.04155477214373291
-0.12370549261387424
-0.1008405546983426
0.10853029854684547
0.17768951652213102
0.04083897188631117
-0.014898093838179577
0.048359612465866036
-0.1892246839214102
-0.08442031481219599
-0.011889287854177633
0.018197719858078918
-0.0027718158577817193
-0.07635110252712933
0.0020111277300081157
0.004970741460820965
-0.02498098874645351
-0.0019842238030251605
-0.04203144216362668
-0.059273865073197075
0.01526053719659651
0.01458537208622372
-0.030935130951690145
0.007971627034776168
0.0217281629250855
0.03778789412348383
0.022916464929116264
0.06514894065769702
0.02383725850559768
-0.007986034087265533
0.03186724902028996
-0.012848538578882464
0.012884240411368495
0.044239448789602245
-0.009565585276623868
0.08350197981528763
0.05758369647911003
-0.018227712547595382
-0.02984035192728235
-0.06378705282150261
0.0026992061050000395
-0.01660837087894879
-0.0070754576732143405
-0.010448869627521411
-0.021161183967693092
-0.007985143573785625
-0.04534386339636041
0.004409879035506569
0.013838046111630198
0.04464048447505596
0.0898659273440597
0.01351431605248916
0.0505845960714805
-0.04345849887142543
-0.0038883887361357574
-0.042498810342685
-0.020976151011385866
-0.028040848487018585
0.033092914712103016
0.07070448070016713
0.004590668297594908
-0.020796351748379086
0.018884031740126782
-0.04230025990881274
-0.03627463906470428
-0.0025120624700234674
-0.004774473916758039
-0.00698922371798293
-0.004802318638111674
-0.01034294446938176
0.04412543503505959
-0.03172259217203747
-0.14369719782286755
-0.0009211250763232584
-0.05387005898755833
-0.025418053371744097
0.02315000837380217
0.013536197992659928
0.0031819565838241332
0.01052847696354308
0.02207951868081801
-0.00025482180078131
0.013744357837329328
-0.02251664947710978
-0.030884155267337836
-0.015972623689731985
-0.007735453896888692
0.02965328820093154
0.05752661422816176
-0.013422033892947504
-0.00661864332420249
-0.012230373138870283
-0.007127541202303014
-0.015577948626703073
0.08590852879903427
0.028617978779288025
0.02446614079589638
0.03784908708498627
-0.004494767391053824
0.0009492194442822224
-0.02744443759773091
0.026074110346795933
0.11612068729412511
0.01542342206185749
0.050904643360039636
0.027826700847483916
-0.02236957850644677
-0.029505207216039477
0.052698225819828
-0.02105457889594755
-0.08012036277774741
-0.024810064522419965
0.11014498279718601
0.12325350074619335
-0.007772053292250869
-0.049114534318845694
-0.028000054206883198
-0.062295970379515606
-0.23826531037975293
-0.019236124225823274
0.0016611700572453994
-0.010317309467790558
0.08107039421375828
-0.07288015075552695
-0.1248539309367469
0.07929671481545321
-0.007160710063041396
0.02112728184682061
-0.007560464393765737
-0.033076482167123646
-0.09086775705563849
0.03985802027684558
0.008689070185216247
0.05043373303348994
0.16431087365116562
-0.021994327881663677
-0.0028054544281995645
0.006637075178659637
0.02078803913501922
-0.01304158286229369
-0.04349462080697112
-0.018451843125221388
-0.03918606728213503
0.02489665540817948
-0.004535569545270496
-0.0404595336783602
-0.035225354173376355
0.027781078458502063
0.00824973517149231
0.06666793933062419
0.0991250748664511
-0.018969930608347695
-0.00645111786458764
-0.009816456821834726
0.024757149548205286
-0.031250585165720914
-0.0045205002287126385
0.05034905513623652
0.03761993554148295
0.008681527595998956
-0.023737921962859187
-0.00997094111648155
0.0027497221917712395
-0.22220189687586692
-0.03626892922969723
0.042356198276963346
0.04091516445991815
0.1198859272310041
-0.05747226105939174
-0.054615523807705416
0.013203096687681997
0.01209904658435709
-0.0008614997835469005
-0.02651007671655498
0.0012073879466451165
-0.018029087985595046
0.11725631761574949
0.03420164576619839
-0.06621194937315607
0.007817767801085696
0.020914461853965515
-0.008656869626134942
-0.02563119145819397
-0.004349257392526683
-0.02162436417248224
0.021287663657767415
-0.014235309797363612
-0.028569584224822267
0.045026130204119885
0.014608588830517973
0.06642064288517407
-0.006983590256434178
0.017846892945513504
-0.020741213254101762
0.052456179981644716
0.028812328036915438
-0.040920632033946504
0.03956560014689799
-0.01650295528472366
-0.033920559084809246
-0.07029521106410713
-0.026519921455240708
0.0005812766795786243
-0.01422402216903597
-0.009690306574520951
0.032684230782105084
-0.03867392752854088
-0.01417499619079571
-0.024936329039958554
-0.006022702735470435
7.638073952971929e-06
0.07164673426672252
0.006636831968660013
-0.011890563474498756
0.0034467960433079495
0.005407505087561656
0.03593328376300888
-0.026102642696204045
0.01659122478582557
0.03713158917424618
-0.006550665346666444
-0.03637900998563014
-0.01901163946273546
-0.031400447407704965
0.02122003701925448
0.02052349248450069
-0.06966282464117629
-0.018963396327850005
0.008143475747460988
0.03258437456389449
-0.034408702969857534
-0.00014012263934919285
0.014981375501432833
-0.02656792176796096
0.01977612500542131
-0.03931720590395528
0.11697234095130316
0.10770646613336267
-0.033914989305562186
0.01974706347195642
-0.04010740665108083
0.04311046800991292
-0.04637765036930854
-0.1119980002182153
0.008516724846121801
-0.015698063051953676
-0.010818545192787804
-0.024487233184961727
0.08370702849261286
0.012260104529440504
-0.03062694135950265
0.04163166870516099
0.013094378774574193
0.027494211525396457
0.01643010208480108
-0.03488090715447833
-0.02844032731627167
-0.024999178058018014
-0.006603771129410871
0.006587508128537143
-0.008994002005995873
0.10664877158566888
0.01687837252966754
0.037677012581052494
-0.02187315083628557
-0.010953264173658727
-0.03881387032346973
0.02824212668286028
0.10198471643064907
0.017684293605096216
0.05448177619136268
-0.014234637950622268
-0.04024348532320723
-0.03158320476990761
0.020287057525870532
-0.029767853501657046
-0.11427939273772089
-0.025301546672973397
-0.014785017444407031
-0.058382691235103014
0.04102820828105255
0.008909135509605605
-0.017746007771043855
0.022250792660823974
0.00827698861888358
-0.014749810180396864
-0.0017053136176467406
-0.0468462607492885
-0.06906156625615431
0.01665932171115952
-0.011215844675847936
-0.03934307509029677
-0.0027521283755490046
-0.0017802260850728203
0.004020471342468701
0.09634958312919345
-0.012461453505563064
-0.012506116825622858
-0.020159858867251024
-0.022812174417562444
0.007740759852937491
-0.031573441866115604
-0.0237008970196546
0.07999450303103706
-0.0018738615744767462
-0.025794504847080922
0.032208095335315934
-0.02551692462537945
0.04023387142103382
0.0037060697207698273
-0.028432256424959595
-0.032910164360086175
0.04100352749456007
0.05511834405029726
0.0008455464239597597
0.0132450398161812
-0.00715091674667971
-0.0034920805255889524
-0.004869908898201044
0.014336319928556659
-0.01389771815164709
0.07322525637274518
0.01303408833564128
-0.026439993854037863
-0.02211084849971795
0.0988293346575951
0.03447315890105579
-0.027106068763403067
-0.016295169900260132
-0.02214931477683556
0.01978857660306437
0.09090206773248906
-0.07837083111749682
-0.021930604616304545
-0.01999967506970274
-0.016898412615990958
-0.03013266872571009
-0.035577844366485444
-0.03826083044178178
0.03965703179053398
0.01892372640264122
-0.008506643980015468
-0.022437471597468655
-0.03127462635528575
-0.008467030639646263
0.018166443002835774
0.002365326284380568
-0.017209724945675006
0.04581668170225243
0.08606702051041477
0.022322636540857168
0.01639331627498569
0.007765558855800882
0.0009736701664838151
-0.02497803061662527
0.005394042240576521
-0.002318881649149134
-0.003573790192082056
0.01183771574991229
-0.00919062707454721
-0.03478083898234565
-0.017285019335429554
0.02347221309138125
0.047674934228306654
-0.009953915903709483
0.014945193672437152
-0.012611629948676917
-0.0010431553365152955
0.003521868694254371
0.0070329853084003064
-0.03399704553458445
-0.10433863116880665
0.01008921396289207
0.002869211051342465
0.05932218131649826
0.031614030414833794
-0.01874701008421507
0.023162423617882243
0.00769352125134454
-0.15787747917447678
-0.062138079111058064
0.01441522258480177
-0.001434399716945065
-0.013294786426569827
-0.0443144876299576
0.025602834203089266
-0.020698636339507692
0.012611724493012474
0.014251937195338729
0.028426965635381628
0.08407334472016054
0.03443216840048249
0.03865174035636363
-0.05971218919442281
0.007745206889666461
-0.00925955554430249
-0.013592746512343197
-0.002881789802909052
0.0007658917040348888
-0.014956730346455156
0.037758438148890947
0.03166233262471488
-0.05052203048714569
-0.006591214249145337
0.020938360761613317
-0.01190902151328061
-0.03872429771309777
-0.028542838397635793
0.0033017303906650035
0.013802942870018046
0.000318973922110116
-0.011856281279741398
0.020154655094141806
0.04626838339996387
0.03551284483856462
0.03950833511040791
0.0384361332649545
-0.010971104597122585
-1.8287530213890682e-05
0.003239105678524241
-0.005489709168235888
-0.0016281294893617092
-0.00021958747521974483
-0.020637916432910793
-0.0037538179497907326
-0.012928163329189075
0.039025708007261566
-0.002352696488053906
-0.006634785350199456
0.003963626456881323
0.056227548055911805
-0.00477498744434871
0.016095530010617594
0.008684089194208603
-0.001731689542720757
-0.02220711468411232
0.020327160261849997
-0.0110761476034188
-0.0005584184187400666
-0.0038704198306123276
0.004369264928322993
-0.04797006021712173
0.03871129771564515
-0.024446687691138908
-0.00555009661271116
-0.1765917261351649
-0.053528368976728566
0.08551224052706397
-0.00956205980183458
-0.026186046832715706
-0.0021939189408442497
-0.016619961529015247
-0.023496211541099165
0.02038325802269105
0.06550450071008317
0.018500965280261884
-0.06109948851470082
0.033612954005111814
-0.02612799265770209
0.014204205790807596
-0.002362671359986464
0.031906822100036085
-0.004564122405980205
-0.026040347095699894
-0.012518309348429202
-0.001024619908505095
0.027665711820385012
0.01670021988580704
-0.04425102441404369
-0.019643872192178082
-0.012100757726241626
0.004196094954522374
0.09387725700899761
0.027146496125787737
0.05516056196340151
0.06480287931236496
-0.024610748330526885
0.013297269153271838
0.012454423648278092
-0.029335178081335993
-0.03783030055157935
0.0002538778353633509
-0.01438550176412382
0.019505740684070683
-0.08996439120896323
-0.020382234042176595
-0.03547257710480477
0.05939590783108657
0.017078261655457783
-0.02664456137289597
-0.002883353706458978
0.025448033725951946
0.0018846997368319233
0.0177949611186746
-0.0019441430125947234
0.014644369503766505
-0.03267840605342729
-0.0294385393888644
-0.09171419765073739
-0.04259586064000935
-0.029143509047390832
0.07814269296020879
0.10433257076889561
-0.03989447756937436
-0.038906727405778795
-0.058239654210586286
-0.033690819176067595
0.07242409099538262
0.047571967863509444
-0.06929129401906148
0.014749767710560453
0.009469877395614057
-0.033067007615760306
-0.0606146028065588
-0.008494747437094736
0.014752000634136436
0.03897900315657651
-0.012623185578418664
0.2320408546324011
0.05368863630953574
-0.04094765236197919
-0.0026033072776202476
-0.008470851429434146
0.03946152245411705
0.012015911783260442
0.019159141527445526
0.06496951476311344
0.01924586258208238
-0.054533688519330825
0.011580297137094261
-0.07006618416709244
-0.07066560654635917
-0.04663188087356801
-0.05319046602161867
-0.02399356000422575
0.03971276483482239
0.14091081927019194
-0.01910003647109269
-0.003088479181678266
0.017466590754238336
-0.03285081923127483
-0.03169224682583473
-0.009846368481845568
0.025591268792011974
0.06240866498189335
0.008384705292533594
-0.0313240413430118
0.016376348497489535
0.03251419353315473
-0.004650557498018272
0.0015545648895884385
-0.017886372058834706
-0.002546348386219691
-0.033345493577977905
-0.013365368576328945
-0.00300261287846855
-0.004698252988831554
-0.0261973143425078
-0.03317653341925173
-0.009023595659265093
0.00471694535597799
-0.02399643513526227
0.03909092316519281
0.022040295522367213
-0.044953665669832235
-0.047247176495307734
-0.00786067656388507
0.10865555752950286
0.017649977332377692
-0.03187453639533754
-0.011923148065306276
0.00027018124731570663
-0.019410344248315867
-0.00014403455720475564
0.006689388797936307
0.002534123477318992
-0.01645732317556132
0.0264750261238971
0.010164619154157228
-0.0018907572049953884
-0.024768857546078955
0.024904235906313795
0.004083972669580526
0.005078886311248308
0.009844892878994451
-0.009488951633646294
-0.011292782279190432
-0.0014523656052575307
-0.00893778438309359
-0.03378499795641727
0.04401970497096804
0.02194495831098799
0.06029434858430102
0.04020909925538541
-0.05650678701235389
-0.01786234874911347
0.01614317447382118
0.008442386178747483
-0.016248425718283842
0.005304235104050971
-0.009452759055867838
0.04704080923816424
-0.09735360886390897
-0.12126638536028538
0.07165926857897845
0.007310179512458834
0.023912647928887573
0.024962956509662595
-0.019173511513228585
0.015708315475573727
-0.01057889216279888
-0.04716367709726172
-0.010816213127815947
-0.0061671680551797
-0.04127020825388023
0.0006106820954112433
0.007356546311555838
-0.019128216824549127
0.04687232052246969
0.03145475670402266
-0.0675829745818115
-0.02370284171552467
-0.006579838229617837
-0.006791979108363989
-0.023731114920760805
-0.030511525504870383
-0.027377638393207834
0.028849893030230275
0.03657893214498073
-5.059341247157386e-05
0.025034930613213182
0.0008052569264777233
0.0062301776301845755
0.009284141723473246
0.16741519908920893
0.05799853608724113
-0.03238542839707487
-0.025367848994227914
-0.0073073496113528974
-0.015489085202657099
-0.02971581133122482
-0.017200729170451342
-0.04349757463842799
-0.0361793382938361
0.07302392558744585
0.13098099968371857
-0.005299048677901551
-0.008204667663556833
-0.005739888482653844
-0.013972557383094058
-0.005375936364444043
0.011631159886360444
0.004184387298512248
-0.005165476748903782
-0.0053570064685661885
0.009502854908271708
-0.03199973630363309
0.015135005420746105
0.021201845182539952
0.01388000470310537
-0.06525968803046152
-0.11692890428862435
0.04626006750400804
0.09954793708909565
-0.02898830018167268
-0.04229372654832024
-0.03541574517275753
0.046926645875532
-0.022726647692439438
-0.002295319025524269
0.03904301901571595
0.03562700838318393
0.02158708772409088
0.0170989874099966
0.004124977285856135
-0.05930345060309371
-0.02820411609995591
-0.041875588031207535
-0.009117765308899115
-0.009336929214831102
0.013306074003367838
0.011533530543546026
-0.025575616148558793
-0.0033950695245359287
0.01424000995616961
0.011360266572087406
-0.03261334220293911
0.011242745144111947
0.0036647734609040446
-0.0118615967216834
0.008567113518106852
-0.008137383424340377
0.03556373080634701
0.09356765656342372
-0.02665359747922715
0.008435549439828958
-0.011218320601354985
0.042845209582908966
0.0405334828593438
0.011364369936070848
0.006490227338788975
-0.03452663952783699
-0.017077410714642347
-0.012716766704738921
-0.029878198326221073
-0.00043939580770408393
-0.062380849176401236
-0.017219931941400955
-0.004719703231256843
0.03088966032813862
0.011795005528678805
0.016291590195958543
0.011320939679785277
2.8204416313983952e-06
0.036163318243693524
0.00890450469950029
-0.0016154071761222846
-0.026304253643342646
-0.047769350361183946
0.049525310285487664
-0.0815847962085959
-0.06431965550286385
-0.004188500669185534
-0.0014198867143908997
-0.016620961433098564
-0.013158324054213943
0.002971254519443933
0.003600147381915002
-0.06721954201222331
-0.011921160260381631
0.004722145894825681
-0.016286989722903704
0.0486836752313615
-0.013763688098293059
0.09005327277260344
0.09945657892454579
-0.04918797134658168
0.06794001551970037
0.04233112749211735
-0.022751756254502046
-5.9456442891720966e-05
0.02879633266822633
-0.026611808919977036
0.0485664385548474
