0
0.0034486048203284585
-0.010095925008830062
-0.03630553684322038
-0.05395765536064807
0.006305911618122454
0.03876574458636825
-0.019415306446786514
0.01429326166598444
-0.00917939824911888
-0.010459042541151962
0.00017998621724134488
0.02895457228446557
0.01885486558220197
-0.044544705332004386
-0.007563885094672837
0.07861083911632406
0.07203651544317849
0.05388382652292418
-0.005911392540477974
-0.03583182901795666
-0.034167591818784725
-0.004662713410650525
-0.08209298398127443
-0.024394156745185466
0.07865904684127385
0.023143244378255427
-0.0201454869509783
-0.02498420331814712
0.007720698340592332
-0.03250495400999191
-0.014631314570067078
0.03206539052241592
0.018719248232584744
-0.02312017439836777
-0.012002884452326994
0.0411772354006308
0.04877880146485801
-0.009065701694132412
0.013467434868039993
0.034208631783661125
0.01779907083162317
0.06649206554107646
0.01056602818446242
-0.13373509658990165
-0.10839530420385007
-0.0027108442829261066
0.007313612893505403
0.020634431994456904
-0.017864877273805254
0.014695719707811182
0.013730674901826292
-0.015174013578463324
-0.02691921889603884
0.020361959743948284
0.017584082375976157
-0.046209795133295116
0.12833533182889212
-0.08277996388432092
-0.1154614255520952
0.042925106083435915
-0.05261390250531666
-0.003391744762630426
0.014092040844315598
0.011313095153379867
-0.013109603019978105
-0.025611894391336303
-0.036805161811965754
-0.051072321113020305
-0.007859796799261565
0.016549094051565336
0.031448168770965845
0.1395273852547086
0.1750628364280925
-0.006405859426166544
-0.015584856164519363
-0.017704515404618353
-0.00424349850303501
0.055280374512755664
0.01246175723889108
-0.0016356298976459313
-0.003950916144841215
-0.009569104285684913
-0.02470298534719965
-0.019966787481611275
0.027956844160367384
0.009456817382109376
-0.03810760096192475
-0.04200759689301562
-0.002152513156153293
-0.014104907975747096
-0.022374880726319938
-0.006943393994968997
0.01279433123152233
-0.06915553923243009
-0.11675403885531525
0.07060824525740392
-0.027326536134999604
-0.06910173440620496
0.028822089853362175
-0.00782094664705421
0.02423732644057065
0.0390741943934837
0.02420323466418924
-0.024234155323072888
-0.04523492334221384
0.04040348548241021
0.1756389214742321
-0.03288322249963785
-0.03793207087697921
-0.06302294136398678
0.07592166302301943
0.05178863166023817
0.01595424204122641
0.0387100322675524
-0.03243416014167019
0.03429248888452226
0.052931184816250844
-0.08268939418430872
-0.20838310157696785
0.03802059907635182
0.04461841238434834
0.024626058250895654
-0.03895185645327513
-0.03227401305360873
-0.028974153073916074
-0.027947516915228687
-0.012173520983449232
-0.007845146100443231
0.0017935016387321816
-0.005856183752190346
0.002207168969390891
0.049183013872929
0.0558333435211274
0.12019955900006438
0.01527761363439721
-0.0006851989163846265
0.010457348337400287
0.03142469851563593
-0.002779050516874658
-0.0009180333582651073
-0.0021272542082254836
0.009219568180526019
-0.027769016229021826
0.0032804998462215027
0.03126439655662692
0.01582451020522363
-0.0021137995496021975
-0.007116994175436895
-0.022607701498141952
0.005649519510749431
-0.013916640666762138
-0.02078215059422556
-0.001600780775922566
0.01855954614209461
0.018127971206085475
0.015981887386717197
0.02052775752838324
0.022918196059240253
-0.012234832230566813
-0.025970786561557824
0.012145608672825511
-0.13312862076947427
-0.09772725695137319
0.014295888037844363
-0.012412287786400435
0.03279375917466804
-0.026542998726659356
0.019203141488242242
0.07009712117511732
0.010223206614142529
0.022843715942574644
0.002108973717379775
0.008429939873478356
0.004222977572240768
-0.022391980394636468
-0.03830917459699927
-0.02196129842160021
-0.11106034236065147
-0.08940916327252137
0.04969693554351287
0.010066131968372062
0.028548010320436423
0.05471935716370343
-0.017321244650167725
-0.0092103848411318
-0.01602072299836736
0.024696236149248655
0.02851479923591845
-0.009386577037188785
0.04463953897254296
-0.0005126831998130578
0.016800981444760506
0.006768736517497586
-0.13639482316869206
0.028941220839682674
0.018410607318760767
0.033893836165402605
-0.01899910816281075
0.05517772725526648
0.06136330718976084
0.013132384705666212
-0.03142336557297164
0.017713555892084808
0.0022036202944601666
0.09800947342602284
-0.03282399403922648
-0.07518413903911556
-0.03780815030189147
-0.024002444117745363
0.03366111380926241
0.014165429009880754
-0.013061161189851043
-0.035802492879916575
-0.016905143447841633
0.0026753425372297674
0.03195468716920392
-0.010662816061981377
0.0007098611933124496
-0.0045097063580570255
0.03933925397945791
0.040374873096384954
0.021769952493288072
-0.01254150778264412
-0.04959294289695895
-0.012234981971345024
0.033019151803541535
0.019544760586044454
-0.008655670137396232
-0.0010086272437674028
0.005161008139643553
0.014486722379489421
0.006819506493905173
-0.029300356045001925
-0.006651600183664141
0.03435831678570395
0.04768771963641652
-0.007151077922212742
-0.029676921523959284
0.0448282836843529
0.12270041803302335
-0.01492673724166523
-0.14793585234161433
-0.11461545233361804
0.02788915943921101
0.007437647795992316
0.023037506373933953
0.02856388328334926
-0.005535674786619412
-0.08398582261011611
-0.013066316797037913
-0.04654558757512379
-0.16191861091566223
0.2196635274200467
-0.004218263420448942
-0.008986577313499366
-0.008361896296471417
0.013496379109695818
0.014902593507356461
0.0103963301967525
-0.026292972891882635
-0.005113199605046652
-0.008392412198871527
-0.03321915127929407
0.01769049638404373
0.109983414284943
-0.019841867458013314
-0.0077221318316947245
-0.009344404344068606
0.01056007216584315
0.026166970137949233
0.011427655931401869
0.0012997537043103362
0.017588582055801695
-0.013910232097839125
0.0066232048281814546
0.0032568114613255065
0.007680209135292322
-0.08027333076525668
-0.06427216039555392
0.008699025993125489
0.027467410007406084
0.05406511228764112
0.014287016360839499
0.004983121065386543
-0.041525922770028666
-0.00456735173951958
0.004023018008636121
0.020708225030380282
-0.05295962044407211
0.016235264560118604
0.007405463797033681
0.012919316664668709
0.012515839302781311
0.011700297628989904
-0.01565812886017058
0.019487893185792894
-0.012082495548072059
-0.03002586828254228
-0.09904581579025185
-0.027445977103289734
0.03571979256892287
0.0041384647049668944
-0.01604833136961373
0.015682358662655212
-0.011177917571517641
0.015396499994784069
-0.0034799361998225286
0.013033945225951036
-0.01097213294634517
-0.0067344402940503235
0.00561593585001734
0.048788145279514514
-0.027637809745131272
0.027151668728878576
-0.019565506090215366
-0.03151468734033097
0.022675218407761065
0.12444691127232158
0.010037333874252114
0.0020998142312313697
0.06722938372977554
0.030490680422230527
0.0323034161851139
0.004404709371669182
-0.018021127557352985
-0.005650136037370778
-0.010797375177571985
-0.021170934210788014
-0.03394726226503594
0.015086573141470149
-0.009395310300077883
0.002796587227586581
-0.035763922238883826
-0.04717939233423548
-0.07359677384890649
0.04154211106273677
-0.015475298475884544
-0.04267829569785088
-0.0299293534585461
-0.0037906714614830655
0.021387477287987008
0.00911359626836663
-0.005115668960854269
0.020660174088365412
0.04594903116387341
-0.013133438138077741
0.0324612210824794
-0.03942144853156609
-0.015410819290329203
0.09689585339707904
0.027000078270529818
0.036430216411254754
0.05920640023383703
-0.001266777817911174
-0.03723662563589121
-0.046374477576191
-0.014989200557762422
-0.0432852846441131
-0.03308668713178651
0.013982991625476998
-0.005253325086776245
0.0339725398527577
0.06280549613403956
-0.08976263537652864
-0.05401130387202052
0.08710191702357249
0.03820818005795781
-0.022094569438828832
-0.08427155639109099
-0.04554331572164896
0.012382125947737856
0.033171378635994835
-0.04247457795379138
-0.012848992159164916
-0.041758073372050265
-0.015009759960049211
-0.004888210887697823
-0.028506980330639926
-0.00600788373182582
0.2473921247558833
0.09789835868488313
-0.036486091675949454
-0.013794459980490288
-0.012742162074064856
-0.015984748086519437
-0.013271937701045419
0.006848007221514965
-0.011107607120067513
-0.012301450144418118
-0.005024306791408037
0.004912393206324855
-0.01250683282076655
-0.047043248625819906
-0.05985447487990316
-0.013870387422299032
0.015179213335527337
0.039746008039158905
-0.03182323369402433
0.00958474910893413
-0.03881818137495078
-0.03002253680962466
0.011231597101913815
-0.006206232773352862
0.02028466310572105
-0.033464728118617844
-0.0034198945282680514
-0.025717557085407326
0.06900331044360507
-0.00040333966509218343
-0.02052497759671788
0.012376313383457703
-0.028468009333783045
0.014437522295868354
0.017744061409224337
0.028982186780033406
0.05095863956349267
0.04797988908507031
-0.035074203008745655
-0.06422886978438119
-0.038529600141717614
0.025276595787314084
0.04127429656846497
0.12146236575363376
-0.03258961804251164
0.005390329561617098
-0.06780749411816103
0.10330421956465985
0.03900154402223724
0.13369005996771055
0.062220261410747234
-0.11775355912841126
0.01834140280496444
-0.022607341391545965
0.02840621939440241
-0.027672571415832813
0.053708979002699206
0.01881531450300463
0.013448997717600476
-0.1463722926471554
-0.20883411508280855
0.04099956873006675
-0.033671865408058124
-0.012649281939084364
0.05959778639459879
0.016264037195862606
-0.07412299548081759
-0.001860108902386263
0.010217807938669344
-0.02621607487821492
-0.11731532920421375
0.007962128841383115
0.01043818435363892
0.04328221955775962
-0.027141343210030432
-0.019165970167694776
0.03031402376658875
-0.015083533168116057
0.0805558826392787
0.0966903345562784
-0.012894146472295412
-0.006995827384572115
-0.01233488544018838
-0.01141090276294486
0.03334270370325344
0.0038348629925289896
-0.015429405892504716
-0.005109247579627859
-0.014291083937820373
0.0169895924123544
-0.013767611966695164
-0.007606033741714084
0.01087601248688489
-0.009730246054748438
0.0059255330694280945
-0.0032320068108306014
0.03741878448503914
-0.0035296282267064235
-0.004748287844466559
-0.003895084440045814
-0.044083564081584245
-0.014884653994526837
-0.010102130331377706
-0.03303456208019418
-0.010107771926957084
-0.05333160278586275
0.023526917031374488
0.0121051204674766
0.02071127641030795
0.016038241205903983
0.07507927124604388
0.023538425704721488
0.00139692976252759
-0.001457148676685115
-0.010130652605018007
-0.011907402908176667
0.04173104845361904
0.037906099713111145
0.04642462890056881
-0.00393793768499323
0.03375766361389476
-0.06419717357684568
-0.03137658805267939
0.012468095223302873
0.004981246971696663
0.0007612696665277788
-0.02117479548097578
0.014207102596936895
-0.012456371606307682
0.0007248760487590665
0.023190538644445695
0.009120814199239501
-0.00019282870019819189
0.024833618209548092
0.03495251907076325
-0.03125045364052314
-0.061380043606583036
-0.0006443757949732653
0.035248778417679344
-0.026259031067459505
0.014276825946008598
0.01442667462476749
0.0014726391348451006
0.008948135134559138
-0.0333551276538914
-0.041203813989369016
-0.05384534450592624
-0.018679508389053863
-0.009410016653116195
0.010101116883835047
0.015537424511628763
0.029003146509302042
-0.0023896390660272655
-0.004961631763155218
-0.04100164092338918
-0.02933785688474547
-0.015556143775288639
0.004939999193522956
0.027741867108873896
-0.03419349748111217
0.007355700308391453
-0.05098980546890388
-0.03477914180019572
-0.0017832268448261213
0.008902903688464012
-0.021403534077411607
0.026541727848732863
-0.04079571146058266
0.08310977812057904
0.02346099584986951
0.06312672259786185
0.04918361135997433
0.009733484018795837
0.049436344125545637
0.0875155877510366
0.07681380913608313
-0.08309011334815444
0.010856574572132004
-0.006430355477327329
0.002878187909243989
-0.023078944440697642
-0.011540093503248661
0.006600561528753111
-0.06983880725954686
-0.023327802654310156
-0.027830605560474373
0.0023742231746233917
-0.001667258432726823
-0.010035150704362021
-0.0337666639475561
0.016647849011240907
0.04719856359509759
0.05594692438149559
-0.06717755222468365
-0.07636624543843619
-0.016594510654790864
0.01157453021408582
-0.0028913234362991144
-0.03936255427412174
0.004898401187812335
0.0036847255766338178
0.06801359155259849
0.046350554473087925
-0.012238831794209046
-0.017421716286117536
-0.0016641750604725245
-0.040839890874644694
0.014888984932422484
0.059333309821033714
0.01991473083109831
0.014629312230931852
-0.024930661590466602
-0.014960242704690773
-0.0013767968634530992
0.0042251462311097806
0.002193218948423934
0.027442551259705187
0.04522631706576016
-0.022470106259590922
-0.029435172030733463
-0.051920198001101855
-0.0028302265067788926
0.00836714052793541
0.028950496174812424
0.00641535280788595
0.007476662208304867
0.04410978278138256
-0.06974966871860329
-0.01018914229443621
0.012491605834920311
0.033432108097989764
0.03400161778576395
-0.023623345282389317
0.011632174517023326
0.01879143165716953
-0.03551464584125048
-0.04213442873894142
0.04952105531351315
0.009843881907334628
0.019956977233507343
0.008704936658063484
0.0436930207323595
0.002306262606781657
-0.06594146450879186
0.012659573794207672
-0.05818671622062691
-0.23695401127504884
0.007193244943985437
0.03513415752985426
0.047856136069389085
0.11057687996289377
0.07160148291548081
-0.04653447225244131
0.012769925200546496
-0.016825904585129312
-0.002362976902444845
-0.0028338805179039628
0.04577149864461461
-0.02616352710103838
-0.02567702524577535
-0.005145894684749224
-0.004693652981905708
0.0013714280990327096
0.027509624652511295
-0.06671193913567602
-0.004681468702147809
0.03421270798632939
0.11273192822952205
-0.08531768582867696
-0.10722120571122686
0.0305173195827816
-0.028843738552626903
-0.01171596497110664
0.0062096217336749205
-0.00656394334080796
0.012465035776765603
0.033621098360861905
-0.021320320253634846
-0.025043309789550716
0.06654171652740398
0.026653208296977336
-0.048992982076872055
0.014304533414882985
0.02624563711851131
0.02301663866259205
0.015955609260748158
0.03252228975938575
-0.008881220645114901
0.008372263714377161
-0.1424862817896559
-0.0987831493906181
0.05457370818002783
-0.011111571953155838
0.004790635369297034
0.003233121989657046
-0.011413687895468764
0.005864377898001683
-0.0028720912992508014
-0.025848341693225144
0.003113028912067886
0.01240376940649885
0.04218876084048994
0.000609032238836423
0.03838411417030065
-0.04125607791118579
0.11946373589617555
0.09535316467003051
-0.03559141266381002
0.02076197642504982
0.028250150610652922
0.011594420899616844
-0.0004060151480268402
-0.0984372944869339
0.0660150167262295
0.029352166348384504
0.19892019708114472
-0.030650369118796424
0.012192545274153173
0.013059456053289238
0.025267172539025495
0.04332591565667487
0.06639032780431342
-0.15621590184093526
-0.1287974838809047
0.02775615211057954
-0.03053060774654348
0.03529631716547133
-0.054404284198802715
-0.004154838889740132
0.02688879936494666
-0.05769834093762128
-0.2081682570668084
-0.009607348148886705
0.011157988536721434
0.03685846259774666
0.004610639507923268
-0.015804663766000256
0.021553411609994324
0.01858905002249987
-0.00026370989747646163
0.040906467869200276
0.09287132527982775
-0.003241630407885239
-0.06933051881735022
0.030601062100979362
-0.02129388645792441
-0.017452788888632047
-0.013550991101231164
-0.030259184268248394
-0.05187637687004716
-0.011150815762008699
-0.012374014664140086
0.01994091386358201
-0.025645183794422762
-0.006109540247243462
-0.03688247344121429
-0.009040283697089067
-0.019046886953948093
0.0523750603594668
0.0035053416118924433
0.012722911132747428
-0.00930423236602753
0.02845202362886765
-0.036375203738219924
-0.05391203423170313
0.004805093970859343
0.052252661871735856
0.051806739312630495
-0.018767901503461446
-0.010634948195013027
0.014417429548806046
-0.005720936233224854
0.015481067672850452
-0.008729745041677605
-0.0025613890190433843
0.0026303054331650675
0.008719148949220065
0.002370424022057769
-0.014180596910092214
-0.015723728372663382
0.10605154691268107
0.061529938590822085
-0.02661279093612256
0.009762429226049465
-0.021466589629143214
-0.014427152393180634
-0.028420975473233356
0.02919207349290044
0.018530870698110397
0.02614161403849296
0.06883550682901181
-0.0010734709449683347
-0.004080009871462594
-0.07265848894955135
-0.0724769372035123
-0.038108464182810796
-0.09224401567904979
0.04446311877061023
0.006545915042932683
-0.011055602445035825
0.050882540890083185
0.001137079561290628
-0.04736764733214509
0.1449639241381346
0.0639751488861147
0.024950672922021296
0.05975301899032136
-0.09183720140001297
0.03155167886070642
0.0033535624228014133
-0.02656967653518712
-0.02792122490898158
-0.007441367020009773
-0.009169527508709635
0.04516312223068985
0.07121069455847173
0.005371436584531683
-0.04112498667439125
0.018934704113793194
-0.011143938524912992
-0.027627482365805575
-0.05379917852636045
-0.05667433990692818
0.01017777720858268
0.0802168231140353
0.005393367631544115
0.040609656230745216
-0.011031892337332143
0.005528420872170986
-0.041454716506432045
-0.18369647347041912
-0.014162334086798874
0.005086097675736139
-0.035048532805443844
0.006419440643074721
0.0432399549813402
0.02694234531619688
0.025815164830019773
-0.021765435123442204
0.029797239788475576
0.052672661772115874
-0.01625041739529044
-0.01881295607640681
-0.006894399979312458
-0.040267513542904386
0.01882513202509911
0.030953737811092282
0.0011875505922352425
-0.023975038769656253
-0.01817036200867137
-0.03249408533004143
0.010002238412312622
0.004721092552963065
0.053447090735299664
0.010611096360269006
0.021223919037567998
0.011237867948846117
0.031293872147985534
0.014535963998502594
0.021458401567012102
0.025760814049754506
-0.028758954090739374
-0.01488124698203677
-0.007528063821665067
-0.02699241812332154
-0.028992200582554167
0.025747054810526217
0.006340991913306189
0.02598972280402626
-0.02794166797765785
-0.04140780448977502
0.02241572383349737
0.04087530477048197
-0.02821938135501072
-0.04843049405076251
-0.00030243215590308666
-0.02838760520334435
-0.029060895578280954
0.02801856391268048
-0.016916318809308172
0.028666805394533475
0.023608274171571873
0.03049527367330694
0.031598964096681184
0.036071789298510196
0.016621061956862956
0.025980381931948876
-0.1651430436695352
-0.04335189484962788
0.02147680465894211
-0.02008469380367295
0.017538744080324558
0.0011422782711291352
-0.015390361562000004
-0.002392359569866461
-0.012529191583983116
0.009573442306255843
0.010599588794017888
-0.010705748929468017
-0.01650202382823906
0.07971207499353593
0.015035428347814713
-0.016346076842860158
-0.022206520112113753
-0.04345567834387439
0.004874154381174477
-0.014582342640964084
0.01089495643776369
0.0054346062523909335
0.011229778964945097
0.015781659907074138
-0.02809457977906166
-0.020934909893346055
-0.016526139075079455
0.012642349457174611
0.01165852290518021
0.1401450213825948
-0.1163261442614842
-0.10072072938004316
0.08977075652859369
-0.027160616866023096
0.02168651147942346
-0.015370482242921896
-0.04793368422799311
-0.03580907474987365
0.046261331390404496
-0.007956238449688303
0.004530405468550283
0.009316335029422402
0.016872795911776834
0.020347359520368053
8.698155619626507e-05
-0.014595383993178878
0.06466887218748167
0.11596226801201083
-0.029437435325081963
-0.009607142675775301
0.011617808393125746
0.06292068105074121
0.027096204512519154
-0.046567206638838586
-0.007105632833964677
0.05631332912541828
0.001627024113511713
-0.027376447226441118
-0.0002976269390767223
-0.015971606712420587
-0.0013600953466887224
0.05369386124477771
-0.04102366196200451
-0.06546529679754626
-0.02861947550664398
-0.00409630248392827
-0.017188465489727262
-0.02573677810412568
-0.005229045254642152
-0.030193382624996525
-0.01868210147948185
-0.01839488198161441
0.008896490669518472
0.009089656811394571
0.06449765685265536
-0.0011901194105019487
0.020093331920493403
0.03787376693606171
-0.031724553274565824
0.015807598144600733
0.058444959704685835
-0.008477851765704914
0.03188509208133933
0.02586069063723755
0.0017345350802974242
-0.005985236009881603
-0.020677671485775716
0.014039579922685905
0.02264796505826917
-0.025539762739967296
0.0044736758819517285
0.02679224305637031
-0.013770668618883567
-0.015098897468306617
0.021447765967724044
-0.017024337920091375
-0.09099654567008206
0.029711689557105025
0.06352690039504925
-0.116159883416101
-0.13826940368010837
0.0444051506390235
-0.018798837187394994
0.019027026095042338
-0.06389625918310951
0.05918811521265714
0.08908657787866914
0.0034748792116271825
0.028049734843836983
0.011535702223755082
0.0034550856702603
0.01441187684436548
0.008912814945989082
-0.004133260283320478
-0.01665032455296719
0.028033311597305866
0.026196848288531735
0.011092284325550907
0.038979909148423
0.034931311081423444
0.06474670383799626
-0.1810184851903337
-0.07024128267024012
0.03271447583754076
0.018684997395580667
0.014370539526627441
0.02542779221927744
-0.014615144026806364
-0.09805835340405941
-0.17450600178291634
-0.03469140041583127
-0.001347667411316966
-0.025586338797253565
0.0017345252564808116
0.03292237998664665
0.03618641345594161
-0.007715502832022607
0.011855657180433616
0.006270015096528247
0.00988404456952427
0.047718124892930855
0.001602431842550384
-0.005379763237109338
0.026397211717341017
0.046302899502404855
-0.06603917282258273
-0.10088972399089885
0.00030426030852638775
0.10586835098558654
0.034327652200713585
-0.003046595113977017
0.014412483717187006
0.007911464872291494
-0.012955794616683664
-0.01180454837496189
-0.02907515905530536
-0.01784114778355103
0.08695699293998031
-0.019708572425375652
-0.006215842202971897
0.027774743089551173
-0.01656018834524446
-0.011466898501997948
-0.06337777457898773
-0.04227568140663591
-0.000146919336788988
0.07768916715215655
0.009468647191055673
-0.02057818928323845
0.005793999126570366
0.04539453607060763
0.01108372079740456
0.024089424476121158
-0.026669859598820265
0.20890014353607225
0.0651856619086986
-0.05625312510996482
-0.005132065656016353
-0.0290617340951362
0.059311254870380005
0.034065617942415666
-0.006143155880691496
-0.013439824139294601
-0.011697043357150135
-0.05353869448033844
-0.04159563264383143
-0.054204927994090185
-0.039589090114008386
0.024426315695071022
0.09332318167447613
-0.03286414357311283
-0.0013388948932594512
-0.011535317807427755
-0.06765430129149146
-0.014101946648205814
0.055439544980203044
0.011913978644984335
-0.014159765242033228
-0.0074932770174384895
-0.04413361071006334
0.017254475523058182
0.011925636246119378
-0.008422404264941724
0.02857689209575805
-0.07164693458513643
0.006382722268714744
0.005471866841033066
0.020546964934460288
-0.01554861889595969
0.01760796313620564
-0.024675965825690992
0.013521087171224978
0.021641779784077345
-0.008144484836712956
-0.005048329365227658
0.09180233112721481
0.019310695717797737
-0.027014051136883366
-0.021038147696044205
-0.03065616536725024
-0.03132560857566101
-0.004932051200189349
-0.0038852650713448586
-0.005659582759610694
0.003297294467709064
0.017545245627796725
-0.0908891216419588
-0.11625323461923916
0.059589667872324906
0.04381152114164255
-0.021285906388708902
0.03370941277455014
0.009670444273578922
-0.023712964597479406
-0.019658128314846594
-0.030909287782601214
-0.02481305490961417
-0.018082199814449425
0.00677149843419022
0.008800203568658843
0.004817765125272457
-0.004049336207674747
-0.008305911546483243
-0.017460807881310644
0.09183617270881508
0.03197159791954971
0.0042370279735700535
0.02705850242296329
0.007102273024175472
-0.012735338228438106
-0.014487698328729152
0.005289832468865198
-0.012678699269871977
-0.014941592247185158
-0.010356471701172931
0.006534142707059596
-0.039538161296968105
0.0038008754781795424
0.007665179297480248
0.04601280349043604
0.17463294799364673
0.012357070024280622
0.03128876727571544
0.008728700388180103
-0.04227271705216291
0.08606710464306046
0.022476590021729203
0.01830336096737528
-0.0076545468338966045
-0.02724628938551228
-0.02950320765373518
-0.0009175067581857544
-0.031184677677319576
0.00484499178182184
0.01673962300357176
-0.03827222193796346
0.005328054468273639
0.007475273552345547
-0.09344530682825047
-0.024429882819932372
-0.012935520693972056
-0.03680943638098571
0.00253337716654694
0.016208428677037656
0.025679269734848877
0.03965713239456137
-0.011646651245503088
-0.009520662044083443
-0.01759468196643309
-0.02266334641081151
-0.017802543962703518
0.023543616811013347
-0.055614937807896815
-0.19335591227943785
0.0602336434660179
-0.0011348066393429377
0.045569640934476435
0.04087977538609274
-0.013915600806862664
0.016508571452051087
0.07285617397739455
-0.009446200473903708
-0.007054341262207148
-0.03491599184816153
0.02135116891937316
0.06316781448174377
0.03773002155771294
0.0001360621977064093
-0.04858688860836094
-0.03814277269168839
-0.014296807766563264
-0.024599757617476365
-0.012434709287943732
-0.020594890119482956
-0.014240025883680557
-0.04597671535859907
0.016496776245055016
0.012880063108427875
0.013123546280043164
0.01013180370535029
-0.0008980593884076706
-0.004371089565144675
0.026804811349942805
-0.0222014242662689
-0.010056182767392794
-0.0029754107452875183
0.05716000131157449
0.027330692422326712
-0.003595399941975586
0.03205794530098998
0.012205459699628659
-0.043422870628714805
0.030279602531033206
0.047452545773381816
-0.03273530253631709
-0.010977286522490675
0.03904299271054674
0.0636699198366745
-0.0057700966518921155
-0.020760395066222622
-0.0006304412820147049
-0.0074605114878361885
-0.00734335958413031
0.012211924460506425
-0.009634710322313571
-0.007546110083917431
-0.0018897297590237982
0.03878977005943578
0.0018103286257378892
0.005658559955783994
-0.005340586514940847
-0.0029674140371027105
-0.04329862302701655
-0.010061415218273126
0.04137421159220401
0.003439644698646536
-0.006567077921662167
-0.02171874110123175
-0.03197864938426692
-0.009555817143226215
-0.0009718479198827704
-0.009993031024503966
-0.018745530681627896
-0.009595618914220545
0.027159503197678
-0.041431135624327466
-0.012595750034923699
0.09192455467861863
-0.006284635482864816
-0.045863958844512664
-0.03473122472236834
0.03755430310225018
0.023482766604759682
-0.03154713845016973
0.017072186268905155
-0.04059698596526518
-0.01345792973084606
0.02013340511996142
-0.0017329898266793102
-0.046519593340655786
-0.010552556126669065
0.018359240868772813
0.02184148740537558
0.047968041533490886
0.05128437855932531
0.04771572527303906
0.03450788508880735
0.03757970170055665
-0.024266810761818573
-0.0848240788126338
0.015324206902713768
-0.028858207122322368
0.011872821304738037
0.020302934085014747
0.02096072997838056
-0.01956679374653597
0.006112910051640347
0.011074442323563622
-0.07492923597092983
-0.04546301829439145
-0.04352590164016563
-0.0018234789387224053
0.07657611723796184
0.02313503028962157
0.007856495173422408
-0.01889397347068965
-0.006158443485200736
-0.005021811226435709
0.004075945672608288
0.0015343996669110508
-0.018567159711119652
-0.004373620995142116
-0.022163623112111102
-0.01747764176465874
-0.009540487042767854
-0.002888683714843875
0.1832560390087038
0.08479516149553991
-0.010043401601220296
-0.013479964723141453
0.02291962521424411
-0.1243954385725353
-0.1388317522653318
0.04915876063129501
-0.01214239199237416
0.02283758761964243
-0.05293394192438611
-0.023923195887526547
0.015195422277941377
0.01793829039930983
0.05449512293705429
-0.002512994893149931
-0.027944172930205683
-0.024066438755676642
0.03745777268205068
-0.005700796730238123
-0.07198847164418647
0.017372144422509735
-0.008421938948583209
0.0372879998058926
0.053288870714504374
-0.0010464056657540637
-0.02481948960930051
-0.020342620557394595
0.035858247907261505
0.0004893772694196709
-0.012861338448522514
-0.020837066991956636
-0.021088059066878617
0.01854256073271418
4.594710680712024e-05
0.00482248208062476
-0.019951633115518046
-0.016517394578430985
-0.01779105596738516
-0.019924564211401798
-0.0023282299067116556
0.011221981932531837
0.014748768323030221
0.014097118671501149
0.01424010722451589
0.0033391473163967627
-0.015183619122536844
-0.01191013043372459
0.032654088674742655
0.00927913554363506
-0.019302197894598305
0.05970096159519583
-0.014659686946572433
-0.01977304167459628
-0.0022009263216350547
0.013065136603665014
-0.011783564646493664
-0.02481273605112162
-0.016274730390235054
-0.018929540123858574
0.03355954731606104
0.013010625149962401
0.028133553084454505
0.06348958753682422
0.014165224491943596
-0.013699499417903188
-0.020768495244346645
0.013799745432685426
0.03978105707407173
0.032956109779842965
0.07623108047856253
-0.02355344082913908
-0.010137614513289398
0.002122224576824295
0.01444936389791111
-0.0112532059255732
0.00995233976578876
0.009860880388133262
0.008472358300984296
-0.00701285848992919
-0.07250394406294855
-0.027686395565652958
-0.038079018633582706
-0.029960108241377206
-0.06697269501000233
-0.04670568210072203
0.08433550887507174
-0.008466334069697013
0.014769225897699849
-0.01678749092006947
-0.028583149094838434
0.008172945807202356
-0.024600184935599085
-0.03413772244339164
0.03291763467883951
-0.020536208973037765
-0.012230307578593988
-0.06972592650517857
0.0038161716772083004
0.06649789131546996
0.02895538834689427
-0.032780628232587296
0.036278103631147605
-0.04389551777684303
-0.0073727029123212325
-0.033338018305990716
0.035720931954847185
0.15879613144966043
-0.013241220862182565
-0.003705778555150747
-0.0092387335865722
0.017674679643977162
0.0699807810511937
-0.026471794985882792
-0.011588479424628643
-0.015499413560249418
0.0005407843103019886
-0.04135652760868777
-0.0036557916158176792
-0.006421345128519206
0.009371538892334245
-0.02424557827827075
0.007054844196061961
-0.017007601792800895
0.006919900190165958
-0.014390273753508067
0.0784124108626196
0.07829105309921743
0.0021023985617888165
0.00036796182750301103
-0.019918609068398905
-0.060250276674666856
-0.03750409201060379
0.053200902394117934
0.01626158245564915
-0.03682938999659881
0.002734683167561044
0.0335624778720704
0.02233919301806019
0.00025977446891337536
-0.03447235016475552
-0.007913303026720091
-0.014982478006321924
0.01979370376395316
-0.019915550205830298
-0.008412320367755213
-0.010901786758810235
0.005586898724737165
-0.008721573437877593
-0.003692199562914633
-0.008253281598097458
0.009630244778464463
-0.030263566369248915
-0.028496129171046637
0.005440368624847573
-0.01072832519356997
-0.001932669064376714
-0.02150676946048541
-0.03723591373598246
0.009331455403627507
0.032635662992439286
0.028585756109428085
0.022710416565993496
-0.009756329798394059
0.00046405319622845826
-0.026294736731931608
0.040281306808128164
-0.02165388231851271
-0.006768055005315795
0.0318948064879094
0.01727658024918248
-0.0031087049615042177
-0.008718567332400985
0.039263325667562424
-0.016963065792466932
-0.009109330426993821
-0.0019655543492627294
0.02434716634269591
-0.015147523824409887
0.005498206838703342
0.02439182171740841
-0.005920429195145365
0.006117238747573666
-0.03505982678843533
-0.03939546534218924
-0.19346663357120958
-0.09107810722877037
0.017437107931582933
0.0062863222448278884
0.035202745404541
0.15392529716056377
-0.02430666706367362
-0.041462093814111964
0.008998163293291934
0.09746995771420845
0.1295774958742479
-0.04340848235772627
-0.024318203519026693
0.0030198166749041025
0.010275231787472416
-0.021110025455589917
0.01501833195448642
0.009764392716274562
-0.01004316854723275
0.006164172225960967
-0.010404851033276173
0.044930985588599155
0.020944735758189
-0.03715041887100349
0.016137231243476394
0.04714915334097429
0.03382133850706123
-0.029547113687190773
-0.004810603305468219
0.007583736283995152
0.007200761623071351
0.0076177523005947784
0.02722222084780326
