0
-0.07588230773367145
0.0012700236339239321
-0.005402626394134072
0.017426844058482206
-0.02132717425466976
0.0042709447869105155
-0.1048151361539641
0.09589215053451752
-0.03318704239403179
-0.09217991828879435
0.02485379488634803
-0.064246067275481
0.015535014620457956
-0.023064994480831144
-0.00195803023598686
-0.010870838733430444
-0.012837850782143166
-0.0050876538112093715
-0.019069861654804343
-0.015410072170427844
0.03082790335997283
-0.007755428378297014
0.026519525758970226
0.00828628171197017
0.011254147143903074
-0.03128844458173111
0.03899997365461115
0.018163454852612743
-0.010676025499495166
-0.0020013952945878415
-0.018871153147185828
0.02641205333568782
0.005764112344393742
-0.05396240950151096
0.15089990472260767
0.07035676298854904
-0.036803552313908486
0.0033421233326194535
-0.00707961784937278
-0.014482251857079232
-0.0020818032188463917
0.06046224797995191
0.04904135791531577
-0.050513115445450146
-0.020705257546516927
0.011772409072419452
-0.013648100185188623
-0.000620691724997335
-0.03154366978937312
-0.028335126329920808
-0.04976469189871757
0.016051163072040166
0.030323752406721034
-0.006663744088041884
-0.002374635126558012
0.013099719142151496
-0.02682885205273965
0.008677768996603372
-0.028914150971088903
-0.0016983442719358884
0.04137391226070239
0.03940119673111455
0.019310479001408
0.04760903440549623
-0.01202748590061131
-0.05763570665823598
-0.05711419375288889
-0.010477359545278658
-0.016499014662402528
-0.006535547107095357
0.0021064518924214124
-0.01051200163760384
-0.015982524998257037
0.12410383376720947
0.0013044673069926216
-0.02538693770515854
-0.08753618753226845
-0.02197147071081163
0.019108648020204785
0.0916605020045649
-0.03526986663886775
-0.08443997014062282
0.04152607997242595
0.13413140494709833
0.0468134213749559
-0.0019065938347502466
0.005932540132063068
0.007173302017678207
-0.05963586632086017
-0.04680448773699322
-0.038240361370119116
-0.021713368160590215
0.011330428450359732
-0.030587924462927834
0.023683965067376203
0.02540154899822908
0.041395443386129625
-0.10299608138745323
-0.01821401588494578
-0.039304489034064166
0.013677967560132693
0.02791123036277888
-0.028611664616688477
-0.01311125445500599
0.016567535075193117
-0.002212509601552775
0.054208864878194214
-0.014700946490533847
0.0027533917410459516
0.023638408264448296
0.00439259088466463
0.01753051519090838
-0.016440269957831707
-0.027281463161615987
-0.0025020440284329354
0.03687900202697629
-0.02404077776051702
-0.1405443803032744
0.014068170831069258
-0.016343201909746346
0.025890094841036732
0.03450054506348909
0.01923571668920642
-0.01769580343496372
-0.009170750245484069
-0.0036845128794359082
-0.006685442909945444
0.010685049956234092
0.010662659720856685
0.004269220724177719
-0.009037047123082927
-0.06815453160181152
0.14828788126400447
0.03198229313690682
0.03144761817566161
0.03221818963403045
-0.026905175194922082
-0.00864056192461925
-0.010790660475637648
-0.014378279994191034
0.002391125030017577
0.07352967631434534
0.057363908201675994
-0.008420952389928757
-0.010627122896745026
0.029163402889808607
0.02188367923469907
0.008287927055739722
-0.03230266081263046
-0.03042985458194139
-0.04822734146409064
-0.023640672642341543
0.01361117124329062
0.005838856851287431
-0.03732975045673503
0.009088914590692833
0.018610269993496326
-0.02124178710994341
0.023224449211363168
-0.014535187052018285
-0.016349654858885638
-0.06732757183042198
0.0352000898677111
0.012692842854484286
0.043244698953456305
0.005873696269438643
-0.02549776018030209
-0.04345430025820298
-0.018057754402516942
-0.003494614778445244
-0.04146718135565855
-0.044476300427940284
-0.028981794456433292
-0.001867397017163437
0.005987233895189373
0.01276956677593384
-0.0039318945452115174
0.0027742152894519156
-0.023517714646170255
0.00018570152185211824
0.01133174540500275
-0.01493716779247573
0.0062226482336001174
-0.05281132319324028
-0.006580176555357423
0.12129961744156571
-0.0133500501669593
0.026354281789229446
0.058488565253733804
0.15640409394410307
0.06273224404129828
-0.05922824373329949
-0.01028063650071682
-0.013170596894702423
0.012746036973688113
-0.024022064297856298
0.004637903265176341
0.0008575261865616362
-0.0779933599453321
0.008497299822699084
0.006671777902982966
-0.025132681679375168
0.016173568108320054
0.03884066420226942
-0.018720632474756162
-0.02489450647597361
-0.03038025978192735
-0.006707275463539342
-0.008505731959000352
0.0008846322815694149
0.009931262200359827
0.027746729812644446
-0.007956344044809648
-0.026087432522480494
0.018992026807845112
0.008293366277381706
-0.13680561176378866
0.011624652348209981
0.11817549623557194
-0.03089088299380077
-0.08493928379078937
0.10981088839109066
0.05744073594241474
0.020183952495348437
0.0011331119218573318
0.0016809717880416845
-0.05158514622757401
-0.034880781196371474
-0.017473700170150448
-0.0028904451635498587
0.048080979917495555
-0.0004989517256028706
-0.012854679998691507
-0.026953205656989557
-0.02389394474458824
0.02720982411200098
0.044491821330737466
-0.012287827494268636
-0.028665463748955195
0.006581726601788811
-0.057991676540628215
-0.030748026651446027
0.027438631530185817
0.00660972424534971
-0.023278557741187755
0.024163751023231487
0.006246795558173659
0.04990403918870448
0.056214208233823115
0.0028163362769011244
-0.02929912945721344
-0.015321657799911353
0.004846847323352107
0.02143823593662057
-0.009870061939112029
0.021812432380407937
0.04228200648785809
-0.010647837510607525
0.00828513176487488
-0.0013354102930176936
-0.037775375912424955
-0.03539736999492375
-0.013814868029674642
0.017038348304639166
0.039882584717268944
0.026715271873569802
-0.039585712574245834
-0.0024817443952748737
-0.02772848686629532
0.002797044077219416
-0.020106260929013024
-0.0026972983961809707
-0.027024545095251762
-0.006311734172338906
-0.013882034463541566
-0.0261415698985679
-0.017764709294134907
0.009139703909478153
-0.011546308059382917
-0.014503288728526348
-0.044910062755251494
0.015201492762061493
-0.005690535899494154
-0.011215951537939825
-0.022097098223248537
-0.02919668171232418
-0.02752239484996565
0.13216846190677684
-0.016343523466755598
-0.017773116515714362
-0.01833013904046302
-0.029690721607575847
0.02715546096231073
-0.035364188694562065
0.011479969238714006
0.0877823165000988
-0.01350895327285323
0.057180761679993745
0.015436326710665714
0.0017735145634679365
0.016840157362140853
0.02178439220630103
-0.010418848196735764
0.053108466501510215
0.06326624585811254
-0.04896676482803223
0.11238445279920714
0.03558814531450337
-0.0617478283253632
-0.04000936709210497
-0.016412450282267826
0.03131267163303825
0.02273406132449363
0.0035396201031484094
-0.022003941347442324
0.016738083355058584
0.0051839238405754435
-0.009296834350546443
0.0027667935701455957
-0.009232964263212847
0.030931494427783146
-0.07239716180156863
-0.0161445699005488
0.06617548525775917
-0.04857602707700821
0.009198114918859867
-0.039369960859509896
0.04434062354743389
-0.04137122349805805
-0.10850136137764003
0.013054575574710205
0.016321564259532798
-0.013837661370971685
-0.005105957099251031
-0.013093867724535593
0.01327214543365974
-0.04305514408571186
-0.019260097271044604
0.008185754687952117
-0.025821210678344954
-0.15951982495410386
-0.033551198860655364
-0.016109676913467905
-0.0020820176963655813
-0.0030968933365538927
-0.017150815957500763
-0.01925930683379799
0.19666718544904116
0.05236672612962874
-0.0009171912272857187
0.01706474951013028
0.09342712540595413
0.11279672582969456
-0.01820859136415036
0.1310608010262751
0.0006879006058197805
-0.016252644841354965
-0.0849653701249145
0.030331139509683615
0.0178943452957315
-0.02781612743848268
-0.02914356129033588
-0.0037850246138167003
0.023995022318459312
-0.04282678182748894
-0.021298848402486862
-0.007668285327008487
-0.010503765417235479
0.008244184076250603
0.01717887089647936
0.01662556664127582
-0.014936688016580945
-0.011853973716194266
0.0037970319890543256
-0.007393165412062466
-0.026991648325603728
-0.008371165778826146
-0.02417434160404917
-0.02955482537600908
-0.01852049253704899
0.01688230934706715
0.00238613029106561
-0.04776041020721389
-0.04928609126151976
-0.015982202390443664
0.014051904290341801
-0.0013353318274334923
0.013422821481463293
0.01540194882964699
-0.03091776857671599
0.040113207401787435
0.006935391166705069
-0.02313782108115908
0.045161087268344426
0.05215455972292185
0.003274433926914071
-0.015685853134620068
-0.022166126592005165
-0.1181981203707149
0.0030371270132796414
0.051133638472712226
0.0029552067926964464
0.029831663921347187
0.013930019592600635
0.047290938144894705
0.014516405758998494
-0.03190343797874378
0.029044549467792925
0.008559277711222195
0.02392273177741731
-0.07911063567014792
-0.0024540401630475063
-0.018409029865863475
0.031846821443459516
0.0451166541249018
0.0038990666966013353
-0.020455321060843485
0.06371873279305318
0.011591241666045266
-0.04460081330775906
-0.019720598578314808
0.036204565508771595
0.02949335278595165
-0.01412906387528038
-0.023964638561756253
-0.03798731012273577
0.035584254980964396
0.02650829397564296
-0.013551740548624455
0.016590812167887086
0.008717536241140094
-0.003315425367045064
-0.03557559403954108
-0.10700702368575254
0.00695528261328074
0.02486728425451974
0.008489694198495606
0.010169393714622556
-0.0021446347761977513
-0.027742210736150415
-0.03791493996779354
0.021522247057270176
0.0636029934669741
-0.026693774057314757
-0.020923373052124272
0.006035825817768623
0.008165281460682903
0.009153022805473098
-0.02946543869809789
0.10248520574288296
0.01561954251811431
0.01656562598979606
0.0761329817133535
-0.02570447451509354
-0.027786462261240076
0.0033022362455578224
0.0021442294896528878
-0.006488922910500188
-0.0054975913448460185
-0.009385963805527413
0.011039541744729068
0.009665618273179464
-0.0332985628400426
-0.015106574262000317
-0.07460229056355709
0.0010338456983178621
0.03200848076104938
-0.01218422722692024
-0.016146480292884565
-0.09275280918224656
0.01799275877235192
0.0052201985504628295
0.09403160098416348
-0.016249391769841984
-0.10782540562357605
0.04989379801107919
0.05552170891922313
0.007011139421667414
0.007315667263585316
-0.019528131192376404
-0.06731317772314688
-0.031887718392896114
0.011796546546745956
0.027112480500687222
0.05979842982323452
0.008034083925009828
0.0164628502020683
0.004693242559025824
0.007574288771558777
0.009593625352916791
0.01187819048328748
-0.05016701244345651
-0.013424701153188494
-0.006508999759297592
-0.0025527879459713706
0.0016189767875210907
0.009871870165830993
0.019087929617983976
0.01717211535209105
-0.002924726940686545
-0.026401125207676172
0.03665475413214587
0.035151668145453834
-0.002721256569203206
-0.001245278564411932
0.010393299751886615
0.000526099399930605
-0.005008743112634634
0.020633969243759983
-0.013150202427888774
0.0018754336490874246
0.0036332435947901026
-0.012112542211558674
0.026010520811734605
0.015388304745504594
-0.011717952379944642
-0.06054221257387781
-0.01137761592030069
-0.008782436453296147
0.10606425331985941
-0.04984849000423425
-0.18239101079735615
0.029021702930378458
-0.014481381343486427
0.0194160216497984
-0.030594154610945327
-0.0018383287790917485
0.016471829610243547
-0.008650599759946564
-0.00656514572035771
0.01570503975108445
-0.051173082791830984
0.060270300627980264
0.056765586937206444
-0.05880500681556987
-0.0024174083023057184
-0.04560549781642553
0.01159776745052745
0.06116081562384259
-0.041575645050885346
0.0035837846132852095
0.0017584501311865904
-0.03828551629226681
-0.004593123851010904
0.013478034601509504
0.05214925396386612
0.004445522166174429
0.07459085172903836
-0.02614516596649915
-0.054496227687843846
-0.022476184415234093
-0.056877203041529434
-0.01966350659076908
-0.020071704327396148
0.050725992175669116
0.05045925205197834
0.06629984882563054
0.005575218772878372
-0.03438337902508357
0.04313311842961613
-0.03790304223879545
0.1412656945632701
0.08631406239317843
-0.04215532655483603
0.02216950407616158
0.01639450368539528
0.021868463916083755
-0.011543554311754847
0.012486870859687834
-0.01093247431645907
-0.0397374628663504
-0.01030142810811767
-0.0016173020730978218
-0.008997706443765388
-0.0004449549012881923
-0.019528163999004304
-0.02591638213705438
0.013891075487002247
0.018095090637329832
0.010830460431615663
-0.013075733867604064
-0.049156208463632826
-0.02484221227837261
-0.008379160180966884
0.006020973023840983
-0.029463611900603273
-0.02130763886825278
-0.008095144426774892
-0.0030947551805058883
0.015182428824667193
0.007992717358581987
0.0009919470470475475
-0.058777589212691335
-0.012618352945191568
0.01912187411718632
-0.0002034398644743713
-0.028013505465412248
-0.07334652438359632
0.030947774403168465
0.08547104035097229
-0.020923015708734487
-0.009695853171199491
-0.03134130884198216
-0.0008212046856696364
0.041654869429464295
0.019614264741480366
0.0032966709313561227
-0.014710956515834114
0.006685816558915312
0.014751349221593912
-0.028110409321357114
-0.008853444730435383
-0.008917651816323062
-0.015484254261307567
-0.04645907044010728
0.04640875084523949
0.07087567591032426
0.05366317675376778
0.0034548581795462103
0.043702727230239824
0.14533506900277413
0.0008219069917064634
0.018994656233078305
-0.02899654669020881
-0.06412227079202105
0.008180294119945175
-0.0412852496203012
-0.07548955643406281
0.028405222240358918
0.000773119342796015
0.032826946325638394
-0.030189713655480413
-0.00445871703028544
-0.008631747684048303
0.02504374809333714
0.013052236770043612
0.010961862250401447
-0.029185161213634077
0.002387920807523881
0.008870951534921295
-0.00961206752530096
0.007471102362562508
0.04003673634173207
0.02177426413710493
0.048329679397535776
-0.011024405848349132
-0.00024188499635853606
-0.13778779267509828
-0.039065274689761065
-0.0830055390791437
-0.09580823115748681
0.08625857053101267
-0.00856672015902694
-0.012315349731116745
-0.011334742199061177
0.016670974968218146
0.014760704581082184
0.03857273321395137
0.026448504789745024
0.01860036624879768
-0.013628794311999213
-0.045384185691388926
-0.008219904851535615
-0.0013979464580060263
-0.005050817964203668
-0.014817254463729989
-0.015424626740562334
0.025657588328505395
0.01149228715882826
-0.03433794580015084
0.0003532193481155736
0.042184765993292225
0.04393983271952894
-0.03393920627911597
-0.04374659891990134
0.010355657000431935
-0.024818066410636965
-0.05531396419174134
0.009150173383175085
0.03497579442529407
-0.03905404135395861
-0.012440141859279507
0.037695343796012734
0.018702864422558464
-0.12166530016683724
0.010101202850617177
0.12738425484992943
-0.039698054613614725
0.012026474490449262
0.018193102479440077
0.022970482164785814
0.01269589203529881
0.009914033898768652
-0.0031440032916851463
-0.027227327219058167
0.03488974404823976
0.06229340996309464
0.05552510459382454
0.03566623983649297
-0.0462735755237114
-0.029972483931341134
-0.027026303641694265
0.0050481690005716486
0.041673349588595913
0.06900563808057837
-0.027346858341685487
4.1733613733230715e-05
-0.018619079018950612
0.020482778730444587
0.029009617573369284
-0.019533416914040928
0.05704822209735801
0.006479238132621273
-0.01679271714068686
0.02558515490422469
-0.009043318474597651
-0.004588385894651723
0.0870289214453236
-0.0025613528165952097
-0.06080372058834889
0.04146642979533771
-0.026380144791229684
-0.0373058032320261
-0.0008177742275607696
-0.007954643808250741
-0.023966564841542463
-0.01595239384216346
-0.01129638121475116
0.028343738923293307
0.010772514958278077
0.023239714628419002
-0.010048476135566657
-0.00411651321194968
-0.05436283801462971
0.01942667393941297
0.005692371357384033
-0.012116356497626504
-0.0003368233721076051
-0.022540462635673785
-0.2213844977896281
-0.01126703135438738
0.061205542223915936
0.003939691299223618
0.000678734759023892
0.03817981167731757
-0.033483498473855934
0.03482096832719665
-0.1178293675797864
-0.10285236231478728
0.04803546056763202
-0.01976965408951446
0.03691489930819308
-0.014686704413195764
-0.006087107927316825
-0.01397831843407479
0.013344109856089614
0.032416525267802275
-0.00620976857289003
0.009155814755996557
-0.004286869666528383
0.05996819243412951
-0.01109546171471203
0.010165993475303057
-0.025728832138401676
0.055855791092678464
0.04502188942963054
0.0039231541598091346
0.035798747049068956
-0.027039943490962826
-0.005522328166806961
0.031238558225385023
0.008020280980324736
-0.04566809677964929
0.0021368545912838445
0.012676851108379992
0.03331308862877627
0.028692900584758294
0.0034458647581231397
0.03423142595263934
0.03522068647106873
0.0009778109500329596
-0.002599607489458878
-0.03387077506258231
0.0799647510567583
0.03908705280617711
-0.02017482016092024
-0.013661447449135208
0.021381500000417008
0.03584808116255016
-0.06070577188842346
0.0021515701666251826
0.04055431676416327
0.04620837413929402
-0.019615643430244366
0.035493723825583454
-0.023367432101231305
0.009828611164470317
-0.018829528891834337
-0.03896215361408076
-0.044420515331478505
0.04049949779078616
-0.07878149632970288
-0.059852183027949014
0.019616773500418398
0.020000979597095736
-0.18799179918527714
-0.029112859182158373
0.018720187665468447
-0.026224121813930447
0.06119999472558501
0.024363053418459728
0.020724763885426625
-0.02823201176360093
-0.018621678319488286
0.010355707338116752
0.018144659241898023
-0.00015069139556675445
-0.008345890172856755
0.010610119811138522
0.030980202085253237
0.015316558579233547
0.043889199257495695
0.024869604573871842
-0.16557924084428868
-0.04745954130239306
0.01731107539620142
0.005238439732691729
0.0857903203528555
0.03579095521529137
0.013108758558088315
-0.024064778732329446
0.04244037337751844
0.043728352317734066
0.059153660204752094
0.0383884891206554
0.02712418820940104
-0.04620871382236528
-0.008142141069674534
-0.12080502059079752
-0.08865456966619681
0.03639265440763061
-0.013031785788133951
0.0014431273652671856
-0.03190026675450044
0.01988095871821505
0.0347440162694442
0.007029184751675342
-0.021637119706926253
-0.017816623260250897
-0.007409422075724157
-0.0076676854724999485
0.008741687018370145
0.015592624866604262
0.03794965566672909
0.017726475302630947
0.06374174712675547
0.005981694781573652
-0.007872982785922774
0.005576909887035258
0.016850985249313284
0.014136707575291505
-0.007536212592907589
-0.039753376577826585
-0.015980527399010118
-0.05119188113977254
-0.019039994290193613
-0.004950369322032584
0.05221479016223845
0.08777874504708026
-0.05243062162042684
-0.014689429672111032
7.883462444345658e-05
0.02577388025832446
0.01104334074124326
-0.0034352538159296846
0.01961389527526836
-0.03022331937046839
0.004454119277300598
-0.019996358492413616
0.015665505443112893
-0.005941036508527471
-0.02370319020555024
-0.00533787168874106
-0.040211130276608525
-0.013677952804899963
-0.004118417404028556
-0.03342516550910067
-0.02861482055071194
0.026576818329980382
0.09475197829542006
0.0142374235251083
0.00491443563583399
-0.034979767357157195
-0.03318848646434612
0.04340406094326251
0.03489767144148611
-0.039317643968689794
-0.006617299944046436
-0.00017972628220076211
-0.01752619708468001
0.030111531970913753
-0.011181522139733982
-0.01651568004263015
-0.04133334466792948
0.009202182316688371
-0.0001610886715781842
-0.017969625241953353
-0.03992604230563552
0.013051822031419896
-0.012541034904163202
-0.014283613898451423
-0.029397639929043966
0.07409928042819763
0.08493627212887749
-0.025889185558698603
-0.07691302838801828
-0.018093977191826337
-0.0021504210485447164
0.009727413241077058
-0.013730119748835715
-0.012104233283630856
0.04634775987109141
0.006528244455794666
0.10426647734321591
0.12039858696521984
-0.030540397169095245
0.01586535953534433
-0.037789077153502125
-0.01155933884713215
-0.011075619901432862
0.019673933285595854
-0.022978802769012978
-0.03900828029037944
-0.03195000313712911
0.025798478678927938
-0.012626440672822628
-0.009499664617841515
-0.0005915296581823786
-0.03565380705728976
-0.05439149774781381
-0.025100099522594427
-0.00855326656020865
0.052183113169579014
-0.011629393027977811
0.027799665308902377
-0.011344930382717115
-0.0007337439407479258
0.0565641627746838
0.1842057110617602
0.018725318610192075
-0.0391471296335776
0.010909390006727969
-0.004572692736874308
-0.01896403743059904
-0.020107076343168315
-0.03312183847546563
0.0161194880462891
0.03523141708784563
-0.010335564447171848
-0.015850906831921772
-0.002663736839946745
0.0015641067578206964
0.014367685965153157
-0.01171505996504771
0.04653653436960991
-0.007359007554223348
0.045511443811283435
0.003664809418374252
-0.02302312594860756
-0.014989249053656282
0.0012241425704240688
-0.007947222902663344
-0.22490273861015717
-0.13090740687543426
0.0017694604691782497
-0.023254523507025004
0.016467672861278933
-0.03266894485744597
-0.05273849189481174
0.026767705396819295
-0.02984477109673878
0.007043217653665567
0.05497513101825968
0.049748044291969246
0.025262506775530567
-0.000643479561663915
-0.01195183620071343
0.03592004903486146
0.03239329377893637
-0.0169240283889758
0.05080030713913672
0.007867251408152575
-0.002704721845918318
0.00219616512281262
-0.02338528770862389
0.01409642755200842
-0.009144459081186714
0.0031084401016159622
0.0043080813064726034
0.18283367383270865
0.15290824606457484
0.002210158330389313
0.020589993209093434
-0.03661989815237463
-0.004293746082247603
-0.020165948988174046
-0.1628407770889351
0.017239072829012016
0.08323428395943851
-0.022767536717403693
-0.002227767531797268
-0.008922542424783842
0.014793290574409045
0.040372954793835326
-0.008359484745494703
-0.014884533014222594
-0.020582966323302154
-0.06594389780275092
-0.018689642823680998
-0.018138544592126174
-0.018916364499960647
-0.03246619578973379
-0.013102700248200162
-0.026162310977200547
0.0017108063660259203
-0.020460247213740394
-0.05567261103616596
0.00039299648639534664
-0.027522788698191424
0.007859851580658155
0.0016527675034796933
-0.04193499085209312
0.008581518725966344
-0.014565269628635148
0.03348151170948877
0.11765651169626817
0.05795187922403974
-0.04411663035993883
0.15152462380498002
-0.10753689044840656
-0.12264120785487645
-0.008093926063377053
0.007312666060562635
0.012443684811304543
-0.00240556919101228
0.016606360150274595
-0.027704305761309486
-0.011602857516608568
0.013138758611454911
-0.00410102893119929
-0.010297485932616184
-0.010026164317650172
-0.0339300043240435
-0.02714117728981055
0.009471270590932904
0.022664130097306914
0.1583337938173041
0.007608577563713314
-0.04509801770251747
0.019155554499126867
-0.04397174103158986
0.005779488066943037
0.025349642318898743
0.0006457638997964725
0.010158627900643325
0.015110017531872858
0.047487725980915885
0.01222324374935427
-0.02363687951182071
0.038217637066848394
0.01089737894624854
0.007661140051212491
0.05736850304351344
0.03028945339211287
-0.008575738875494478
-0.0007455972119879911
-0.06239514308094999
0.07094750746581424
0.036108784022431686
-0.0031083768087500105
0.009885081215847354
0.001415305317402315
-0.048793342193449524
-0.055154755773818204
0.016281134998561066
-0.008107541677075733
-0.018399122736907067
0.017923581374384455
0.08463126638640306
-0.058700358188481815
-0.029834366594608294
0.0026974795168839844
0.019231404385359595
-0.001063519397098673
0.004092167791469662
-0.11105881535909985
-0.05089053214747004
0.0024568721518958927
-0.0032038305911597743
-0.07577134923113403
-0.012539042235427426
-0.03132524129236487
0.005602396055492914
0.016484022321492698
-0.020436339254378724
0.03135104629735303
-0.0009667695410700227
-0.038972296132392815
-0.01670551977733457
0.034979920356999095
-0.016492290726748557
0.022338806094017956
0.0054710370292807425
-0.004423528278748235
-0.050971627310377486
-0.057804914617415104
0.04037678537844706
0.03138633058846095
0.003149323677223421
0.025616883538035512
0.14144536703611751
0.026130679996131924
0.0015698945716069058
0.04985884797005475
-0.010821929931448902
0.0583928237736832
-0.023093839658713203
-0.025859929907253543
0.0020605038867187266
-0.0063622544168976695
-0.026203681217572213
-0.01282186065990101
0.028009712542853008
0.012452047489960224
0.0533379643187246
-0.018109783707292104
-0.012849331725075054
-0.03846757067011934
0.08306167285584219
-0.07056131728022226
-0.20468195094157418
0.005989926056076759
-0.03267357913690056
-0.05260386921841509
-0.02842943300068458
0.0036028642117072593
-0.02115035961347633
0.10231086956422726
0.01817572090590877
-0.0010256246324718559
0.08310577141469812
-0.008800048183978629
0.004257476326767005
-0.01840753561346629
-0.010545704420979208
-0.004209592386884214
0.01047511966088774
-0.01984937514267887
0.06058342275746591
0.04722846495123705
0.03400791351896802
0.08141772946612116
0.0019156615100446792
-0.01512314081165424
-0.001445987446009981
0.06181709674576192
0.00511260400272706
-0.013274099902436531
-0.008189033482853209
-0.048207394313132375
-0.004911561127168595
0.003947487915918032
0.013972757475865825
-0.03261170572072345
-0.04298048565600581
-0.011071388841893749
0.001486974071253637
-0.006490251068906526
-0.05386160380449214
-0.03101538420538752
0.014478053201460702
-0.011218026932661718
-0.0347901043836219
-0.021316730607547074
0.007147898582578944
0.002238105311438594
-0.012894496947705949
0.005685982314027998
0.012879387951656983
-0.020279454468365734
0.006732428490881798
0.028381736188839466
-0.008290252606267994
0.011404383230533865
0.002347329453501882
0.01726163914688413
-0.006101786853256985
0.024724836595548718
-0.03751555258364697
-0.031122389356384617
0.016717477992774114
0.09727615866461901
-0.02000136082904846
-0.0070060979407574565
-0.07808821296351683
0.038213375627099734
0.01879046320372284
-0.025990136828327032
0.0020890674608880157
0.05700206085846416
0.09019561952822006
-0.0036607677658911488
-0.03171897379070152
-0.02627134431200596
-0.002034862377763951
0.014037503502420239
0.0838360164841671
0.0576341740183301
-0.10053503951297678
-0.11575832173196951
0.07947009024465868
0.0410393663095896
-0.005654121876016989
0.05635104913850027
-0.007024387063703597
-0.1544803127729325
0.07773180651860082
0.01838470196494769
0.0017570101252174083
0.011935655126865775
0.010852926680524478
-0.02506001472011276
-0.006265840378590514
-0.016284090742034654
0.02914558760214819
0.008441627843109282
0.034856541111678435
-0.05251380339883743
0.06695866813559853
0.06505498426385108
-0.1935880781858266
-0.033451110286393484
0.014828004175384967
0.0065334593064035424
-0.0040686734849386345
-0.002231469595649998
0.0594101963120851
0.12145087383717956
-0.16949435482965075
-0.1708943765204852
0.02972533299196025
0.012700199502957673
0.019156239443514342
-0.015339394002794752
-0.04106820468061169
-0.0672874795349629
0.015623029359981472
0.03964324982499027
0.0066077267879608315
-0.02237313836995455
-0.0013715045203597457
0.003768225283772004
-0.00563598302031955
0.07281231515705378
0.041108408635565176
0.021102830237965702
-0.0033949825540157863
0.026549127531223956
-0.0028257599065864354
0.023815318762603316
0.02567634271241912
0.08354272833368839
-0.015295664048115618
-0.03779014734276926
-0.014921833391482005
-0.038245739446466136
0.08687355539979191
0.0314379735233915
-0.06203392565281095
0.045132539188075416
0.13190462471293424
-0.05297247729661688
0.040207230816274815
0.019100864098106563
-0.0036685507717568447
0.00532718234285533
0.07033858473803012
0.00038980601236258825
0.007086937445096369
0.003137929001878103
-0.17637453279015647
0.0418835030244795
-0.15723143396028344
-0.06081180264337797
0.02111130920409692
-0.021062154337080214
0.0144581582049407
0.012148904506028813
0.02777011723525155
0.0143403168149016
-0.028004071819435334
-0.054614322599753816
0.04818323890604345
-0.06390300778240032
-0.0616818148648758
-0.010584997759844447
0.01752490663606226
0.009972001991035104
0.01176536575960568
-0.002949195620985646
0.01695875588254752
0.01152810674642961
-0.013949416360185379
0.012163545399565458
-0.00129628921403969
0.002177327353655146
0.030361945902194397
-0.004421875909371413
-0.03127326346715835
-0.04360513185361534
-0.03220126229416047
0.03193169306166985
0.03120106881343811
-0.0030880104958482123
0.06373205883086554
0.004584252563720729
-0.0004720831075425871
0.011462837236143142
-0.0007408671094665119
-0.0006966204151365349
-0.011990170314582793
0.038488419075282596
0.09759418883472175
-0.002315125087607149
-0.009163998923837423
0.04210314006888578
-0.00019932312859468807
-0.0003366026555688558
-0.035033857471976175
-0.05832263008843696
0.02835780087564298
0.005697486852689246
0.022741622918706704
-0.06778790941823092
-0.07740289879552828
0.012882873717891014
-0.017612632567542055
-0.0006469752230756875
0.022404032688533505
-0.0009373039417556584
-0.019226871262958918
0.01983532120473111
0.006227260851155339
-0.026208913372181907
-0.0309504670603731
0.03296190003512484
0.04962524155527941
0.05799330050255306
-0.041277622336440785
0.0209942973783867
-0.028613538867731676
-0.051030120227195
-0.011893122714930359
-0.018531240849223675
0.001824349921501376
-0.0026061084541110866
0.029253601237546546
0.10848425571882865
-0.04485073643875456
-0.03213731645887981
0.040135641359736914
0.019520784385770883
-0.000616061117917403
-0.02990901923353482
0.004780202723965497
-0.00017556403678989393
-3.868878947465051e-05
-0.011105083308588835
0.012160647811209258
0.023207447267272887
-0.02080953088534271
-0.03117811125988004
0.0208819070686742
-0.015216522984221329
0.051098202722227634
-0.013065659931071803
0.007337251005327486
-0.12084025644603888
-0.04311187696341867
-0.03285010483545566
0.12959157886921485
0.12875970868531475
-0.04390380676410936
0.0015064406338774993
-0.018897397368859495
-0.037909433381969664
0.000990457278495741
0.01398151869996075
-0.013696582923752405
-0.02325424479912876
0.01957979545771096
0.0008262303988000072
-0.009253347872752822
-0.02736378992654664
-0.0013703312245095475
0.021403821958826577
0.009522635445202767
-0.01772462941877814
-0.010460591075211054
0.05481166325174214
0.03153784818605493
0.023809943476438392
-0.005239736890818348
-0.004536366692801508
0.01592689859296523
-0.013068276706264138
-0.015837197834337628
-0.012070630197845664
-0.006828220528595733
-0.014709952597251814
-0.01155862069715667
-0.002097918591265498
0.012626361172581488
-0.08212516753727028
-0.060537628698541
0.05162531926206949
0.07611766263901848
0.03543748287455624
-0.039079337451465544
0.002589515426002809
-0.046917900428009966
0.003620521984184573
-0.004129915800590275
0.024511504603885705
0.01566304473130897
-0.015021720322830086
-0.00827115958647974
0.012060023571620353
-0.028154915882162117
-0.07631211046495388
-0.0012697393631763607
0.014667563647910541
0.028163988836262643
0.006952043597681108
0.00877146271865265
-0.02223058437431839
-0.013850161075365346
-0.021559785550275466
-0.03638248567418119
-0.008074448913636
0.06194690292835237
0.06536127375822058
0.038364921245486655
-0.01494076256562356
0.029237484552052384
0.11121157808619636
-0.02730831908717417
0.07888753251998644
0.04982938533490248
-0.03552345045660091
-0.03378119187739119
0.013173274940722382
-0.09871921822068234
-0.005194973974758235
0.09383503774303623
-0.02249842084457183
0.022628451466756176
-0.008600723509084446
0.008597005448812155
0.0157014885455995
0.024697553203316448
0.010948740469975049
-0.0027354794503768863
0.008451064207831724
0.022067140209427936
-0.1507397924579885
-0.06395618495258538
0.04016438095927931
-0.01644716530794891
0.029082893816455742
0.00397958921600079
-0.17505926988028847
-0.0442324108288908
0.01775300986164296
-0.025256507333428362
-0.01632214804144865
0.004804865773110907
0.02295081352997621
0.03244586815889208
0.020601413023134167
-0.027955954957959148
0.029864971648604834
0.030104692107693298
0.015229721782029792
-0.09456495834713724
-0.028244031940736606
0.02803338148638359
-0.007977153401369957
0.030680696712244375
0.01674541599637723
