,0
0.0,-0.008242523809639113
0.005276710709612056,-0.04102527184868117
0.010553421419224112,-0.0623793734436737
0.015830132128836168,-0.06659419309904521
0.021106842838448225,-0.058344660493469785
0.026383553548060282,-0.04804067629496948
0.031660264257672335,-0.043801352131825545
0.036936974967284396,-0.048417852445973804
0.04221368567689645,-0.05752554163527038
0.0474903963865085,-0.05986919419836903
0.052767107096120563,-0.0445604910676498
0.05804381780573262,-0.009876624979246152
0.06332052851534467,0.030040162134537342
0.06859723922495674,0.046711664414325116
0.07387394993456879,0.022813317214518545
0.07915066064418085,-0.02497816187399724
0.0844273713537929,-0.06500642074456872
0.08970408206340497,-0.08089011882481882
0.094980792773017,-0.07547980450370495
0.10025750348262907,-0.06061853296885456
0.10553421419224113,-0.04794029107451901
0.11081092490185318,-0.04365918092921862
0.11608763561146523,-0.04739062986853999
0.1213643463210773,-0.05311368600299062
0.12664105703068934,-0.05336711352636661
0.1319177677403014,-0.04495518622652009
0.13719447844991348,-0.02953195646719059
0.14247118915952553,-0.01142560387450962
0.14774789986913758,0.0019133535772904216
0.1530246105787496,0.004269908028668116
0.1583013212883617,-0.0009483366474602269
0.16357803199797374,-0.002436164194724905
0.1688547427075858,0.009740533452333833
0.17413145341719785,0.03367571814822868
0.17940816412680993,0.04999759384121871
0.18468487483642199,0.03986620364296449
0.189961585546034,0.007973517645591968
0.19523829625564607,-0.02572742513967868
0.20051500696525815,-0.046094840378784814
0.2057917176748702,-0.0474912179250018
0.21106842838448225,-0.031736515193669816
0.2163451390940943,-0.008497184859871554
0.22162184980370636,0.006684102827175128
0.22689856051331841,0.003779409207757854
0.23217527122293047,-0.011943597357943593
0.23745198193254252,-0.027418944806935013
0.2427286926421546,-0.03421994042313333
0.24800540335176663,-0.030848706958014713
0.2532821140613787,-0.021733751983762865
0.25855882477099074,-0.015786753858394828
0.2638355354806028,-0.018716142624956453
0.26911224619021484,-0.027604195974325705
0.27438895689982695,-0.03661078754089847
0.279665667609439,-0.04173724352881937
0.28494237831905106,-0.03798050291781554
0.2902190890286631,-0.019545047786081862
0.29549579973827517,0.013282993797193207
0.3007725104478872,0.04665194587553409
0.3060492211574992,0.05812464840690812
0.31132593186711127,0.03900110290866903
0.3166026425767234,0.004894858206015893
0.32187935328633543,-0.022257325090077797
0.3271560639959475,-0.03230146521994489
0.33243277470555954,-0.02790165172214299
0.3377094854151716,-0.017978798370205096
0.34298619612478365,-0.009648280447286085
0.3482629068343957,-0.0037136247356350485
0.35353961754400776,0.0013926403971195427
0.35881632825361987,0.0036907653334229203
0.3640930389632319,-0.0011001026675738412
0.36936974967284397,-0.013403960683706691
0.37464646038245597,-0.027184991714555375
0.379923171092068,-0.03493794729615483
0.3851998818016801,-0.03401870683074623
0.39047659251129213,-0.026753413805483895
0.39575330322090424,-0.019336070085884352
0.4010300139305163,-0.024341078371983408
0.40630672464012835,-0.058503806426199886
0.4115834353497404,-0.12874135917700322
0.41686014605935245,-0.20974277844187925
0.4221368567689645,-0.24516331072553313
0.42741356747857656,-0.20470366003638865
0.4326902781881886,-0.12353805398866147
0.4379669888978007,-0.05370921641150431
0.4432436996074127,-0.013956697751450014
0.4485204103170248,0.000285909671493522
0.45379712102663683,-0.0019472334274186378
0.4590738317362489,-0.01061460954481101
0.46435054244586094,-0.01585516805090018
0.469627253155473,-0.011961623143166001
0.47490396386508504,-0.00328532102386849
0.48018067457469715,-0.0015100781075139441
0.4854573852843092,-0.010824221803801002
0.4907340959939212,-0.02238970088218764
0.49601080670353326,-0.027238947702253283
0.5012875174131454,-0.024726357393642172
0.5065642281227574,-0.018247021906385524
0.5118409388323695,-0.011800201036204884
0.5171176495419815,-0.008838679329227037
0.5223943602515936,-0.010853976199724256
0.5276710709612056,-0.018560602890272154
0.5329477816708177,-0.03317751951024275
0.5382244923804297,-0.052848074053529974
0.5435012030900418,-0.06855146164300238
0.5487779137996539,-0.07156972666903211
0.5540546245092659,-0.06410567166973673
0.559331335218878,-0.05425976773635433
0.56460804592849,-0.04558648469473526
0.5698847566381021,-0.03747866913080789
0.5751614673477141,-0.030469725321880088
0.5804381780573262,-0.02667720085283014
0.5857148887669383,-0.026625576885098094
0.5909915994765503,-0.027110242177776973
0.5962683101861624,-0.021223076810239633
0.6015450208957744,-0.0018682623047542911
0.6068217316053865,0.03241047924362245
0.6120984423149984,0.07177599588552176
0.6173751530246105,0.09480048366637708
0.6226518637342225,0.08478569890342856
0.6279285744438347,0.04930608245640374
0.6332052851534468,0.012606397325105254
0.6384819958630588,-0.008529395524388233
0.6437587065726709,-0.01309252514840373
0.6490354172822829,-0.008862629240651362
0.654312127991895,-0.005728115996498924
0.659588838701507,-0.009765459545710184
0.6648655494111191,-0.01784828141233287
0.6701422601207312,-0.01951947458914876
0.6754189708303432,-0.005764546137870941
0.6806956815399553,0.023457296484131886
0.6859723922495673,0.05937979018280425
0.6912491029591794,0.08790381891653984
0.6965258136687914,0.09401692928623023
0.7018025243784035,0.07464649934214362
0.7070792350880155,0.04398722774266835
0.7123559457976276,0.0174298586421727
0.7176326565072397,0.001063248409122166
0.7229093672168517,-0.0031740711626790223
0.7281860779264638,0.004481629565477565
0.7334627886360758,0.01870733675271088
0.7387394993456879,0.029623571070583922
0.7440162100552998,0.028060487380201077
0.7492929207649119,0.011624158839823925
0.754569631474524,-0.013268541507880852
0.759846342184136,-0.03409544905603129
0.7651230528937482,-0.03850068167078717
0.7703997636033602,-0.02418709585316957
0.7756764743129723,-0.00203269798790703
0.7809531850225843,0.015289542135856229
0.7862298957321964,0.023461564819504368
0.7915066064418085,0.02432119954277774
0.7967833171514205,0.019192158367965045
0.8020600278610326,0.00735992061967786
0.8073367385706446,-0.009283494421233216
0.8126134492802567,-0.024987761480525762
0.8178901599898687,-0.03654612684398189
0.8231668706994808,-0.046284167247255543
0.8284435814090928,-0.05708222599866264
0.8337202921187049,-0.0688016884434438
0.838997002828317,-0.07583785458658317
0.844273713537929,-0.06766999839960341
0.8495504242475411,-0.04247450290170316
0.8548271349571531,-0.014986821180902932
0.8601038456667652,-0.0012024693709618947
0.8653805563763772,-0.002921677402016764
0.8706572670859893,-0.009146748035293088
0.8759339777956014,-0.00692302304396216
0.8812106885052133,0.007615996448296216
0.8864873992148254,0.026869840565572036
0.8917641099244374,0.038636463228712344
0.8970408206340496,0.03259355564680683
0.9023175313436615,0.0023267104666509896
0.9075942420532737,-0.051743985890685615
0.9128709527628857,-0.1118983984019997
0.9181476634724978,-0.14137322737639405
0.9234243741821099,-0.11728177108913919
0.9287010848917219,-0.0593497131218325
0.933977795601334,-0.004227192837216785
0.939254506310946,0.03093876315013063
0.9445312170205581,0.0479987604020083
0.9498079277301701,0.052201782310588814
0.9550846384397822,0.04483516766535758
0.9603613491493943,0.024998403529106015
0.9656380598590063,-0.0032392531311735964
0.9709147705686184,-0.028430668770121684
0.9761914812782304,-0.0403458869598836
0.9814681919878424,-0.03834248979541163
0.9867449026974544,-0.02980251551264725
0.9920216134070665,-0.02481812730199288
0.9972983241166786,-0.029752759033775816
1.0025750348262907,-0.039891179833388635
1.0078517455359026,-0.042628153938552384
1.0131284562455147,-0.03233677009215688
1.0184051669551268,-0.016678314029595926
1.023681877664739,-0.003652994491334977
1.0289585883743508,0.01274245767786113
1.034235299083963,0.046622918730596166
1.039512009793575,0.09507717457124037
1.0447887205031872,0.12785469822098333
1.0500654312127993,0.12212702061798839
1.0553421419224112,0.0928085756800219
1.0606188526320233,0.06737001507278297
1.0658955633416354,0.05463955383815381
1.0711722740512475,0.04829177804680729
1.0764489847608594,0.041156391351136655
1.0817256954704715,0.031966988527953176
1.0870024061800836,0.0226454170056945
1.0922791168896957,0.010893566719288313
1.0975558275993078,-0.010953819404646157
1.1028325383089197,-0.043263186311482515
1.1081092490185318,-0.06765861119511349
1.113385959728144,-0.0651898142036915
1.118662670437756,-0.041882916789357266
1.123939381147368,-0.0180958299468842
1.12921609185698,-0.005534928271023351
1.1344928025665921,-0.005207812918471996
1.1397695132762042,-0.012909778133884187
1.1450462239858163,-0.023715412864207024
1.1503229346954282,-0.03567360501389176
1.1555996454050403,-0.04632466394917798
1.1608763561146525,-0.049262871552234994
1.1661530668242646,-0.03856157383602562
1.1714297775338767,-0.013139536399807205
1.1767064882434886,0.023100693946310116
1.1819831989531007,0.061011177757998275
1.1872599096627128,0.08553893527196355
1.1925366203723249,0.08337360906762417
1.1978133310819368,0.05886897727628104
1.2030900417915489,0.033298229424749255
1.208366752501161,0.023459481946160706
1.213643463210773,0.03132738190075135
1.218920173920385,0.04869094718324228
1.2241968846299969,0.06097980133033354
1.229473595339609,0.0562545171375562
1.234750306049221,0.03720536428758682
1.2400270167588332,0.01835323640004658
1.245303727468445,0.010416607614011145
1.2505804381780572,0.010694739251823735
1.2558571488876693,0.008113264564145272
1.2611338595972814,-0.003543816909847332
1.2664105703068935,-0.017189855774958778
1.2716872810165054,-0.019391757415303884
1.2769639917261175,-0.004829061402214455
1.2822407024357296,0.02113796635884615
1.2875174131453417,0.04826946633619025
1.2927941238549538,0.0645422258512308
1.2980708345645657,0.0631568315370996
1.3033475452741778,0.048388987840992846
1.30862425598379,0.028616627104263874
1.313900966693402,0.007564055535539771
1.319177677403014,-0.012901519489873118
1.324454388112626,-0.025418616312016692
1.3297310988222382,-0.02246634682462605
1.3350078095318503,-0.00938292777440498
1.3402845202414624,0.0007473864480014281
1.3455612309510743,0.004550752148641347
1.3508379416606864,0.008796531206994803
1.3561146523702985,0.017068514871917604
1.3613913630799106,0.02652108928365216
1.3666680737895225,0.03406484251464037
1.3719447844991346,0.03661137175912278
1.3772214952087467,0.029750334809954364
1.3824982059183588,0.013572675823106218
1.387774916627971,-0.005048222718995693
1.3930516273375828,-0.01867448179381287
1.398328338047195,-0.02346945089998687
1.403605048756807,-0.019397893989297504
1.4088817594664191,-0.009581974047064774
1.414158470176031,0.0013996255084224524
1.4194351808856431,0.00798189296843324
1.4247118915952552,0.006607428750040224
1.4299886023048674,0.0023958912337906724
1.4352653130144795,0.005864891215720751
1.4405420237240913,0.018809690614326587
1.4458187344337035,0.030650035509765985
1.4510954451433156,0.030950506600638195
1.4563721558529277,0.018819836881650724
1.4616488665625398,8.770798128682417e-05
1.4669255772721517,-0.018374067416124493
1.4722022879817638,-0.031062740821044727
1.4774789986913759,-0.03444127001204077
1.482755709400988,-0.027858957715941664
1.4880324201105997,-0.015244693835949655
1.4933091308202118,-0.0030765644495500738
1.4985858415298239,0.005303828788401758
1.503862552239436,0.009241078888929867
1.509139262949048,0.006869133766882857
1.51441597365866,-0.0011116853575997361
1.519692684368272,-0.008448235940112778
1.5249693950778842,-0.011649103231731569
1.5302461057874963,-0.01588715580459176
1.5355228164971082,-0.02582390746626256
1.5407995272067203,-0.03613473662990483
1.5460762379163324,-0.03798524354300244
1.5513529486259445,-0.030195435567361907
1.5566296593355566,-0.019356441090833353
1.5619063700451685,-0.012510371891870577
1.5671830807547806,-0.012165933812643508
1.5724597914643927,-0.017120308433562065
1.5777365021740049,-0.02507434511152327
1.583013212883617,-0.03371770900056667
1.5882899235932288,-0.04174893691480909
1.593566634302841,-0.04856132275307701
1.598843345012453,-0.053217956292805006
1.6041200557220652,-0.054807909154161435
1.609396766431677,-0.052120058065081735
1.6146734771412892,-0.04388557242145194
1.6199501878509013,-0.029637412907025432
1.6252268985605134,-0.007557160130598147
1.6305036092701255,0.024822764168635273
1.6357803199797374,0.06254867026115653
1.6410570306893495,0.09067213795396668
1.6463337413989616,0.09580649523267062
1.6516104521085737,0.07852387259542673
1.6568871628181856,0.050073897930412406
1.6621638735277977,0.020331285101787926
1.6674405842374098,-0.004526499229980154
1.672717294947022,-0.019700448463670573
1.677994005656634,-0.02388722911245045
1.683270716366246,-0.01941216074140014
1.688547427075858,-0.010886543014695618
1.6938241377854701,-0.0037353874973106767
1.6991008484950822,-0.001448115805663585
1.7043775592046941,-0.004725623264886914
1.7096542699143062,-0.011683783310804979
1.7149309806239184,-0.01837517873422184
1.7202076913335305,-0.020279331641581733
1.7254844020431426,-0.014840319714805981
1.7307611127527545,-0.003918018983113954
1.7360378234623666,0.007351552598583285
1.7413145341719787,0.014192793830835534
1.7465912448815908,0.016769200269755192
1.751867955591203,0.02257497417643243
1.7571446663008146,0.038080927627766985
1.7624213770104267,0.056936110536391485
1.7676980877200388,0.06475805448721907
1.7729747984296509,0.056015955266596126
1.7782515091392628,0.037477801104280783
1.7835282198488749,0.01766738224529445
1.788804930558487,0.003490704086947946
1.794081641268099,0.0013516957874083293
1.7993583519777112,0.01093168906670667
1.804635062687323,0.022773871574016457
1.8099117733969352,0.026727584240016256
1.8151884841065473,0.019628058840333088
1.8204651948161594,0.006584682594815205
1.8257419055257713,-0.0031363281267822373
1.8310186162353834,-0.004732121724353331
1.8362953269449955,-0.0012052125672062852
1.8415720376546076,0.0025520519293448646
1.8468487483642197,0.004812832749812803
1.8521254590738316,0.005645514270764478
1.8574021697834437,0.002946632266561724
1.8626788804930559,-0.005647801448253572
1.867955591202668,-0.016951626908141323
1.87323230191228,-0.02523703667007137
1.878509012621892,-0.029889074591800253
1.883785723331504,-0.03355105763909531
1.8890624340411162,-0.0346451781469175
1.8943391447507283,-0.029663213955257117
1.8996158554603402,-0.02175037058593627
1.9048925661699523,-0.01750695385465898
1.9101692768795644,-0.017034402694675328
1.9154459875891765,-0.015153835557255782
1.9207226982987886,-0.009897422781142893
1.9259994090084005,-0.0036727513126951117
1.9312761197180126,0.002380593627501982
1.9365528304276247,0.008972289708635364
1.9418295411372368,0.01332410950539779
1.9471062518468487,0.009625242645395181
1.9523829625564608,-0.0028926844652106165
1.9576596732660727,-0.017309025646395266
1.9629363839756848,-0.026095704333690954
1.968213094685297,-0.02677869353451473
1.9734898053949088,-0.02076825862226015
1.978766516104521,-0.010233587932422988
1.984043226814133,0.004003144624981805
1.9893199375237451,0.024700437725500256
1.9945966482333573,0.05717532753835073
1.9998733589429691,0.09705445004443003
2.0051500696525815,0.12152357416321148
2.0104267803621934,0.11138221051505105
2.0157034910718052,0.07622168387313848
2.0209802017814176,0.03974269395560641
2.0262569124910295,0.014137380775916608
2.0315336232006413,-0.001146114934150541
2.0368103339102537,-0.009677299211128983
2.0420870446198656,-0.012233483062676862
2.047363755329478,-0.007675018974325458
2.05264046603909,0.0020125562328137977
2.0579171767487017,0.008847792971362865
2.063193887458314,0.0020845050900059918
2.068470598167926,-0.021538738701693004
2.073747308877538,-0.04972234682938255
2.07902401958715,-0.062025986074631674
2.084300730296762,-0.05126992558393903
2.0895774410063743,-0.034351945822623374
2.094854151715986,-0.03299564051579708
2.1001308624255985,-0.0479481606823078
2.1054075731352104,-0.06045481372940178
2.1106842838448223,-0.0559883583952639
2.1159609945544346,-0.038065801338543974
2.1212377052640465,-0.018891569794706964
2.126514415973659,-0.007066576011861572
2.1317911266832708,-0.005017189978609189
2.1370678373928826,-0.008894587316751882
2.142344548102495,-0.009565954524957032
2.147621258812107,-0.0003752693085820404
2.1528979695217187,0.01361092849711934
2.158174680231331,0.021807463092569295
2.163451390940943,0.02200641376853199
2.1687281016505553,0.017593542083146098
2.174004812360167,0.008777746451295606
2.179281523069779,-0.0035982777393231812
2.1845582337793914,-0.014546522012826272
2.1898349444890033,-0.02124567190558012
2.1951116551986156,-0.026634577940285776
2.2003883659082275,-0.034629976677405215
2.2056650766178394,-0.04721362312164123
2.2109417873274517,-0.06723280263155824
2.2162184980370636,-0.09709873297620794
2.221495208746676,-0.12662796397528406
2.226771919456288,-0.12987586254273106
2.2320486301658997,-0.09413019875635982
2.237325340875512,-0.04029906926141105
2.242602051585124,0.004245968882130546
2.247878762294736,0.030502433355912097
2.253155473004348,0.03872751878898459
2.25843218371396,0.029832074941392953
2.2637088944235724,0.008840574687281388
2.2689856051331843,-0.015814386471892924
2.274262315842796,-0.03907427209817817
2.2795390265524085,-0.06206603601553044
2.2848157372620204,-0.08445140016909318
2.2900924479716327,-0.10120386818698221
2.2953691586812446,-0.12013853612079337
2.3006458693908565,-0.16390851480055788
2.305922580100469,-0.22710938615555315
2.3111992908100807,-0.25783723516538
2.316476001519693,-0.2187386077237007
2.321752712229305,-0.1369694774650347
2.327029422938917,-0.06424066495607494
2.332306133648529,-0.023500982021021955
2.337582844358141,-0.008880557218173681
2.3428595550677533,-0.004942004429667302
2.3481362657773652,0.0012984369047015143
2.353412976486977,0.011858554760734163
2.3586896871965894,0.018628942299385633
2.3639663979062013,0.018016488941256445
2.369243108615813,0.02048847106045057
2.3745198193254256,0.04105934183807827
2.3797965300350374,0.08416783117407216
2.3850732407446498,0.1339778974469502
2.3903499514542617,0.159418955281521
2.3956266621638735,0.1420171010673532
2.400903372873486,0.09487931004184452
2.4061800835830978,0.04531461341319398
2.41145679429271,0.010036206837041197
2.416733505002322,-0.009750842321314193
2.422010215711934,-0.01946455395264692
2.427286926421546,-0.02110112042548579
2.4325636371311576,-0.012207675611577914
2.43784034784077,0.005512887847979158
2.443117058550382,0.02215551077329796
2.4483937692599937,0.028965014729043247
2.453670479969606,0.026265385684362815
2.458947190679218,0.018576177757338413
2.4642239013888303,0.008276908186753102
2.469500612098442,-0.0045545719489431865
2.474777322808054,-0.01983482140724598
2.4800540335176664,-0.034507789452374815
2.4853307442272783,-0.041687136986086434
2.49060745493689,-0.03576442354222341
2.4958841656465025,-0.019522060776085794
2.5011608763561144,-0.003516109063356733
2.5064375870657267,0.004058268000049551
2.5117142977753386,0.005415755606295182
2.5169910084849505,0.009064450984943698
2.522267719194563,0.0199625976372266
2.5275444299041747,0.03593578883558489
2.532821140613787,0.05000132456880011
2.538097851323399,0.053394404947988645
2.543374562033011,0.041030284314702514
2.548651272742623,0.01691990101871966
2.553927983452235,-0.008794769542049205
2.5592046941618474,-0.027761010339904923
2.5644814048714593,-0.037055768687385075
2.569758115581071,-0.03793688043116759
2.5750348262906835,-0.03203264288340383
2.5803115370002954,-0.018578752939612645
2.5855882477099077,0.004113158800750387
2.5908649584195196,0.03616531047215823
2.5961416691291315,0.07059324845685075
2.601418379838744,0.08806306472053103
2.6066950905483557,0.07274315443144248
2.6119718012579676,0.03431730786017082
2.61724851196758,-0.0015064333903106776
2.622525222677192,-0.016286302141488
2.627801933386804,-0.005205244401953537
2.633078644096416,0.026673959300736894
2.638355354806028,0.06898455304499461
2.6436320655156402,0.10530474988471418
2.648908776225252,0.11316748076282136
2.6541854869348644,0.08505417086957123
2.6594621976444763,0.04321395492399405
2.664738908354088,0.015335268986612692
2.6700156190637006,0.009415026639073978
2.6752923297733124,0.01623879993861657
2.6805690404829248,0.02054140278775217
2.6858457511925367,0.013538420559741625
2.6911224619021485,0.0005052568792036877
2.696399172611761,-0.008670978888052742
2.7016758833213728,-0.012734511702128928
2.706952594030985,-0.01672250127182027
2.712229304740597,-0.02225778436471386
2.717506015450209,-0.027413823634840576
2.722782726159821,-0.031574128471498666
2.728059436869433,-0.0334182411875266
2.733336147579045,-0.027534923030537985
2.7386128582886573,-0.00856652109439815
2.743889568998269,0.024591269442974243
2.7491662797078815,0.07244024222260685
2.7544429904174934,0.13553061975760192
2.7597197011271053,0.19756362270300518
2.7649964118367176,0.2179111312640521
2.7702731225463295,0.17297878624408905
2.775549833255942,0.0912498053559111
2.7808265439655537,0.0190200334983269
2.7861032546751656,-0.02163695816958492
2.791379965384778,-0.03166804934263148
2.79665667609439,-0.022152834825267934
2.801933386804002,-0.006047309920417368
2.807210097513614,0.010287059778575667
2.812486808223226,0.03346836678083135
2.8177635189328383,0.07855380946363259
2.82304022964245,0.14608415910331735
2.828316940352062,0.20319888794360222
2.8335936510616744,0.20850746637586826
2.8388703617712863,0.16161074576443382
2.8441470724808986,0.10300025186660967
2.8494237831905105,0.06255944678368901
2.8547004939001224,0.036154305343673226
2.8599772046097347,0.011856610185256095
2.8652539153193466,-0.008454728847122405
2.870530626028959,-0.01791590372588825
2.875807336738571,-0.01605437111894448
2.8810840474481827,-0.006107776799034156
2.886360758157795,0.007834983887614983
2.891637468867407,0.01936384565504444
2.8969141795770192,0.022723860976113737
2.902190890286631,0.01741602975197083
2.907467600996243,0.0061848267578051355
2.9127443117058553,-0.00894357609152505
2.9180210224154672,-0.025607202575749846
2.9232977331250796,-0.03930380474181497
2.9285744438346915,-0.045828875644854376
2.9338511545443033,-0.04526590498713633
2.9391278652539157,-0.040770962212752664
2.9444045759635276,-0.03321797832765055
2.9496812866731394,-0.02200731262577893
2.9549579973827518,-0.0102837970962718
2.9602347080923637,-0.0028382964494095874
2.965511418801976,-0.0002545638121580298
2.970788129511588,-0.00023255591434301467
2.9760648402211993,-0.0015669113853322134
2.9813415509308117,-0.0036259709641673957
2.9866182616404235,-0.005117262885909957
2.991894972350036,-0.005083328181782334
2.9971716830596478,-0.007196512386973843
3.0024483937692596,-0.020737889109927608
3.007725104478872,-0.04624277180524221
3.013001815188484,-0.06612227035330637
3.018278525898096,-0.06489733402643527
3.023555236607708,-0.04768861326706975
3.02883194731732,-0.0287196451566153
3.0341086580269323,-0.015861967232573264
3.039385368736544,-0.01015027120121922
3.0446620794461565,-0.010421357405808723
3.0499387901557684,-0.01593686906102509
3.0552155008653803,-0.025616255660374263
3.0604922115749926,-0.035566645698304894
3.0657689222846045,-0.03993416866437788
3.0710456329942164,-0.03647880837670658
3.0763223437038287,-0.02999922776021372
3.0815990544134406,-0.02775177064795536
3.086875765123053,-0.03155833082720871
3.092152475832665,-0.03506532605085294
3.0974291865422767,-0.029251724256084046
3.102705897251889,-0.010718997460868792
3.107982607961501,0.013492088802368865
3.1132593186711133,0.02871579578698321
3.118536029380725,0.026100730056388022
3.123812740090337,0.011993555988249959
3.1290894507999494,-0.001214062397352795
3.1343661615095613,-0.00809747879441761
3.1396428722191736,-0.011552382595384374
3.1449195829287855,-0.01597460522219644
3.1501962936383974,-0.021481333291460486
3.1554730043480097,-0.024739188529678047
3.1607497150576216,-0.023380982419810053
3.166026425767234,-0.018354717229063497
3.171303136476846,-0.01340355077350023
3.1765798471864577,-0.012596975983275796
3.18185655789607,-0.016565805041611308
3.187133268605682,-0.02183509216163477
3.192409979315294,-0.025132655561615973
3.197686690024906,-0.025922800710467705
3.202963400734518,-0.025118753786508952
3.2082401114441303,-0.024465916752899042
3.2135168221537422,-0.025981082654782477
3.218793532863354,-0.03047157382482421
3.2240702435729665,-0.03743192444688904
3.2293469542825783,-0.04561476332699006
3.2346236649921907,-0.053551753785811645
3.2399003757018026,-0.05922880889374777
3.2451770864114144,-0.058430278480376796
3.2504537971210268,-0.048136187040015856
3.2557305078306387,-0.031127913971945094
3.261007218540251,-0.012030157737114492
3.266283929249863,0.005900058587038332
3.2715606399594748,0.01803661850194307
3.276837350669087,0.019242663067577975
3.282114061378699,0.008848842565790561
3.287390772088311,-0.007266792224860199
3.292667482797923,-0.020117372157086907
3.297944193507535,-0.02379523312347252
3.3032209042171474,-0.019470065514418926
3.3084976149267593,-0.01390231927967843
3.313774325636371,-0.01433659599402801
3.3190510363459835,-0.023394408697282064
3.3243277470555954,-0.034628660475160285
3.3296044577652077,-0.035487540851016686
3.3348811684748196,-0.02118310186524152
3.3401578791844315,-0.0014305302203323112
3.345434589894044,0.009922089692151055
3.3507113006036557,0.0068165923587596685
3.355988011313268,-0.00662668920272806
3.36126472202288,-0.021347346765770794
3.366541432732492,-0.03145685712553571
3.371818143442104,-0.037850338571983506
3.377094854151716,-0.0433277500139129
3.3823715648613284,-0.045622452570349144
3.3876482755709403,-0.036056422947828966
3.392924986280552,-0.004720155182406862
3.3982016969901645,0.04987480272704545
3.4034784076997764,0.1089710083358484
3.4087551184093883,0.13656615607928604
3.4140318291190006,0.11333369145532811
3.4193085398286125,0.059285148879968844
3.424585250538225,0.007222516764799904
3.4298619612478367,-0.026870509842372624
3.4351386719574486,-0.04354805384450674
3.440415382667061,-0.051028807278630836
3.445692093376673,-0.05608872111097382
3.450968804086285,-0.05758357082616803
3.456245514795897,-0.05129193058808465
3.461522225505509,-0.03782534041114832
3.4667989362151213,-0.021906088310216086
3.472075646924733,-0.00727440255036271
3.4773523576343455,0.005554357023377578
3.4826290683439574,0.018086999312658506
3.4879057790535692,0.02894225099882847
3.4931824897631816,0.031384128483699036
3.4984592004727935,0.02041599905470476
3.503735911182406,-0.0006121737223791016
3.5090126218920177,-0.02334891078745135
3.514289332601629,-0.04039761785731032
3.5195660433112415,-0.04755910233662901
3.5248427540208533,-0.0436818020815829
3.5301194647304652,-0.02912061787366488
3.5353961754400776,-0.002894841765941309
3.5406728861496894,0.03693226951075491
3.5459495968593018,0.08186242648667398
3.5512263075689137,0.10686550823007364
3.5565030182785256,0.09594874470160661
3.561779728988138,0.06503395796736827
3.5670564396977498,0.04077842737442056
3.572333150407362,0.03353923834035456
3.577609861116974,0.038539701962279606
3.582886571826586,0.045269469460726866
3.588163282536198,0.04405268178284405
3.59343999324581,0.03325432923049906
3.5987167039554224,0.01906055063801809
3.6039934146650343,0.006602673321668353
3.609270125374646,-0.0032954340424280427
3.6145468360842585,-0.010289084755964554
3.6198235467938704,-0.013595523880705276
3.6251002575034827,-0.012793578362058782
3.6303769682130946,-0.007310658473185646
3.6356536789227065,0.0035203807890574184
3.640930389632319,0.020397897154247484
3.6462071003419307,0.042145417159844746
3.6514838110515426,0.059802248284760814
3.656760521761155,0.05856797042026561
3.662037232470767,0.03555567821485973
3.667313943180379,0.006593509581346704
3.672590653889991,-0.012256648599427017
3.677867364599603,-0.017219285520849795
3.6831440753092153,-0.012258189832807794
3.688420786018827,-0.0031995841233546972
3.6936974967284395,0.006852856452869283
3.6989742074380514,0.01772444245796671
3.7042509181476633,0.02726895330099146
3.7095276288572756,0.03057228242574214
3.7148043395668875,0.023179147798341886
3.7200810502765,0.001684166226823634
3.7253577609861117,-0.034640854764945744
3.7306344716957236,-0.0754610612456825
3.735911182405336,-0.09829914925202027
3.741187893114948,-0.08721981713938337
3.74646460382456,-0.047475591969447783
3.751741314534172,0.002679199040337461
3.757018025243784,0.04497316344529674
3.7622947359533963,0.06701410908686238
3.767571446663008,0.06443113418422737
3.77284815737262,0.04111683719704233
3.7781248680822324,0.009328093393639597
3.7834015787918442,-0.014757983855476026
3.7886782895014566,-0.022417379964745406
3.7939550002110685,-0.018739024893823546
3.7992317109206803,-0.013760567004503847
3.8045084216302927,-0.01153907580975573
3.8097851323399046,-0.011936278097012332
3.815061843049517,-0.014700455854166473
3.820338553759129,-0.016582002034807954
3.8256152644687407,-0.011386174103816107
3.830891975178353,0.0013665778771102342
3.836168685887965,0.012605649443481009
3.8414453965975772,0.014938612406332308
3.846722107307189,0.011321162936612632
3.851998818016801,0.006264010126166787
3.8572755287264133,-0.0016701147959432409
3.862552239436025,-0.012637240118772614
3.867828950145637,-0.020564464483973435
3.8731056608552494,-0.02035660648928597
3.8783823715648613,-0.014542483931886079
3.8836590822744737,-0.009532599287770838
3.8889357929840855,-0.00809295387748733
3.8942125036936974,-0.00951060410335083
3.8994892144033098,-0.013106643959872603
3.9047659251129216,-0.016219975197403834
3.9100426358225335,-0.0145509601827365
3.9153193465321454,-0.006672231927676192
3.9205960572417573,0.00808239668132427
3.9258727679513696,0.030912728485361734
3.9311494786609815,0.05003490197001641
3.936426189370594,0.03659957263144691
3.9417029000802057,-0.017223079928115313
3.9469796107898176,-0.07012953352714335
3.95225632149943,-0.07973364385705797
3.957533032209042,-0.05403426087414011
3.962809742918654,-0.02564157851195991
3.968086453628266,-0.009557113555049275
3.973363164337878,-0.003231818476340501
3.9786398750474903,-0.0021677478099042477
3.983916585757102,-0.0036904877472523426
3.9891932964667145,-0.0037286263492040932
3.9944700071763264,0.003580864539700961
3.9997467178859383,0.025599426749527275
4.005023428595551,0.0674450803684552
4.010300139305163,0.11719010100145816
4.015576850014774,0.14255135988990564
4.020853560724387,0.12221770967482282
4.026130271433999,0.07151219986654211
4.0314069821436105,0.022521373531637343
4.036683692853223,-0.005952342543095631
4.041960403562835,-0.014466140283672707
4.047237114272447,-0.014847740849270312
4.052513824982059,-0.019245801864287482
4.057790535691671,-0.03366684628175362
4.063067246401283,-0.05693605809912633
4.068343957110895,-0.0789112254673488
4.073620667820507,-0.08401780937574871
4.07889737853012,-0.06617331398307456
4.084174089239731,-0.03647912302077552
4.0894507999493435,-0.010843834832744
4.094727510658956,0.002240643892517016
4.100004221368567,0.002283192524085828
4.10528093207818,-0.004970463839567651
4.110557642787792,-0.01177692215567408
4.115834353497403,-0.014834133953484352
4.121111064207016,-0.015249019737190167
4.126387774916628,-0.013811449547125876
4.13166448562624,-0.010600346575989348
4.136941196335852,-0.006726333924427177
4.142217907045464,-0.003004313248090774
4.147494617755076,0.00023389341333209407
4.152771328464688,0.0012970400629597721
4.1580480391743,-0.002974710221094364
4.1633247498839125,-0.016033686884113052
4.168601460593524,-0.03618231999014053
4.173878171303136,-0.05155521709653079
4.179154882012749,-0.051699883200171506
4.18443159272236,-0.04156965441963179
4.189708303431972,-0.03268977902567738
4.194985014141585,-0.028640762250681153
4.200261724851197,-0.026243516687583148
4.2055384355608085,-0.02277565453800913
4.210815146270421,-0.016870651789380537
4.216091856980033,-0.006757463329160766
4.221368567689645,0.006837136364642258
4.226645278399257,0.017858767355971732
4.231921989108869,0.019500024139686756
4.237198699818481,0.011222261571484201
4.242475410528093,-0.0017744955840446569
4.247752121237705,-0.014697628348751627
4.253028831947318,-0.024481335653595497
4.258305542656929,-0.0271481284391115
4.2635822533665415,-0.019469354890918226
4.268858964076154,-0.003791240150026805
4.274135674785765,0.012534802003999231
4.279412385495378,0.02276706614352614
4.28468909620499,0.022418198206559325
4.289965806914601,0.010888274191871264
4.295242517624214,-0.004284900032496649
4.300519228333826,-0.012427896325091118
4.3057959390434375,-0.008355768847453777
4.31107264975305,0.0077267361245180344
4.316349360462662,0.02938191237886472
4.3216260711722745,0.04206320200772119
4.326902781881886,0.035969840242599284
4.332179492591498,0.017871900854372416
4.337456203301111,0.00010416649517509292
4.342732914010722,-0.012780197315708834
4.348009624720334,-0.022887492897542792
4.353286335429947,-0.03463335736577495
4.358563046139558,-0.0505595181901044
4.3638397568491705,-0.06577062555249764
4.369116467558783,-0.0700288533999992
4.374393178268395,-0.05821758978223877
4.379669888978007,-0.034598165995687186
4.384946599687619,-0.006381156437751372
4.390223310397231,0.020512789525517473
4.395500021106843,0.03950735109303461
4.400776731816455,0.047263049148662105
4.406053442526067,0.049631508868616274
4.411330153235679,0.052204849255295026
4.416606863945291,0.0496337838725631
4.4218835746549034,0.03894244964604219
4.427160285364515,0.03358623300851648
4.432436996074127,0.04988170506773298
4.4377137067837396,0.08732545957207236
4.442990417493352,0.12352382267128484
4.448267128202963,0.12643345492025237
4.453543838912576,0.08417721278684595
4.458820549622188,0.01832822481412033
4.464097260331799,-0.041044628362806784
4.469373971041412,-0.07820659568416483
4.474650681751024,-0.0891775446908224
4.4799273924606355,-0.07592312985942332
4.485204103170248,-0.047560430776100344
4.49048081387986,-0.018000236732004727
4.495757524589472,0.0027700954507084916
4.501034235299084,0.012349437594146006
4.506310946008696,0.012235521628588705
4.511587656718309,0.005431883601570464
4.51686436742792,-0.0038696818196694554
4.522141078137532,-0.01166879680709683
4.527417788847145,-0.015233008494166537
4.532694499556756,-0.01407891048245131
4.5379712102663685,-0.011742927949949718
4.543247920975981,-0.013755783894255871
4.548524631685592,-0.022051201823673663
4.553801342395205,-0.03282124473500726
4.559078053104817,-0.03953464838355073
4.564354763814429,-0.038382410533512934
4.569631474524041,-0.03116723122011173
4.574908185233653,-0.02175389200711526
4.580184895943265,-0.012150794846700263
4.585461606652877,-0.004316277683539418
4.590738317362489,-0.0020564096759287304
4.5960150280721015,-0.007771842992988729
4.601291738781713,-0.018819059492555874
4.606568449491325,-0.028936475867433264
4.611845160200938,-0.032713012527376094
4.617121870910549,-0.029042957397234094
4.622398581620161,-0.022173871162989925
4.627675292329774,-0.018569363395976448
4.632952003039386,-0.02059539392769097
4.6382287137489975,-0.02462767982222883
4.64350542445861,-0.026232324695431745
4.648782135168222,-0.024718973819684235
4.654058845877834,-0.021833367923483452
4.659335556587446,-0.018363693672084395
4.664612267297058,-0.01471439598626763
4.66988897800667,-0.013789937343707781
4.675165688716282,-0.019370632034466217
4.680442399425894,-0.03037077235748487
4.685719110135507,-0.03875963757263488
4.690995820845118,-0.033315542112465436
4.6962725315547305,-0.0025356599357416187
4.701549242264343,0.06291707801288501
4.706825952973954,0.16013275419757858
4.712102663683567,0.2569200953353449
4.717379374393179,0.29901683607751534
4.72265608510279,0.26647844633157824
4.727932795812403,0.20383863554329215
4.733209506522015,0.15921786312899985
4.738486217231626,0.12953519916756767
4.743762927941239,0.09213100091219743
4.749039638650851,0.048605097831013244
4.754316349360463,0.016007940678046312
4.759593060070075,0.0008464307688571186
4.764869770779687,-0.004728524810199327
4.7701464814892995,-0.00903451042678404
4.775423192198911,-0.011236456724962
4.780699902908523,-0.008394756667723286
4.785976613618136,-0.003932907935376765
4.791253324327747,-0.003178869787545793
4.796530035037359,-0.006333516258043967
4.801806745746972,-0.009484196112831156
4.807083456456584,-0.009775209843566725
4.8123601671661955,-0.007550948403642354
4.817636877875808,-0.004533494276903412
4.82291358858542,-0.002298266128028472
4.828190299295032,-0.0026921063177029253
4.833467010004644,-0.007067627211298848
4.838743720714256,-0.014943007348388422
4.844020431423868,-0.02462527711410346
4.84929714213348,-0.033475025400164504
4.854573852843092,-0.03805587384956986
4.859850563552704,-0.03680435318218696
4.865127274262315,-0.03202600431621751
4.870403984971928,-0.02820448368443727
4.87568069568154,-0.02885524521245869
4.880957406391151,-0.03362374797508016
4.886234117100764,-0.03727475090452363
4.891510827810376,-0.03413057325842097
4.8967875385199875,-0.02426969889798814
4.9020642492296,-0.013196789604717304
4.907340959939212,-0.0062175874992640694
4.912617670648824,-0.004157134803404313
4.917894381358436,-0.00443386222091244
4.923171092068048,-0.0056875334501782174
4.928447802777661,-0.007968689503102472
4.933724513487272,-0.009794711326169745
4.939001224196884,-0.0095036285515193
4.944277934906497,-0.006450101706014258
4.949554645616108,0.0011155830612980977
4.9548313563257205,0.015157872645157094
4.960108067035333,0.03463726650290791
4.965384777744944,0.05391168168198758
4.970661488454557,0.06281644990650818
4.975938199164169,0.0539020688648731
4.98121490987378,0.031716355887666074
4.986491620583393,0.008304727769240466
4.991768331293005,-0.008718603098215474
4.997045042002617,-0.01857172312552168
5.002321752712229,-0.021549735822301262
5.007598463421841,-0.016766145386863288
5.0128751741314534,-0.005425760314228966
5.018151884841065,0.007145031662284682
5.023428595550677,0.014098746377421664
5.0287053062602896,0.012302867746814793
5.033982016969901,0.005807574558822434
5.039258727679513,0.004411908110423258
5.044535438389126,0.016798413548637398
5.049812149098738,0.041831082456817215
5.055088859808349,0.06570005355316377
5.060365570517962,0.07084738093653285
5.065642281227574,0.05224968142731087
5.0709189919371855,0.022517759538944054
5.076195702646798,-0.0008900046516673601
5.08147241335641,-0.00900414142294644
5.086749124066022,-0.004101815303907136
5.092025834775634,0.004302096905641305
5.097302545485246,0.005420388760112428
5.102579256194858,-0.006003615953424031
5.10785596690447,-0.02443545645274884
5.113132677614082,-0.03726601613904843
5.118409388323695,-0.03845753896894495
5.123686099033306,-0.035347441684854326
5.1289628097429185,-0.036771889130721075
5.134239520452531,-0.04102024219953939
5.139516231162142,-0.04076345287036223
5.144792941871755,-0.03337443466238867
5.150069652581367,-0.02325135231568618
5.155346363290978,-0.01624479157147992
5.160623074000591,-0.012487478235326543
5.165899784710203,-0.007669029295998123
5.171176495419815,-0.001190365059047331
5.176453206129427,0.002495941691814253
5.181729916839039,-0.0001504827456461593
5.1870066275486515,-0.006834934017520184
5.192283338258263,-0.010459350162348507
5.197560048967875,-0.007585559203622687
5.202836759677488,-0.0040798357249603795
5.208113470387099,-0.007678886404029289
5.213390181096711,-0.017187620995363917
5.218666891806324,-0.023620577292387954
5.223943602515935,-0.020341025084348985
5.2292203132255475,-0.009151983238706703
5.23449702393516,0.003160588553777898
5.239773734644772,0.012573547890502388
5.245050445354384,0.019272620269280696
5.250327156063996,0.023707814269111362
5.255603866773608,0.026072264491472503
5.26088057748322,0.02600241576095654
5.266157288192832,0.021709181563752584
5.271433998902444,0.01363958873360272
5.276710709612056,0.005383155644749192
5.281987420321668,0.00022176346120033946
5.2872641310312805,0.0009849347601351111
5.292540841740893,0.008731401527688304
5.297817552450504,0.01823762477181038
5.303094263160117,0.01849641956703784
5.308370973869729,-0.003269475609246592
5.31364768457934,-0.05879569723997055
5.318924395288953,-0.1502069699203272
5.324201105998565,-0.24947066992581
5.329477816708176,-0.29784868668714876
5.334754527417789,-0.26275507756200683
5.340031238127401,-0.18032490496775677
5.3453079488370125,-0.10715559873309585
5.350584659546625,-0.06365467310749341
5.355861370256237,-0.04310172196966909
5.3611380809658495,-0.036611558604642803
5.366414791675461,-0.03689251940922004
5.371691502385073,-0.037308939768615684
5.376968213094686,-0.03385815643488787
5.382244923804297,-0.02562437883460775
5.387521634513909,-0.014866299828385863
5.392798345223522,-0.0067037578967869575
5.398075055933133,-0.0059687486096596295
5.4033517666427455,-0.012656357045182184
5.408628477352358,-0.021829079520405664
5.41390518806197,-0.02839491009144159
5.419181898771582,-0.027741377920632405
5.424458609481194,-0.010640570607487616
5.429735320190806,0.03528353741498562
5.435012030900418,0.11209131899169077
5.44028874161003,0.19344149043074024
5.445565452319642,0.2273451916425958
5.450842163029254,0.18537559550248764
5.456118873738866,0.09918541296262536
5.4613955844484785,0.020613782105306965
5.46667229515809,-0.027828387388911347
5.471949005867702,-0.05280573559932
5.477225716577315,-0.07219408429331127
5.482502427286927,-0.09966768873942251
5.487779137996538,-0.12600846093385254
5.493055848706151,-0.11594860054010747
5.498332559415763,-0.046852821489674644
5.5036092701253745,0.05171776314226531
5.508885980834987,0.12014813603943279
5.514162691544599,0.12733124877566224
5.519439402254211,0.09269899519808678
5.524716112963823,0.05694920748384264
5.529992823673435,0.04856267138969851
5.535269534383048,0.07204735294363461
5.540546245092659,0.10671756366432658
5.545822955802271,0.11641334314474687
5.551099666511884,0.07508771004883295
5.556376377221495,-0.017526952516524863
5.5616530879311075,-0.14383600192767684
5.56692979864072,-0.26190537892887633
5.572206509350331,-0.3026469598472309
5.577483220059944,-0.23059038133767085
5.582759930769556,-0.08882621550109829
5.588036641479167,0.04901040964468893
5.59331335218878,0.1335504108683695
5.598590062898392,0.15641192896874212
5.603866773608004,0.14350810950009188
5.609143484317616,0.11953330729552095
5.614420195027228,0.09160107060718092
5.61969690573684,0.06368434835563296
5.624973616446452,0.03737540433973688
5.630250327156064,0.0077423105676311015
5.6355270378656765,-0.02799091552269528
5.640803748575288,-0.061723594516420704
5.6460804592849,-0.07744071081242236
5.651357169994513,-0.06728723448121
5.656633880704124,-0.042412667053910835
5.661910591413736,-0.02095038013116797
5.667187302123349,-0.00891090386243424
5.672464012832961,0.0030449591651179244
5.6777407235425725,0.0290176314289043
5.683017434252185,0.07490459739133427
5.688294144961797,0.12604453024849607
5.693570855671409,0.14879980135186124
5.698847566381021,0.12240537051901881
5.704124277090633,0.06436063545983785
5.709400987800245,0.008157888837992218
5.714677698509857,-0.028827816705406836
5.719954409219469,-0.04728676380683472
5.725231119929082,-0.054337535968683175
5.730507830638693,-0.054012473460790245
5.7357845413483055,-0.04368673416622494
5.741061252057918,-0.023172175316961193
5.746337962767529,-0.0030182725816758436
5.751614673477142,0.004609945275025685
5.756891384186754,-0.002410064986163026
5.762168094896365,-0.018407729149460896
5.767444805605978,-0.03831264271009141
5.77272151631559,-0.05860935141045747
5.7779982270252015,-0.07193226480910679
5.783274937734814,-0.07115133262828009
5.788551648444426,-0.05827020951046782
5.7938283591540385,-0.04030846958156236
5.79910506986365,-0.022237487005513583
5.804381780573262,-0.006891610561416317
5.809658491282875,0.0053109833116522665
5.814935201992486,0.018340131655697024
5.820211912702098,0.041914888418915316
5.825488623411711,0.08552469759670277
5.830765334121322,0.13906225158762983
5.8360420448309345,0.1659151053124244
5.841318755540547,0.14009777912502813
5.846595466250159,0.0803413067122957
5.851872176959771,0.02529802842772507
5.857148887669383,-0.0035149095025449545
5.862425598378995,-0.004819715945089072
5.867702309088607,0.013691464333194358
5.872979019798219,0.04299222260044776
5.878255730507831,0.07126494215304005
5.883532441217443,0.0826056304017881
5.888809151927055,0.071383348349426
5.8940858626366674,0.049979117955945236
5.899362573346279,0.03096338099513739
5.904639284055891,0.014647490651056414
5.9099159947655036,-0.0015121494377426927
5.915192705475116,-0.014684892110864297
5.920469416184727,-0.020517956939978817
5.92574612689434,-0.019019653824256428
5.931022837603952,-0.014501400247302645
5.936299548313563,-0.011558205810567906
5.941576259023176,-0.013021217368047528
5.946852969732787,-0.01928387526712002
5.952129680442399,-0.02681519887299094
5.957406391152011,-0.0308039086296967
5.962683101861623,-0.02996620753284796
5.967959812571236,-0.02562009650159946
5.973236523280847,-0.018949296984737872
5.978513233990459,-0.011731582592972238
5.983789944700072,-0.006307496019827576
5.989066655409683,-0.0024823065809050212
5.9943433661192955,0.0029092305038938013
5.999620076828908,0.012007158264976382
6.004896787538519,0.023904594106915908
6.010173498248132,0.03462405205191788
6.015450208957744,0.0371138700457999
6.020726919667355,0.02528466094141573
6.026003630376968,-0.002316857404858458
6.03128034108658,-0.04626835593654094
6.036557051796192,-0.10722982241907018
6.041833762505804,-0.16904595167750952
6.047110473215416,-0.190912799710242
6.0523871839250285,-0.1480664518890742
6.05766389463464,-0.06804661764044916
6.062940605344252,0.00028206313936606116
6.068217316053865,0.03292151509789295
6.073494026763476,0.03680464611150723
6.078770737473088,0.03203776537273567
6.084047448182701,0.03681750742002793
6.089324158892313,0.0603811259347003
6.0946008696019245,0.0931117434667143
6.099877580311537,0.10549528294569224
6.105154291021149,0.07949359242577618
6.110431001730761,0.032834318635443435
6.115707712440373,-0.005840328516711407
6.120984423149985,-0.02705903377698088
6.126261133859597,-0.03749169829610922
6.131537844569209,-0.044278676472450124
6.136814555278821,-0.04766884542320331
6.142091265988433,-0.04522267433992355
6.147367976698045,-0.03773096715355969
6.1526446874076575,-0.027283398156046447
6.15792139811727,-0.014741702395450897
6.163198108826881,-0.0026977125723505065
6.168474819536494,0.004685830836811858
6.173751530246106,0.005596759046336654
6.179028240955717,0.0007123919786501601
6.18430495166533,-0.007363145454417111
6.189581662374942,-0.01431918570794836
6.1948583730845534,-0.017799944387048686
6.200135083794166,-0.019846558255992953
6.205411794503778,-0.02374687256780524
6.21068850521339,-0.028798826125730856
6.215965215923002,-0.028874520117474805
6.221241926632614,-0.01820378233888478
6.2265186373422265,0.0008614839688687991
6.231795348051838,0.018725128105229888
6.23707205876145,0.027638991626529788
6.242348769471063,0.026094889115311166
6.247625480180674,0.015492940981182072
6.252902190890286,-0.0007648854925986315
6.258178901599899,-0.016498916737233593
6.26345561230951,-0.025847742017849305
6.2687323230191225,-0.024531974036685826
6.274009033728735,-0.009039668376306697
6.279285744438347,0.021911410211097618
6.284562455147959,0.06609178317048202
6.289839165857571,0.1121251974451886
6.295115876567183,0.13660820841188911
6.300392587276795,0.12481994024767216
6.305669297986407,0.08832683886297658
6.310946008696019,0.046822516505888784
6.316222719405631,0.007139336062570679
6.321499430115243,-0.03304272645129594
6.3267761408248555,-0.07082887964443507
6.332052851534468,-0.09275402947324654
6.337329562244079,-0.09047530930623583
6.342606272953692,-0.07348331122260207
6.347882983663304,-0.05540676046955337
6.353159694372915,-0.0402607944452799
6.358436405082528,-0.025800343702463188
6.36371311579214,-0.010024207461937235
6.3689898265017515,0.005425345430205534
6.374266537211364,0.01658606426459914
6.379543247920976,0.02395826263161715
6.384819958630588,0.035591812495990166
6.3900966693402,0.058779900804862964
6.395373380049812,0.0866297786874894
6.400650090759425,0.09922825586654774
6.405926801469036,0.08669635828381661
6.411203512178648,0.061048217384781465
6.416480222888261,0.03861920445493424
6.421756933597872,0.02566149294374873
6.4270336443074845,0.02094759233598792
6.432310355017097,0.019508128286355737
6.437587065726708,0.015081880392079751
6.442863776436321,0.00507773209729304
6.448140487145933,-0.007316023398328297
6.453417197855545,-0.016489251584450502
6.458693908565157,-0.018578331677276898
6.463970619274769,-0.015344356932657167
6.469247329984381,-0.013252021482592307
6.474524040693993,-0.017646938099535475
6.479800751403605,-0.031469893708379
6.4850774621132175,-0.05543190252769042
6.490354172822829,-0.08247491521923851
6.495630883532441,-0.09552521992984725
6.5009075942420536,-0.08190136613124321
6.506184304951665,-0.04926823694946513
6.511461015661277,-0.01674590092842184
6.51673772637089,0.004765731722713394
6.522014437080502,0.016014723643755013
6.527291147790113,0.022201610943118254
6.532567858499726,0.028122611830498724
6.537844569209338,0.03277072919686373
6.5431212799189495,0.028301594308464715
6.548397990628562,0.012317092783568892
6.553674701338174,-0.004938304041365662
6.558951412047786,-0.012711565699783075
6.564228122757398,-0.011477149011189772
6.56950483346701,-0.008404151835000429
6.574781544176622,-0.006974845492639961
6.580058254886234,-0.005800618234366268
6.585334965595846,-0.004309310112866651
6.590611676305459,-0.004572707644847967
6.59588838701507,-0.007859709606238607
6.6011650977246825,-0.01224037123944824
6.606441808434295,-0.01408639213974454
6.611718519143906,-0.009160958974591312
6.616995229853519,0.00704634458332571
6.622271940563131,0.03609255566913801
6.627548651272742,0.06980997495425914
6.632825361982355,0.0885694960580463
6.638102072691967,0.07748377422568464
6.643378783401579,0.04289376644729312
6.648655494111191,0.0035288121497752054
6.653932204820803,-0.02630487506032631
6.6592089155304155,-0.041744268136132
6.664485626240027,-0.04604944157300508
6.669762336949639,-0.04531026863818485
6.675039047659252,-0.042731261325344286
6.680315758368863,-0.03851864202070639
6.685592469078475,-0.031701789409136164
6.690869179788088,-0.02136454588905005
6.696145890497699,-0.008947399143177229
6.7014226012073115,0.0017413636944987724
6.706699311916924,0.008195796866970676
6.711976022626536,0.01208521234832764
6.717252733336148,0.017695544603936686
6.72252944404576,0.024071554522296142
6.727806154755372,0.021731714070537558
6.733082865464984,0.006617708857080692
6.738359576174596,-0.009630105773474937
6.743636286884208,-0.012928817786129117
6.74891299759382,-0.0029232078289979082
6.754189708303432,0.008282207891632214
6.7594664190130445,0.010811136251866403
6.764743129722657,0.006297871367156007
6.770019840432268,0.0004916298352164104
6.775296551141881,-0.0050234129130049075
6.780573261851493,-0.010833858762573959
6.785849972561104,-0.01687009124943059
6.791126683270717,-0.022381320196979953
6.796403393980329,-0.025205317749322526
6.80168010468994,-0.022015143094063185
6.806956815399553,-0.011167287698645232
6.812233526109165,0.0051345430710224085
6.8175102368187765,0.022776781363530396
6.822786947528389,0.037862205925301824
6.828063658238001,0.045072400814166684
6.8333403689476135,0.03982401065434635
6.838617079657225,0.02272864523178222
6.843893790366837,-0.004301299939180731
6.84917050107645,-0.04128354096988387
6.854447211786061,-0.0816738713823227
6.859723922495673,-0.10693325068387853
6.865000633205286,-0.10245458112436687
6.870277343914897,-0.07484164915617277
6.8755540546245095,-0.04185345573110103
6.880830765334122,-0.014935064872500629
6.886107476043734,0.0009978667541840295
6.891384186753346,0.004681027100851819
6.896660897462958,0.0012256959957415107
6.90193760817257,-0.0019344322257158725
6.907214318882182,-0.0026267205276111582
6.912491029591794,-0.0020210895747506683
6.917767740301406,-0.0005148400327655714
6.923044451011018,-0.0002625564871262694
6.92832116172063,-0.004872096743094495
6.9335978724302425,-0.01190469861470813
6.938874583139854,-0.012390282482587474
6.944151293849466,-0.003222894846321959
6.949428004559079,0.007496846609928499
6.954704715268691,0.012098940156717756
6.959981425978302,0.011467599984247788
6.965258136687915,0.009333398488339226
6.970534847397527,0.006436105283058191
6.9758115581071385,0.0019905348263434255
6.981088268816751,-0.0033486944388604967
6.986364979526363,-0.008185667392433621
6.991641690235975,-0.012869057940369502
6.996918400945587,-0.018587634537490832
7.002195111655199,-0.02355729666606664
7.007471822364812,-0.023480906173885215
7.012748533074423,-0.01690546492049889
7.018025243784035,-0.007223401442313194
7.023301954493648,0.00016805426935690587
7.028578665203258,0.0015055508831665599
7.033855375912871,-0.0023501207654571237
7.039132086622483,-0.007106501629050014
7.044408797332094,-0.00967808123633112
7.049685508041707,-0.008988736210858276
7.054962218751319,-0.0036226727550943945
7.0602389294609305,0.0067165090235319965
7.065515640170543,0.018481028731038497
7.070792350880155,0.02637955470977436
7.0760690615897675,0.02612156663705403
7.081345772299379,0.015758532424002214
7.086622483008991,-0.0009686422800565531
7.0918991937186036,-0.015233121389981764
7.097175904428215,-0.020260251488115572
7.102452615137827,-0.013844309885328143
7.10772932584744,0.0035516874873191685
7.113006036557051,0.024649670276253383
7.118282747266663,0.03548112323445242
7.123559457976276,0.029474667151238677
7.128836168685888,0.014069894729426012
7.1341128793954995,-0.0005282434965586205
7.139389590105112,-0.009393358881163143
7.144666300814724,-0.01202147231663277
7.149943011524336,-0.01232756031918445
7.155219722233948,-0.014981925715163335
7.16049643294356,-0.019369526875809177
7.165773143653172,-0.02220195543016536
7.171049854362784,-0.022852760852614357
7.176326565072396,-0.021567315975555914
7.181603275782008,-0.017568767842533382
7.18687998649162,-0.012564299967454068
7.1921566972012325,-0.010803417727123324
7.197433407910845,-0.013780989449799694
7.202710118620456,-0.01823619342287783
7.207986829330069,-0.01852223979186159
7.213263540039681,-0.010944357747901286
7.218540250749292,0.004212503467941412
7.223816961458905,0.025886883815435732
7.229093672168517,0.049731707486161125
7.2343703828781285,0.0629512324388124
7.239647093587741,0.055767798905822674
7.244923804297353,0.034568090519782865
7.2502005150069655,0.013789199745182699
7.255477225716577,0.001724604421968257
7.260753936426189,-0.002417349216276411
7.266030647135802,-0.003685437079897172
7.271307357845413,-0.006396837732087776
7.276584068555025,-0.01053427803903325
7.281860779264638,-0.01102255083354123
7.287137489974249,-0.004408454584636659
7.2924142006838615,0.004932866694294628
7.297690911393474,0.009070245576989983
7.302967622103085,0.004114203410794341
7.308244332812698,-0.007752252426714979
7.31352104352231,-0.020713659768529808
7.318797754231922,-0.028575918010171657
7.324074464941534,-0.02687376061604496
7.329351175651146,-0.01547468565457979
7.334627886360758,-0.0005054343885874347
7.33990459707037,0.01113954156881091
7.345181307779982,0.0183628972640683
7.3504580184895945,0.022476749740629562
7.355734729199206,0.021099208568873856
7.361011439908818,0.010205621825501044
7.366288150618431,-0.007564646381243406
7.371564861328043,-0.022198059256877335
7.376841572037654,-0.027625517499447052
7.382118282747267,-0.026636662953443257
7.387394993456879,-0.022776524061292474
7.39267170416649,-0.01590050212406371
7.397948414876103,-0.006175923727361579
7.403225125585715,0.0031030992356229064
7.4085018362953265,0.007045991636719596
7.413778547004939,0.003656614690723926
7.419055257714551,-0.0033484022218171214
7.424331968424163,-0.008013754063613501
7.429608679133775,-0.00783960413554122
7.434885389843387,-0.006014587694711689
7.440162100553,-0.007503388262464313
7.445438811262611,-0.012607130968536431
7.450715521972223,-0.01546391711665007
7.455992232681836,-0.006176710691173128
7.461268943391447,0.027049558927353133
7.4665456541010595,0.09061537849316327
7.471822364810672,0.16768548990163099
7.477099075520283,0.2149645600755513
7.482375786229896,0.2031930292914561
7.487652496939508,0.14832287351605108
7.49292920764912,0.08200945877503107
7.498205918358732,0.02104620691954287
7.503482629068344,-0.026252755222878593
7.508759339777956,-0.05488996483166345
7.514036050487568,-0.06679449421886922
7.51931276119718,-0.06821467138827123
7.5245894719067925,-0.06430577369805178
7.529866182616404,-0.05561156635287284
7.535142893326016,-0.040317683147486544
7.540419604035629,-0.02146835205169711
7.54569631474524,-0.007016787541489987
7.550973025454852,-0.001034314076866565
7.556249736164465,6.74373670238326e-06
7.561526446874077,0.0011016942268404066
7.5668031575836885,0.0022946001945006967
7.572079868293301,0.000602003954508041
7.577356579002913,-0.00417233979826085
7.582633289712525,-0.009044092108353856
7.587910000422137,-0.009353378551526754
7.593186711131749,0.001307054396671655
7.598463421841361,0.027237713288751988
7.603740132550973,0.06550802502348002
7.609016843260585,0.10145512376365819
7.614293553970198,0.11112549816030569
7.619570264679809,0.08440446633219009
7.6248469753894215,0.04016807586884122
7.630123686099034,0.0038419391829520207
7.635400396808645,-0.016125274231280642
7.640677107518258,-0.023538141921831998
7.64595381822787,-0.02196607729034958
7.651230528937481,-0.013450283211774553
7.656507239647094,-0.004103615900411356
7.661783950356706,-0.0028910988001512286
7.6670606610663175,-0.012146404514975959
7.67233737177593,-0.02389021104217613
7.677614082485542,-0.028227172183685735
7.6828907931951544,-0.022774646553040352
7.688167503904766,-0.012608175020365847
7.693444214614378,-0.002911435273655643
7.6987209253239905,0.005651169499254111
7.703997636033602,0.01350570446716241
7.709274346743214,0.01893147238727084
7.714551057452827,0.020791129842460454
7.719827768162438,0.019367143143723235
7.72510447887205,0.014381471632637633
7.730381189581663,0.0064967987526521566
7.735657900291274,-0.0015153081392688126
7.7409346110008865,-0.006485284474623739
7.746211321710499,-0.006605635065339453
7.751488032420111,-0.003318917361050135
7.756764743129723,-5.636925548654589e-05
7.762041453839335,0.0016608203424292847
7.767318164548947,0.0020948106927123756
7.772594875258559,0.0009864027083059958
7.777871585968171,-0.0025053096831209043
7.783148296677783,-0.009069917106063226
7.788425007387395,-0.019132800335278595
7.793701718097007,-0.03192325712444302
7.7989784288066195,-0.04339339643961756
7.804255139516232,-0.04778271901711125
7.809531850225843,-0.042929892749502346
7.814808560935456,-0.030912622532363234
7.820085271645067,-0.015144512860786549
7.825361982354679,0.00028235970736736763
7.830638693064291,0.012229783116080103
7.835915403773904,0.019254839986734065
7.841192114483515,0.0198209100048422
7.846468825193128,0.013371418376869402
7.851745535902739,0.0014800913292151324
7.857022246612352,-0.012562015878575038
7.862298957321963,-0.02194169165669755
7.867575668031576,-0.016500065269101413
7.872852378741188,0.011135543065465412
7.8781290894508,0.0586881105595968
7.8834058001604115,0.1084854964522701
7.888682510870025,0.13117006802179587
7.893959221579635,0.11274735117638152
7.8992359322892485,0.0712494579054897
7.90451264299886,0.03186839962931218
7.909789353708472,0.0035559506868095988
7.915066064418084,-0.015477919704549946
7.920342775127697,-0.027412341400501326
7.925619485837308,-0.03216451527420002
7.930896196546921,-0.02906781483587461
7.936172907256532,-0.018937283899807235
7.941449617966145,-0.005085900290811886
7.946726328675756,0.008097694359731934
7.952003039385369,0.018448408750373787
7.957279750094981,0.025485365714342106
7.962556460804593,0.027468932116289008
7.967833171514204,0.022131755096940958
7.973109882223818,0.010045209703607354
7.978386592933429,-0.004027165300657949
7.983663303643041,-0.014345028535846427
7.988940014352653,-0.01919328472531254
7.994216725062266,-0.021291497667622988
7.9994934357718765,-0.02264491865156687
8.004770146481489,-0.02072563925294071
8.010046857191101,-0.012039222940684794
8.015323567900714,0.0019083459535072307
8.020600278610326,0.014594849043413809
8.025876989319938,0.01868680231411635
8.031153700029549,0.011372963295203176
8.036430410739163,-0.0022192944769733568
8.041707121448773,-0.012746734600864378
8.046983832158386,-0.01396334320601814
8.052260542867998,-0.006967835650725007
8.05753725357761,0.0018326685580586327
8.062813964287221,0.006219201875341513
8.068090674996835,0.0017076276769337425
8.073367385706446,-0.014662893710638747
8.078644096416058,-0.04004666983821772
8.08392080712567,-0.06239694297144525
8.089197517835283,-0.06868238516088265
8.094474228544893,-0.0577708269059681
8.099750939254507,-0.04000667318686006
8.105027649964118,-0.02563739442317759
8.11030436067373,-0.016907326965292135
8.115581071383343,-0.009463896590586413
8.120857782092955,0.0017646690679668246
8.126134492802565,0.018222746676677764
8.13141120351218,0.03588933004450727
8.13668791422179,0.047395977913266406
8.141964624931404,0.047654401496003904
8.147241335641015,0.03752476477213099
8.152518046350627,0.022760899957564962
8.15779475706024,0.010114640514246548
8.163071467769852,0.0035380930789436823
8.168348178479462,0.0025879449513077166
8.173624889189076,0.0033718789738596913
8.178901599898687,0.0015837847907275366
8.1841783106083,-0.0038961839554233087
8.189455021317912,-0.010695976113713125
8.194731732027524,-0.015552767852365852
8.200008442737134,-0.015413702518416552
8.205285153446749,-0.008898690917752106
8.21056186415636,0.0013741776478519577
8.215838574865971,0.01074345511013654
8.221115285575584,0.016176199602314006
8.226391996285196,0.017139768812059017
8.231668706994807,0.015499287603102135
8.23694541770442,0.013508226920149021
8.242222128414031,0.009633911594431782
8.247498839123644,-0.00016370177548019615
8.252775549833256,-0.014997990335554049
8.258052260542868,-0.02790579709287723
8.26332897125248,-0.03361625055152575
8.268605681962093,-0.03314292559021237
8.273882392671704,-0.030304834115196286
8.279159103381318,-0.026950629516074923
8.284435814090928,-0.022826456434966808
8.28971252480054,-0.01817042837222185
8.294989235510153,-0.013745806357648601
8.300265946219765,-0.0089924193321254
8.305542656929376,-0.0031794487107079236
8.31081936763899,0.00286653645350223
8.3160960783486,0.008142788049504275
8.321372789058213,0.01122478404252268
8.326649499767825,0.010055925889071766
8.331926210477437,0.005569449530072933
8.337202921187048,0.000797581643848091
8.342479631896662,-0.0031162689073399585
8.347756342606273,-0.004788409962023241
8.353033053315885,-0.0012797020516600239
8.358309764025497,0.0071594669093029435
8.36358647473511,0.015338615413732649
8.36886318544472,0.018863804841123318
8.374139896154334,0.0189887950249015
8.379416606863945,0.01889211610965457
8.384693317573559,0.018510997667594876
8.38997002828317,0.016995695779485308
8.395246738992782,0.01548462614582144
8.400523449702394,0.013539401342803844
8.405800160412007,0.007165294892505149
8.411076871121617,-0.007346206420869056
8.416353581831231,-0.02937893487628932
8.421630292540842,-0.05201089291122762
8.426907003250454,-0.06325234816972056
8.432183713960066,-0.05582284993995971
8.437460424669679,-0.03612840539334309
8.44273713537929,-0.017014508273777918
8.448013846088903,-0.004125856658154892
8.453290556798514,0.0054872349328916915
8.458567267508126,0.013720299233894027
8.463843978217739,0.016551461379558246
8.469120688927351,0.00915326683987893
8.474397399636961,-0.009293191599360226
8.479674110346576,-0.03425017697619357
8.484950821056186,-0.05440539005853216
8.490227531765798,-0.055983736658887076
8.49550424247541,-0.035994760392723965
8.500780953185023,-0.007051810251718857
8.506057663894635,0.01647030583498963
8.511334374604248,0.029788429988692477
8.516611085313858,0.034280065051373085
8.521887796023472,0.031988138454460247
8.527164506733083,0.024417634191653152
8.532441217442695,0.013509073996411769
8.537717928152308,0.002729459779549938
8.54299463886192,-0.005171393210804138
8.54827134957153,-0.011455035983760452
8.553548060281145,-0.01894845378200852
8.558824770990755,-0.025538577658650738
8.564101481700368,-0.023556782276181226
8.56937819240998,-0.009635463813903514
8.574654903119592,0.007697482008632853
8.579931613829203,0.015053682458033145
8.585208324538817,0.005382216923104876
8.590485035248427,-0.018941604704399814
8.59576174595804,-0.05017747127184438
8.601038456667652,-0.0781056275467382
8.606315167377264,-0.09106729572350643
8.611591878086875,-0.08662832657232308
8.616868588796489,-0.07586215093869633
8.6221452995061,-0.06580806485153932
8.627422010215714,-0.05308713135730756
8.632698720925324,-0.037232553511081734
8.637975431634937,-0.022964020428731125
8.643252142344549,-0.012587792569076625
8.64852885305416,-0.0046581437349190544
8.653805563763772,0.0025022383148303605
8.659082274473384,0.0074533093603191
8.664358985182997,0.0069562078456266545
8.669635695892607,0.0018250675815654144
8.674912406602221,-0.0019034410062751268
8.680189117311832,-0.00027320958538913165
8.685465828021444,0.0032084154186414523
8.690742538731056,0.002116272882133966
8.696019249440669,-0.005216553885623813
8.70129596015028,-0.01443224005320032
8.706572670859893,-0.01953017459340729
8.711849381569504,-0.01570853808629474
8.717126092279116,-0.000857199856485393
8.722402802988729,0.019927474569304954
8.727679513698341,0.0349654824875889
8.732956224407951,0.03647167282125633
8.738232935117566,0.026517231020869177
8.743509645827176,0.01151811140190178
8.74878635653679,-0.004348135111148999
8.7540630672464,-0.01911005377184395
8.759339777956013,-0.029677889774698523
8.764616488665625,-0.03202427750270567
8.769893199375238,-0.024536040082881305
8.775169910084848,-0.009444804133014108
8.780446620794462,0.0081482100629502
8.785723331504073,0.02196930761662795
8.791000042213685,0.027891132282178835
8.796276752923298,0.027874439001086927
8.80155346363291,0.028542542155749844
8.80683017434252,0.033152322856437245
8.812106885052135,0.03808491749078152
8.817383595761745,0.039309999588840086
8.822660306471358,0.03724642704267718
8.82793701718097,0.03414493931442164
8.833213727890582,0.030792569992748868
8.838490438600193,0.025994893408684005
8.843767149309807,0.017854650522466313
8.849043860019417,0.0058333169594759395
8.85432057072903,-0.007720814974479773
8.859597281438642,-0.01911007170737921
8.864873992148254,-0.026503426653665594
8.870150702857867,-0.02845558550319638
8.875427413567479,-0.02123625322585079
8.88070412427709,-0.0029533427177686074
8.885980834986704,0.020551458193333882
8.891257545696314,0.03703539418791389
8.896534256405927,0.03653709679183623
8.901810967115539,0.020032682512615377
8.907087677825151,0.0005329686826867127
8.912364388534762,-0.006430103719110947
8.917641099244376,0.0035555638089376953
8.922917809953987,0.019598315541918727
8.928194520663599,0.025922743302349834
8.933471231373211,0.017718630442593444
8.938747942082824,0.004035596810048089
8.944024652792434,-0.005743630505107138
8.949301363502048,-0.010478228598771252
8.954578074211659,-0.012352627384944118
8.959854784921271,-0.012022431346033318
8.965131495630883,-0.010070935386251974
8.970408206340496,-0.008222293067321982
8.975684917050106,-0.006999505562394635
8.98096162775972,-0.005224667511420936
8.986238338469331,-0.002847194284055504
8.991515049178943,-0.001743080660874889
8.996791759888556,-0.00311894001193727
9.002068470598168,-0.006133304252187692
9.00734518130778,-0.009556707772974219
9.012621892017393,-0.01245601164513719
9.017898602727003,-0.013844833662885156
9.023175313436617,-0.013747333526663862
9.028452024146228,-0.012662458473484578
9.03372873485584,-0.0095569335189161
9.039005445565452,-0.003421113605331228
9.044282156275065,0.0035517919856283752
9.049558866984675,0.0070744569953463685
9.05483557769429,0.005215012405088394
9.0601122884039,0.0009200084667465012
9.065388999113512,-0.0011723106155314795
9.070665709823125,0.00029694096992708514
9.075942420532737,0.004269651203547652
9.081219131242348,0.009241199249434782
9.086495841951962,0.010760080797340005
9.091772552661572,0.0012402719869970685
9.097049263371185,-0.02719138971026734
9.102325974080797,-0.0787174204205931
9.10760268479041,-0.1389891447679735
9.112879395500022,-0.16883338421518423
9.118156106209634,-0.1408773084088939
9.123432816919244,-0.07123809929321254
9.128709527628859,0.007579673124233197
9.13398623833847,0.07797225475733208
9.139262949048081,0.12699956046229
9.144539659757694,0.13530462133684407
9.149816370467306,0.09902897980959058
9.155093081176917,0.04579682728788682
9.16036979188653,0.008000726355617733
9.165646502596141,-0.003984613826475731
9.170923213305754,0.0029441772917484636
9.176199924015366,0.016061776275061935
9.181476634724978,0.025030387800512546
9.186753345434589,0.02888876761899636
9.192030056144203,0.032900745376184155
9.197306766853814,0.03844580853941758
9.202583477563426,0.03778494003257778
9.207860188273038,0.019202378607836627
9.21313689898265,-0.019122878750265408
9.218413609692261,-0.06056877626027569
9.223690320401875,-0.08049674948706893
9.228967031111486,-0.06847021859439807
9.234243741821098,-0.03687576199711436
9.23952045253071,-0.00625959029041968
9.244797163240323,0.010376156571678629
9.250073873949935,0.009927441836371615
9.255350584659547,-0.003455267372741587
9.260627295369158,-0.020095882664684407
9.265904006078772,-0.029645152971917145
9.271180716788383,-0.028685896958358034
9.276457427497995,-0.021236008888863393
9.281734138207607,-0.01304940812175501
9.28701084891722,-0.008566398926065926
9.29228755962683,-0.00890366889653895
9.297564270336444,-0.011521187248752406
9.302840981046055,-0.015123168697676515
9.308117691755667,-0.020925604984009003
9.31339440246528,-0.02696011901163836
9.318671113174892,-0.02779409964068032
9.323947823884502,-0.021740399555581175
9.329224534594116,-0.013755256268440335
9.334501245303727,-0.010042557013438516
9.33977795601334,-0.01156572624941845
9.345054666722952,-0.014218084161897756
9.350331377432564,-0.01284443400153158
9.355608088142176,-0.0003389632806430293
9.360884798851789,0.033831428693598106
9.3661615095614,0.09564441847597753
9.371438220271013,0.1679339093524215
9.376714930980624,0.20594327930745746
9.381991641690236,0.17854534765188176
9.387268352399849,0.10565980464888924
9.392545063109461,0.03140409751176915
9.397821773819071,-0.016427172239011405
9.403098484528686,-0.03178664482422073
9.408375195238296,-0.022690968452664106
9.413651905947908,-0.004380900596340653
9.41892861665752,0.00943002239142593
9.424205327367133,0.01304181902730788
9.429482038076744,0.00797425136165922
9.434758748786358,-0.0013463515735654354
9.440035459495968,-0.009034359629564403
9.44531217020558,-0.010158496626914194
9.450588880915193,-0.005950763041147866
9.455865591624805,-0.003072609376754066
9.461142302334416,-0.005827268662260529
9.46641901304403,-0.011575900685147307
9.47169572375364,-0.013865744192147353
9.476972434463253,-0.007263636285124395
9.482249145172865,0.010963088792269806
9.487525855882478,0.03852046841230324
9.49280256659209,0.06379137418549166
9.498079277301702,0.0710812133630487
9.503355988011313,0.056135791948950894
9.508632698720927,0.029663455384855555
9.513909409430537,0.00342612514565511
9.51918612014015,-0.019926398509882665
9.524462830849762,-0.04374476683260161
9.529739541559374,-0.07037768861399395
9.535016252268985,-0.0962019623354467
9.540292962978599,-0.11095789175814089
9.54556967368821,-0.10661391047608437
9.550846384397822,-0.08633005882427557
9.556123095107434,-0.060380664631262494
9.561399805817047,-0.036645412909484365
9.566676516526657,-0.01604669903289798
9.571953227236271,0.004054001138586149
9.577229937945882,0.023698438164456076
9.582506648655494,0.040957060782389976
9.587783359365107,0.05286032895575495
9.593060070074719,0.05444368089052592
9.59833678078433,0.04486911149966638
9.603613491493943,0.027727082670886815
9.608890202203554,0.0010662778568242787
9.614166912913168,-0.040119586611459986
9.619443623622779,-0.0872024061958159
9.624720334332391,-0.11444483791162628
9.629997045042003,-0.10504122327068516
9.635273755751616,-0.07170188582591706
9.640550466461226,-0.03725181025064589
9.64582717717084,-0.00999246025924171
9.651103887880451,0.014286202170478617
9.656380598590063,0.039824579608769416
9.661657309299676,0.06161507462444104
9.666934020009288,0.0658603664504015
9.672210730718898,0.04646627974555457
9.677487441428513,0.017408189781996923
9.682764152138123,-0.0005465510202495695
9.688040862847735,0.0024645025013016386
9.693317573557348,0.025574313462138783
9.69859428426696,0.06281321884752387
9.70387099497657,0.0993178600315264
9.709147705686185,0.11064214145744565
9.714424416395795,0.08610552004962567
9.719701127105408,0.04608739928846366
9.72497783781502,0.01782362362550119
9.73025454852463,0.009584301190895875
9.735531259234245,0.016343506838181487
9.740807969943855,0.03195536461669977
9.746084680653468,0.0490722534753948
9.75136139136308,0.0560788221384454
9.756638102072692,0.04591689226567357
9.761914812782303,0.02519059041302198
9.767191523491917,0.004852647324014053
9.772468234201527,-0.009373288279256091
9.77774494491114,-0.011997663623705168
9.783021655620752,0.004350560526808285
9.788298366330364,0.041390134583492895
9.793575077039975,0.08553894811851118
9.798851787749589,0.10855453254036833
9.8041284984592,0.09379802986583936
9.809405209168812,0.05689090794899666
9.814681919878424,0.023785419331250356
9.819958630588037,0.003193063961745869
9.825235341297647,-0.010169975532782127
9.830512052007261,-0.022127315803309747
9.835788762716872,-0.035544839485800575
9.841065473426484,-0.04936327713512572
9.846342184136097,-0.055673816227766904
9.851618894845709,-0.047448812183488225
9.856895605555321,-0.03035344179745593
9.862172316264934,-0.01725934721615793
9.867449026974544,-0.015145091638436687
9.872725737684158,-0.022085590901501806
9.878002448393769,-0.030232272819126937
9.883279159103381,-0.03088003900499141
9.888555869812993,-0.02200800640427225
9.893832580522606,-0.010919836995235133
9.899109291232216,-0.0070264692610378715
9.90438600194183,-0.01303949538434594
9.909662712651441,-0.024344096429846297
9.914939423361053,-0.03440279211730123
9.920216134070666,-0.039631672970261385
9.925492844780278,-0.04009627402338304
9.930769555489888,-0.03655329406230712
9.936046266199503,-0.030085791319707282
9.941322976909113,-0.023717147898778886
9.946599687618725,-0.020412065532655815
9.951876398328338,-0.021051230363482117
9.95715310903795,-0.024816614993955318
9.96242981974756,-0.029552793433398273
9.967706530457175,-0.03313907064501871
9.972983241166785,-0.03444791054053387
9.9782599518764,-0.032163871871136826
9.98353666258601,-0.026567884955727417
9.988813373295622,-0.02201229887471469
9.994090084005235,-0.020276739502940073
9.999366794714847,-0.014548302157754104
10.004643505424458,-0.00019125595293976397
10.009920216134072,0.014562986712772622
10.015196926843682,0.019304155997769783
10.020473637553295,0.014890520990293678
10.025750348262907,0.009263315470743825
10.03102705897252,0.007373440653423742
10.03630376968213,0.0063224419702704255
10.041580480391744,-0.0054837627480047255
10.046857191101354,-0.04216758855027977
10.052133901810967,-0.10632273297606587
10.057410612520579,-0.1738671516115326
10.062687323230191,-0.19913805726542796
10.067964033939802,-0.15603211625822766
10.073240744649416,-0.0676943284976205
10.078517455359027,0.01691086841660602
10.083794166068639,0.05944472039201603
10.089070876778251,0.052492665132128545
10.094347587487864,0.02106369468277191
10.099624298197476,-0.0030295333526897056
10.104901008907088,-0.007403087351531919
10.110177719616699,-0.00014814618891822876
10.115454430326313,0.004301864879360522
10.120731141035924,-0.0019345165232830315
10.126007851745536,-0.01726308941475061
10.131284562455148,-0.034738361939034026
10.13656127316476,-0.04574947616729294
10.141837983874371,-0.04206039702575821
10.147114694583985,-0.016509629795650894
10.152391405293596,0.03516699571969433
10.157668116003208,0.10415363221063367
10.16294482671282,0.1630675618402422
10.168221537422433,0.18482272065760524
10.173498248132043,0.16207034946094473
10.178774958841657,0.10750097883309187
10.184051669551268,0.04586432340295375
10.18932838026088,-0.0023702730338809493
10.194605090970493,-0.031335450124177607
10.199881801680105,-0.04261192757106986
10.205158512389715,-0.04024292542717024
10.21043522309933,-0.032482033473425556
10.21571193380894,-0.0282973774026884
10.220988644518554,-0.029638748558535374
10.226265355228165,-0.030718313740377118
10.231542065937777,-0.025252856200532515
10.23681877664739,-0.011186776893567224
10.242095487357002,0.0088550859833494
10.247372198066612,0.02828340243473347
10.252648908776226,0.03894407791075437
10.257925619485837,0.034571883208565864
10.26320233019545,0.016622461383160217
10.268479040905062,-0.0034986025185952795
10.273755751614674,-0.014077316772659623
10.279032462324285,-0.013875364487616136
10.284309173033899,-0.011193878753358602
10.28958588374351,-0.014336407016671712
10.294862594453122,-0.025071841137884774
10.300139305162734,-0.03844316847814723
10.305416015872346,-0.044691619649339334
10.310692726581957,-0.037620048504226865
10.315969437291571,-0.02224785389300506
10.321246148001181,-0.006616920070421341
10.326522858710794,0.008449146204859257
10.331799569420406,0.025805421140582444
10.337076280130018,0.045370257230501115
10.34235299083963,0.062432026928727444
10.347629701549243,0.06898737488854063
10.352906412258854,0.06130291357068467
10.358183122968468,0.04602829095846584
10.363459833678078,0.03224088927817336
10.36873654438769,0.022089888517815952
10.374013255097303,0.013238600235317192
10.379289965806915,0.004099790882382328
10.384566676516526,-0.0048126417709178386
10.38984338722614,-0.01310331436841593
10.39512009793575,-0.022777996123069855
10.400396808645363,-0.033866147660718715
10.405673519354975,-0.04115725682840752
10.410950230064588,-0.042328849738365495
10.416226940774198,-0.04297326195108741
10.421503651483812,-0.047564287093955354
10.426780362193423,-0.05250579235462527
10.432057072903035,-0.05064087811932738
10.437333783612647,-0.039288921116197625
10.44261049432226,-0.02445034145546863
10.44788720503187,-0.01530547687540478
10.453163915741484,-0.01225828662420675
10.458440626451095,-0.006682489413721564
10.463717337160709,0.0030088782406769727
10.46899404787032,0.007474834974808074
10.474270758579932,0.002954583226995943
10.479547469289544,-0.003296633442778801
10.484824179999157,-0.002417275828865759
10.490100890708767,0.01010711197984603
10.495377601418381,0.029398602813761526
10.500654312127992,0.04119536880494289
10.505931022837604,0.03721053610049872
10.511207733547216,0.02380495956614541
10.516484444256829,0.008653923425361311
10.52176115496644,-0.007425144854261465
10.527037865676053,-0.0231556620638385
10.532314576385664,-0.0331522568209937
10.537591287095276,-0.028231932741349833
10.542867997804889,0.006810663445788299
10.548144708514501,0.085296758910492
10.553421419224112,0.19593856599696752
10.558698129933726,0.2888390331501783
10.563974840643336,0.30372747846627
10.569251551352949,0.2291288153081409
10.574528262062561,0.11530242083018705
10.579804972772173,0.022314478632854438
10.585081683481786,-0.022015008334030684
10.590358394191398,-0.025549360493186627
10.595635104901008,-0.014445108438564617
10.600911815610623,-0.008352013301629633
10.606188526320233,-0.01244543419238609
10.611465237029845,-0.022917089088461923
10.616741947739458,-0.025816978137570803
10.62201865844907,-0.0025478545152095577
10.62729536915868,0.04454071784137538
10.632572079868295,0.08074756468528442
10.637848790577905,0.07603881655540276
10.643125501287518,0.040278561662244
10.64840221199713,0.002221032863014437
10.653678922706742,-0.023513359617635482
10.658955633416353,-0.03572479491495782
10.664232344125967,-0.033811220090012965
10.669509054835578,-0.01869116628782006
10.67478576554519,0.00156905990581418
10.680062476254802,0.018611731744265638
10.685339186964415,0.03054659987078831
10.690615897674025,0.03578423922807099
10.69589260838364,0.030888564614900894
10.70116931909325,0.017601659142788408
10.706446029802862,0.0029126880392512638
10.711722740512474,-0.00896638300528135
10.716999451222087,-0.01938688548032378
10.722276161931699,-0.029910283237962486
10.727552872641311,-0.03790158743458376
10.732829583350922,-0.037493149477606874
10.738106294060536,-0.024405917698362662
10.743383004770147,-0.0007104648871989454
10.748659715479759,0.025823467900193763
10.753936426189371,0.043759844609818674
10.759213136898984,0.03979370460624681
10.764489847608594,0.007369022931444871
10.769766558318208,-0.046767958498102176
10.775043269027819,-0.10373264145432183
10.780319979737431,-0.1364141320013922
10.785596690447043,-0.12771683575901802
10.790873401156656,-0.08845950901335195
10.796150111866266,-0.04397254143320415
10.80142682257588,-0.010784700169275163
10.806703533285491,0.007674173808705964
10.811980243995102,0.014099390977575246
10.817256954704716,0.01213742444361555
10.822533665414326,0.005192968030432342
10.82781037612394,-0.0031751921301966185
10.833087086833551,-0.008396693754750982
10.838363797543163,-0.006455642209052261
10.843640508252776,0.0018009546605252647
10.848917218962388,0.009743712691005556
10.854193929671998,0.010382552219658137
10.859470640381613,0.003980481460654007
10.864747351091223,-0.0014290958889718484
10.870024061800835,0.001167050010615928
10.875300772510448,0.010789479328391456
10.88057748322006,0.02006309122299057
10.88585419392967,0.02301741083122697
10.891130904639285,0.02227565374469844
10.896407615348895,0.024060640386982
10.901684326058508,0.026331641287315095
10.90696103676812,0.02099242525614715
10.912237747477732,0.006514120266684681
10.917514458187343,-0.010563969152682985
10.922791168896957,-0.024218865394124486
10.928067879606568,-0.032375658732686496
10.93334459031618,-0.03444776616777341
10.938621301025792,-0.029996361497768978
10.943898011735405,-0.01988683082468465
10.949174722445017,-0.007858222214053523
10.95445143315463,0.0014092836327768443
10.95972814386424,0.007213040713051169
10.965004854573854,0.013145934887508485
10.970281565283464,0.02105606309071564
10.975558275993077,0.026977449048789782
10.980834986702689,0.024823609558466103
10.986111697412301,0.013031492628179587
10.991388408121912,-0.0036842347093885668
10.996665118831526,-0.016874712057218546
11.001941829541137,-0.0181756234432576
11.007218540250749,-0.006147811992586441
11.012495250960361,0.010408355151529141
11.017771961669974,0.02000672212567697
11.023048672379584,0.01680379370242158
11.028325383089198,0.0021020160746475416
11.033602093798809,-0.01656385192394631
11.038878804508421,-0.029457623934436534
11.044155515218034,-0.03231356885359121
11.049432225927646,-0.02870256152090406
11.054708936637256,-0.023141367287814626
11.05998564734687,-0.015471459198205504
11.065262358056481,-0.0047372695082919716
11.070539068766095,0.005063502287407273
11.075815779475706,0.007498112903061576
11.081092490185318,0.0007770763780382121
11.08636920089493,-0.010777253564451108
11.091645911604543,-0.021292802697811756
11.096922622314153,-0.026690485643778454
11.102199333023767,-0.024848027454623778
11.107476043733378,-0.01699758462898489
11.11275275444299,-0.01009316461101301
11.118029465152603,-0.013512101134866554
11.123306175862215,-0.030800559724316036
11.128582886571825,-0.054528796123447985
11.13385959728144,-0.06883097560766302
11.13913630799105,-0.06167551910516236
11.144413018700662,-0.036530086959031295
11.149689729410275,-0.00849502996288061
11.154966440119887,0.00924264536772534
11.160243150829498,0.014501359699753715
11.165519861539112,0.012867305986376785
11.170796572248722,0.008202096403730147
11.176073282958335,0.0015843166732134799
11.181349993667947,-0.0050124620175835905
11.18662670437756,-0.009183632329833154
11.191903415087172,-0.008284584927414672
11.197180125796784,-0.0003013438406629193
11.202456836506395,0.011360342070632756
11.207733547216009,0.01861885878927934
11.21301025792562,0.01740132108042396
11.218286968635232,0.011222154890638993
11.223563679344844,0.005311086496677813
11.228840390054456,0.0011837419348001527
11.234117100764067,-0.002036385355116144
11.23939381147368,-0.005241145605285556
11.244670522183291,-0.009697479835717095
11.249947232892904,-0.014561855983817516
11.255223943602516,-0.014025254699954776
11.260500654312128,-0.0038375546991954276
11.265777365021739,0.010319774696599397
11.271054075731353,0.018749756513583873
11.276330786440964,0.019730304276383913
11.281607497150576,0.019234141292814144
11.286884207860188,0.021923507522497245
11.2921609185698,0.025853253977889304
11.297437629279411,0.023850511104733664
11.302714339989025,0.00848230043697807
11.307991050698636,-0.022013280654683578
11.313267761408248,-0.05723526612692019
11.31854447211786,-0.07677621060235781
11.323821182827473,-0.06992058629710085
11.329097893537085,-0.047958450108220516
11.334374604246698,-0.02796133227874302
11.339651314956308,-0.016635709246635367
11.344928025665922,-0.01453600085133334
11.350204736375533,-0.022977474290239823
11.355481447085145,-0.042185431418243415
11.360758157794757,-0.0649407055300917
11.36603486850437,-0.07553509356491868
11.37131157921398,-0.0628252363224063
11.376588289923594,-0.03323826048426491
11.381865000633205,-0.004543943435377458
11.387141711342817,0.009260464436238682
11.39241842205243,0.006558093703397328
11.397695132762042,-0.002870102553314939
11.402971843471652,-0.007884613725411913
11.408248554181267,-0.004756682292054913
11.413525264890877,0.003584094446717862
11.41880197560049,0.01253322159133977
11.424078686310102,0.01984209355658736
11.429355397019714,0.026818081895273318
11.434632107729325,0.03456535266545061
11.439908818438939,0.0396288928645509
11.44518552914855,0.03718578047363634
11.450462239858163,0.028068988112671646
11.455738950567774,0.017616389069920725
11.461015661277386,0.009050664748065774
11.466292371986999,0.0030786714009329555
11.471569082696611,0.0005028655257387541
11.476845793406222,-0.00020960307537922336
11.482122504115836,-0.004202016980307367
11.487399214825446,-0.013868455020693926
11.492675925535059,-0.02498710935061404
11.497952636244671,-0.032433133581673844
11.503229346954283,-0.034732666933983386
11.508506057663894,-0.03251252455645894
11.513782768373508,-0.02658364947746826
11.519059479083118,-0.017073024935958858
11.52433618979273,-0.0042776433200617464
11.529612900502343,0.009820166991116333
11.534889611211955,0.021072007798017607
11.540166321921566,0.02309273418533963
11.54544303263118,0.012495575259934824
11.55071974334079,-0.003982307756500991
11.555996454050403,-0.014670357684454613
11.561273164760015,-0.016033144334712708
11.566549875469628,-0.01502864645533896
11.57182658617924,-0.017290176216067193
11.577103296888852,-0.016243297015080857
11.582380007598463,0.0022077121055938936
11.587656718308077,0.044193139615903446
11.592933429017688,0.09585662303939055
11.5982101397273,0.12794615328378262
11.603486850436912,0.12317923813737465
11.608763561146525,0.09331950295752713
11.614040271856135,0.05883853444300753
11.61931698256575,0.02772902310946301
11.62459369327536,0.0003281524165351527
11.629870403984972,-0.02017001610502426
11.635147114694584,-0.028933037357522152
11.640423825404197,-0.02597623048064341
11.645700536113807,-0.015658198778892136
11.650977246823421,-0.00285231207187627
11.656253957533032,0.007947602885616951
11.661530668242644,0.01317413258957607
11.666807378952257,0.012116767440140265
11.672084089661869,0.0088619107707412
11.67736080037148,0.009313693209529923
11.682637511081094,0.014330568365756635
11.687914221790704,0.01852489264036998
11.693190932500318,0.016646021985653073
11.698467643209929,0.01066402504466966
11.703744353919541,0.008464894258044406
11.709021064629153,0.013279757253209314
11.714297775338766,0.019431626116800705
11.719574486048376,0.020843748071701442
11.72485119675799,0.01712554857115606
11.730127907467601,0.010323485297054926
11.735404618177213,0.0023923811571634063
11.740681328886826,-0.0032695975678282514
11.745958039596438,-0.0029441504216053817
11.751234750306049,0.003287299080098038
11.756511461015663,0.011027388805999336
11.761788171725273,0.015998402090506614
11.767064882434886,0.016637098639635972
11.772341593144498,0.011630893901223124
11.77761830385411,-0.0031678841426878474
11.78289501456372,-0.031201237710036817
11.788171725273335,-0.06383084615014097
11.793448435982945,-0.08034670137394505
11.798725146692558,-0.070434980926109
11.80400185740217,-0.04768466177939489
11.809278568111782,-0.03171710340867975
11.814555278821395,-0.027021302691406048
11.819831989531007,-0.024521337259447898
11.825108700240618,-0.016121773204200038
11.830385410950232,-0.0029677612665692365
11.835662121659842,0.008425906130901089
11.840938832369455,0.014174969903957484
11.846215543079067,0.016749594306336085
11.85149225378868,0.021929434106532808
11.85676896449829,0.03071520744073917
11.862045675207904,0.0361121777914814
11.867322385917515,0.03189112673339883
11.872599096627127,0.020201150070414602
11.87787580733674,0.007248046095946337
11.883152518046352,-0.0025063689250030604
11.888429228755962,-0.0064450977856880965
11.893705939465574,-0.003966264962386227
11.898982650175187,0.0018371356780912263
11.904259360884797,0.0062884329763203675
11.909536071594411,0.007411035972521122
11.914812782304022,0.006141441456287529
11.920089493013634,0.004027288480702853
11.925366203723247,0.002157512977632461
11.930642914432859,0.0009560725572582191
11.935919625142471,0.0004388122122489442
11.941196335852084,-9.678137599069287e-05
11.946473046561694,-0.002481766456557181
11.951749757271308,-0.007031749038917132
11.957026467980919,-0.009524096857187891
11.962303178690531,-0.003956478802523538
11.967579889400144,0.010621806594851247
11.972856600109756,0.02712915161572667
11.978133310819366,0.03484436006606368
11.98341002152898,0.027084201030622916
11.988686732238591,0.004415297904548783
11.993963442948203,-0.030549177825222366
11.999240153657816,-0.07700013627271782
12.004516864367428,-0.1255345613415158
12.009793575077039,-0.1510957963286366
12.015070285786653,-0.13703670006656282
12.020346996496263,-0.0975286385145879
12.025623707205876,-0.05734544364908299
12.030900417915488,-0.02730918695283551
12.0361771286251,-0.008419388255622665
12.04145383933471,0.0005915592605987176
12.046730550044325,0.0036979813321852397
12.052007260753935,0.005139068464566458
12.05728397146355,0.0062193247399491645
12.06256068217316,0.007103200966460457
12.067837392882772,0.008660491333741416
12.073114103592385,0.011455539509465665
12.078390814301997,0.014534379209966738
12.083667525011608,0.014087909183828405
12.088944235721222,0.005095666141808907
12.094220946430832,-0.010525403201810854
12.099497657140445,-0.020301767488529167
12.104774367850057,-0.014868974290061798
12.11005107855967,0.0002730020417176758
12.11532778926928,0.015699178093775138
12.120604499978894,0.02832898453087926
12.125881210688505,0.03537388205302912
12.131157921398117,0.031736224615627605
12.13643463210773,0.017022971956833374
12.141711342817342,0.0002839791214866933
12.146988053526952,-0.005670575654782049
12.152264764236566,0.0036216216080499834
12.157541474946177,0.019276556890147133
12.162818185655789,0.02493689583871567
12.168094896365401,0.00704116427449555
12.173371607075014,-0.035401421646092245
12.178648317784626,-0.08430905525248163
12.183925028494238,-0.10883103089241428
12.189201739203849,-0.09272447184875258
12.194478449913463,-0.0523727018982543
12.199755160623074,-0.01488723952057108
12.205031871332686,0.008268811422215269
12.210308582042298,0.018043163929728854
12.21558529275191,0.01669385926995448
12.220862003461521,0.007436923369736203
12.226138714171135,-0.0042741634785589695
12.231415424880746,-0.013837625498172926
12.236692135590358,-0.019350009007854118
12.24196884629997,-0.01932057650562728
12.247245557009583,-0.009211326258615125
12.252522267719193,0.018927224298080962
12.257798978428808,0.06937779619156811
12.263075689138418,0.1283259581583222
12.26835239984803,0.16173356710733228
12.273629110557643,0.14599181600571756
12.278905821267255,0.09392521429816611
12.284182531976866,0.03596686336724447
12.28945924268648,-0.007761717362775214
12.29473595339609,-0.032145887835777306
12.300012664105704,-0.04083636705953126
12.305289374815315,-0.039111800200136965
12.310566085524927,-0.030891114904500278
12.31584279623454,-0.0200423425074767
12.321119506944152,-0.009293350467365966
12.326396217653762,0.0014366763507383613
12.331672928363377,0.011692368088132269
12.336949639072987,0.017677695691256677
12.3422263497826,0.016416791789011412
12.347503060492212,0.01030154264115033
12.352779771201824,0.004612203618185703
12.358056481911435,0.0019848192163894815
12.363333192621049,0.0009270849952971809
12.36860990333066,-0.001545054463631489
12.373886614040272,-0.006751954506619878
12.379163324749884,-0.011428472319760345
12.384440035459496,-0.008783008182805857
12.389716746169107,0.003407519057982731
12.394993456878721,0.018736839645032394
12.400270167588332,0.028956995724325144
12.405546878297944,0.03032781170254621
12.410823589007556,0.023452022360742567
12.416100299717169,0.011346062333789389
12.42137701042678,-0.002038181425868333
12.426653721136393,-0.012141088492874527
12.431930431846004,-0.014927992143973723
12.437207142555618,-0.010040366512289307
12.442483853265228,-0.0009280846604278906
12.44776056397484,0.006741134484410743
12.453037274684453,0.005878944274515174
12.458313985394065,-0.005534157564750858
12.463590696103676,-0.019256152941809306
12.46886740681329,-0.026770990434484884
12.4741441175229,-0.029565273073290647
12.479420828232513,-0.03248081752097028
12.484697538942125,-0.03423051019597637
12.489974249651738,-0.028893197122507007
12.495250960361348,-0.01223956045228897
12.500527671070962,0.0145441022905838
12.505804381780573,0.042540047183048525
12.511081092490185,0.05646437140627177
12.516357803199798,0.0477999523765794
12.52163451390941,0.026140392831285574
12.52691122461902,0.00889462555523175
12.532187935328635,0.004940405005195714
12.537464646038245,0.011632415591023305
12.54274135674786,0.020270628350661634
12.54801806745747,0.02381426627296682
12.553294778167082,0.021782175509626692
12.558571488876694,0.01889024773377662
12.563848199586307,0.020340087476474818
12.569124910295917,0.026159900133620448
12.574401621005531,0.029796459166314994
12.579678331715142,0.024852789129951418
12.584955042424754,0.012301818279986767
12.590231753134367,-0.0008626763102209047
12.595508463843979,-0.008445644054292727
12.60078517455359,-0.008652548757130243
12.606061885263204,-0.0025815309504491502
12.611338595972814,0.00850150342597846
12.616615306682426,0.02410319432571828
12.621892017392039,0.04315571152035622
12.627168728101651,0.060542128401970756
12.632445438811262,0.06637910653530447
12.637722149520876,0.0550976862400167
12.642998860230486,0.033498328794671434
12.648275570940099,0.013455532661400664
12.653552281649711,0.0013128626434129446
12.658828992359323,-0.0032818928382125235
12.664105703068936,-0.00459267586889666
12.669382413778548,-0.008177156858257383
12.674659124488159,-0.017334264945478607
12.679935835197773,-0.029580896954178218
12.685212545907383,-0.037810502927602435
12.690489256616996,-0.03686887303083566
12.695765967326608,-0.02854333553744387
12.70104267803622,-0.020313379544393863
12.70631938874583,-0.018621595564212425
12.711596099455445,-0.022371984956919163
12.716872810165055,-0.024704199051909258
12.722149520874668,-0.021073966980577764
12.72742623158428,-0.011814776375089223
12.732702942293892,0.0035237708141263543
12.737979653003503,0.02692845606350494
12.743256363713117,0.05226639468468533
12.748533074422728,0.064206447369217
12.75380978513234,0.056030942639029496
12.759086495841952,0.03781501075565377
12.764363206551565,0.021095325170756282
12.769639917261175,0.009312877874325689
12.77491662797079,0.0023196053585382626
12.7801933386804,-0.0010323782215560027
12.785470049390014,-0.0020385899175890615
12.790746760099625,-0.0008005944610643505
12.796023470809237,0.0026491828177826987
12.80130018151885,0.00745089972420161
12.806576892228462,0.012281315775286128
12.811853602938072,0.014487121046061799
12.817130313647686,0.012305454157488975
12.822407024357297,0.009916329564197473
12.827683735066909,0.013341052718397415
12.832960445776521,0.020440668948511476
12.838237156486134,0.02280243302170683
12.843513867195744,0.016375515560304317
12.848790577905358,0.003506898331899493
12.854067288614969,-0.011673270420839156
12.859343999324581,-0.024068290602003408
12.864620710034194,-0.029292487205726206
12.869897420743806,-0.029080894270386543
12.875174131453416,-0.0318074584736462
12.88045084216303,-0.04607405601220454
12.885727552872641,-0.07222883640412775
12.891004263582253,-0.09632491668562433
12.896280974291866,-0.09659458261096492
12.901557685001478,-0.06618421886122046
12.90683439571109,-0.022675835040005726
12.912111106420703,0.013315661967404675
12.917387817130313,0.03447798002972418
12.922664527839927,0.041183393698661024
12.927941238549538,0.03612830674954712
12.93321794925915,0.023608665739734573
12.938494659968763,0.008164781014901435
12.943771370678375,-0.0049079722738667175
12.949048081387986,-0.011174338571820971
12.9543247920976,-0.011408442009402862
12.95960150280721,-0.00995440935659804
12.964878213516823,-0.009560989231446129
12.970154924226435,-0.011267881524454596
12.975431634936045,-0.015472374825612787
12.980708345645658,-0.018350307063413427
12.98598505635527,-0.013050210891146552
12.991261767064882,-0.0004883410789228411
12.996538477774493,0.008689726327740298
13.001815188484107,0.006986570898055631
13.007091899193718,-0.0027709926894716823
13.01236860990333,-0.013346820799450564
13.017645320612942,-0.019942348233763375
13.022922031322555,-0.02213661296023276
13.028198742032167,-0.022024008993178266
13.03347545274178,-0.02078062331215314
13.03875216345139,-0.018003314115958426
13.044028874161004,-0.01310855426752144
13.049305584870615,-0.0050549960644602435
13.054582295580227,0.008114517040486713
13.05985900628984,0.027391082948558406
13.065135716999452,0.04785486147598216
13.070412427709062,0.05743580403416018
13.075689138418676,0.04883531180373833
13.080965849128287,0.029238696207577998
13.086242559837899,0.011030883910965062
13.091519270547511,0.0006331761311153027
13.096795981257124,-0.001857727101631524
13.102072691966734,-0.0003215232533509204
13.107349402676348,0.0006154902175580328
13.112626113385959,-0.00031307733712207124
13.117902824095571,-0.00028078897221400355
13.123179534805184,0.004935672251221811
13.128456245514796,0.017105768407694254
13.133732956224407,0.03213623325112777
13.13900966693402,0.04118353302303821
13.144286377643631,0.037705753140931414
13.149563088353244,0.02247630059667538
13.154839799062856,0.002479289994388909
13.160116509772468,-0.013201214493277966
13.16539322048208,-0.019197213188784076
13.170669931191693,-0.015394362000702067
13.175946641901303,-0.002094157520345989
13.181223352610917,0.021242176886276026
13.186500063320528,0.049926521651387286
13.19177677403014,0.0706558084501483
13.197053484739753,0.07071676807550623
13.202330195449365,0.05074602297134766
13.207606906158976,0.022577737860562032
13.21288361686859,-0.00241324963037774
13.2181603275782,-0.017498251952984153
13.223437038287813,-0.020575795544331543
13.228713748997425,-0.015510683875494825
13.233990459707037,-0.008668848086483251
13.239267170416648,-0.002688060737089672
13.244543881126262,0.004111718053682265
13.249820591835872,0.013625063682550337
13.255097302545485,0.024248214850846588
13.260374013255097,0.030087881698347564
13.26565072396471,0.025932402020350638
13.270927434674322,0.013252183816628448
13.276204145383934,-0.0023834583512384465
13.281480856093545,-0.016907622672633873
13.286757566803159,-0.02858903136926995
13.29203427751277,-0.036757269476915384
13.297310988222382,-0.03907688956428429
13.302587698931994,-0.03189639465647206
13.307864409641606,-0.01731048226248974
13.313141120351217,-0.005611146789454818
13.318417831060831,-0.0053236672550631674
13.323694541770442,-0.014070988768450492
13.328971252480054,-0.02245760161286488
13.334247963189666,-0.022693860928790815
13.339524673899279,-0.013019808294438098
13.344801384608889,0.0027239124588198686
13.350078095318503,0.01717207579178649
13.355354806028114,0.020285432835322283
13.360631516737726,0.00654847806011628
13.365908227447338,-0.017034455386392918
13.37118493815695,-0.03805103541122498
13.376461648866561,-0.05056675442935257
13.381738359576175,-0.05656646393909317
13.387015070285786,-0.05747728012632345
13.392291780995398,-0.047763355672900694
13.39756849170501,-0.024642197961997774
13.402845202414623,0.0024194954094797546
13.408121913124235,0.021437257447056986
13.413398623833848,0.02743556741976034
13.418675334543458,0.02013166347308601
13.423952045253072,0.0038631328924537177
13.429228755962683,-0.011285174292319653
13.434505466672295,-0.017519627520235483
13.439782177381908,-0.01764556906979153
13.44505888809152,-0.020574901007582476
13.45033559880113,-0.030323042701900612
13.455612309510744,-0.04218837349977958
13.460889020220355,-0.048183259913755015
13.466165730929967,-0.04479377879021807
13.47144244163958,-0.03573204585726026
13.476719152349192,-0.02728527103300321
13.481995863058803,-0.022214279133636574
13.487272573768417,-0.018636878573043913
13.492549284478027,-0.013427842071443045
13.49782599518764,-0.005711644978844256
13.503102705897252,0.00269465800649513
13.508379416606864,0.008063403381165889
13.513656127316477,0.005743661159725721
13.518932838026089,-0.00656065837298192
13.5242095487357,-0.02567348373031967
13.529486259445314,-0.043774819123601004
13.534762970154924,-0.05270931603128672
13.540039680864536,-0.04959051930433397
13.545316391574149,-0.03895939996158025
13.550593102283761,-0.028205899939363347
13.555869812993372,-0.02184214341560017
13.561146523702986,-0.0193255484247816
13.566423234412596,-0.016688660430735316
13.571699945122209,-0.013355450409851673
13.576976655831821,-0.014983053327530776
13.582253366541433,-0.02396225531356226
13.587530077251044,-0.03263132381682749
13.592806787960658,-0.03176881830212011
13.598083498670269,-0.020405948143545793
13.60336020937988,-0.003308123754784025
13.608636920089493,0.015341072806030604
13.613913630799106,0.03217314765158919
13.619190341508716,0.042829791087436495
13.62446705221833,0.04353209203982539
13.62974376292794,0.03507257760473766
13.635020473637553,0.023868935659861916
13.640297184347165,0.017508876378379667
13.645573895056778,0.01838013147826831
13.65085060576639,0.020561208902570145
13.656127316476002,0.01529205361065508
13.661404027185613,0.0009616844391857576
13.666680737895227,-0.015487697851028874
13.671957448604838,-0.026218753198844202
13.67723415931445,-0.027930986923489925
13.682510870024062,-0.021418203774091912
13.687787580733675,-0.009496290991182554
13.693064291443285,0.0037387856962675732
13.6983410021529,0.013698008644293694
13.70361771286251,0.017241001495261435
13.708894423572122,0.01324649339735476
13.714171134281735,0.004153545213695739
13.719447844991347,-0.0026382527004319856
13.724724555700957,-0.00197296093298929
13.730001266410572,0.0022653254850408273
13.735277977120182,0.002967406475221858
13.740554687829794,-0.002286478870819276
13.745831398539407,-0.011316340285653887
13.751108109249019,-0.020468571666541313
13.75638481995863,-0.025762112360836482
13.761661530668244,-0.02485540904357304
13.766938241377854,-0.020591208039068876
13.772214952087468,-0.018700111808413966
13.777491662797079,-0.020646079614269362
13.782768373506691,-0.022489472623792698
13.788045084216304,-0.02023858400800499
13.793321794925916,-0.01407621751640772
13.798598505635526,-0.007309224186467415
13.80387521634514,-0.0018106888687868014
13.809151927054751,0.0035540416329046007
13.814428637764363,0.010316831636031176
13.819705348473976,0.01932409485549987
13.824982059183588,0.03003603557912712
13.830258769893199,0.03609967260381411
13.835535480602813,0.026830261127969515
13.840812191312423,1.459892490239794e-05
13.846088902022036,-0.03131959485203803
13.851365612731648,-0.04883525987174146
13.85664232344126,-0.04499772607462995
13.861919034150871,-0.029950879805741806
13.867195744860485,-0.019499234029286574
13.872472455570096,-0.018031460320841217
13.877749166279708,-0.017435338428777442
13.88302587698932,-0.005338520596390738
13.888302587698933,0.029456885211898234
13.893579298408545,0.08901984800140986
13.898856009118157,0.151630051143616
13.904132719827768,0.1734111740653172
13.909409430537382,0.13102475836240904
13.914686141246992,0.054814400506952465
13.919962851956605,-0.004694280578801854
13.925239562666217,-0.02503186586164728
13.93051627337583,-0.016436044144119314
13.93579298408544,-0.000523029548216679
13.941069694795054,0.007435868905451925
13.946346405504665,0.0032843819323861868
13.951623116214277,-0.00789008084381316
13.95689982692389,-0.015298807430760184
13.962176537633502,-0.011625469046076423
13.967453248343112,-0.001296950415754193
13.972729959052726,0.004620113934368043
13.978006669762337,0.0015189456304514407
13.98328338047195,-0.005712171917329864
13.988560091181562,-0.011339028909240441
13.993836801891174,-0.013565988263504759
13.999113512600784,-0.013066584952294324
14.004390223310399,-0.011898794161692556
14.009666934020009,-0.010836260616645433
14.014943644729623,-0.00849001405699517
14.020220355439234,-0.006455190538427479
14.025497066148846,-0.011072207094893777
14.030773776858458,-0.025959247856181828
14.03605048756807,-0.04483748679102295
14.041327198277681,-0.056016341923222815
14.046603908987295,-0.05487907854716459
14.051880619696906,-0.0475139647402038
14.057157330406516,-0.04135938005242442
14.06243404111613,-0.03651955080912129
14.067710751825741,-0.026341863695707166
14.072987462535353,-0.005488711854561885
14.078264173244966,0.02089439699659975
14.083540883954578,0.038473769772663355
14.088817594664189,0.03886939369059851
14.094094305373803,0.02787413156050212
14.099371016083413,0.01512891263655836
14.104647726793026,0.004795135470541372
14.109924437502638,-0.00414899952612655
14.11520114821225,-0.015309487939628962
14.120477858921861,-0.029432959432538035
14.125754569631475,-0.0407455442515306
14.131031280341086,-0.04082582613341015
14.1363079910507,-0.022363546573371543
14.14158470176031,0.02174341623686362
14.146861412469923,0.0959510100510656
14.152138123179535,0.183331986598095
14.157414833889147,0.2355658468602462
14.162691544598758,0.21908271509620553
14.167968255308372,0.15590219270091954
14.173244966017982,0.0850598273504704
14.178521676727595,0.026104890089084072
14.183798387437207,-0.007451502363362355
14.18907509814682,-0.009497269994325975
14.19435180885643,0.005105916746710606
14.199628519566044,0.013876590627519714
14.204905230275655,0.006121180144532155
14.210181940985267,-0.012836417437262475
14.21545865169488,-0.025697461915624796
14.220735362404492,-0.015890057128980714
14.226012073114102,0.014228438043371485
14.231288783823716,0.043838385091169836
14.236565494533327,0.05719850628199461
14.24184220524294,0.05467192294263693
14.247118915952552,0.04077746022895633
14.252395626662164,0.018968207710370288
14.257672337371776,-0.005035125054316978
14.262949048081389,-0.025071159532422966
14.268225758790999,-0.03320207879399067
14.273502469500613,-0.02324445927218638
14.278779180210224,-0.005892078570065677
14.284055890919836,-0.0010356376119859114
14.289332601629448,-0.009924668471139672
14.29460931233906,-0.014097711999363282
14.299886023048671,0.004674464518425481
14.305162733758285,0.05120135882940755
14.310439444467896,0.10664504576186823
14.315716155177508,0.1321242859735715
14.32099286588712,0.10605835428079168
14.326269576596733,0.05102633723901059
14.331546287306344,0.004172701611203785
14.336822998015958,-0.01943217608070384
14.342099708725568,-0.025316936669972437
14.34737641943518,-0.02399959838262387
14.352653130144793,-0.022653002858174003
14.357929840854405,-0.02378358964992876
14.363206551564016,-0.025914275334750013
14.36848326227363,-0.024657130998593284
14.37375997298324,-0.017663395792981196
14.379036683692854,-0.008096106299714027
14.384313394402465,0.0007719944161038478
14.389590105112077,0.009916946531732175
14.39486681582169,0.019456274103018895
14.400143526531302,0.025222784984082525
14.405420237240913,0.024153503456418788
14.410696947950527,0.018603545458914923
14.415973658660137,0.012267818393033671
14.42125036936975,0.0060489558777896526
14.426527080079362,0.00048466237128415583
14.431803790788974,-0.0017794461488750569
14.437080501498585,0.0013357995333525001
14.442357212208199,0.005471790766017659
14.44763392291781,-0.0015006073458680475
14.452910633627422,-0.030178608457871937
14.458187344337034,-0.07412418124961255
14.463464055046646,-0.10624938323616882
14.468740765756257,-0.10408989935504208
14.474017476465871,-0.07369176642715193
14.479294187175482,-0.03515072722235425
14.484570897885094,0.0002445428476310829
14.489847608594706,0.028307536868589184
14.495124319304319,0.043033705629221486
14.500401030013931,0.04025833988553579
14.505677740723543,0.024427556804347807
14.510954451433154,0.004691438772600862
14.516231162142768,-0.011470481780372972
14.521507872852379,-0.019022824243856915
14.52678458356199,-0.01621901597072138
14.532061294271603,-0.008184067684124087
14.537338004981216,-0.008314171026133434
14.542614715690826,-0.029485341183089472
14.54789142640044,-0.06727095935581594
14.55316813711005,-0.0969686964279732
14.558444847819663,-0.0980708030334484
14.563721558529275,-0.07472260730428248
14.568998269238888,-0.04197071072160849
14.574274979948498,-0.006786414866789221
14.579551690658112,0.02876809547686435
14.584828401367723,0.05854938387429421
14.590105112077335,0.07290186500898135
14.595381822786948,0.06765607803946821
14.60065853349656,0.049084029446875066
14.60593524420617,0.02621523469328022
14.611211954915785,0.004055707182506582
14.616488665625395,-0.0156408467807083
14.62176537633501,-0.0342390240154067
14.62704208704462,-0.05316001460773734
14.632318797754232,-0.06693327227810462
14.637595508463844,-0.06497931917912322
14.642872219173457,-0.044336106859287766
14.648148929883067,-0.016342701084220833
14.653425640592681,0.0030526625850113747
14.658702351302292,0.006229500323785257
14.663979062011904,-0.002758612972576865
14.669255772721517,-0.01408578517391162
14.674532483431129,-0.021563790981762688
14.67980919414074,-0.02580848625089639
14.685085904850354,-0.028593150526380597
14.690362615559964,-0.02746321894187262
14.695639326269577,-0.01834985022303598
14.700916036979189,-0.0033809238609529882
14.706192747688801,0.008635322894911006
14.711469458398412,0.012033650820768856
14.716746169108026,0.009022210972082048
14.722022879817636,0.003766795348756872
14.727299590527249,-0.0009668417817292512
14.732576301236861,-0.0011510886343759946
14.737853011946473,0.007078749538848813
14.743129722656086,0.022177419834680037
14.748406433365698,0.03652535742367599
14.753683144075309,0.04155598727558798
14.758959854784923,0.03619510807186674
14.764236565494533,0.028586458122134544
14.769513276204146,0.024807113058201123
14.774789986913758,0.022201405167671894
14.78006669762337,0.014395743603504993
14.78534340833298,-0.005971655224327186
14.790620119042595,-0.04288727673555571
14.795896829752206,-0.08587544684829783
14.801173540461818,-0.1114976837203853
14.80645025117143,-0.10495829684964308
14.811726961881043,-0.07451067047255688
14.817003672590653,-0.040245287672413976
14.822280383300267,-0.01679195392628842
14.827557094009878,-0.008076757928968564
14.83283380471949,-0.01096702424837522
14.838110515429102,-0.021290838725800416
14.843387226138715,-0.036077254446003446
14.848663936848325,-0.05081502171705005
14.85394064755794,-0.058792916676811545
14.85921735826755,-0.05614613103627143
14.864494068977162,-0.04544152802107433
14.869770779686775,-0.03218782867686083
14.875047490396387,-0.020007114608986423
14.880324201106,-0.009717714554532178
14.885600911815612,-0.0006626085377616057
14.890877622525222,0.007975167250515247
14.896154333234836,0.015936011745462997
14.901431043944447,0.02149231405855025
14.90670775465406,0.02289855620768178
14.911984465363672,0.018485475601743677
14.917261176073284,0.004920309309506859
14.922537886782894,-0.02010472847192504
14.927814597492508,-0.050455029731182564
14.933091308202119,-0.07177674730398705
14.938368018911731,-0.07540147586449836
14.943644729621344,-0.06588434852506526
14.948921440330956,-0.05006294102923401
14.954198151040567,-0.029821218937332365
14.95947486175018,-0.007813077826161042
14.964751572459791,0.011075876608582363
14.970028283169404,0.02440510419556493
14.975304993879016,0.031225635574199363
14.980581704588628,0.029121142211769393
14.98585841529824,0.01748857915481719
14.991135126007853,0.0009196505764461444
14.996411836717463,-0.012268946073879789
15.001688547427078,-0.0147408652198171
15.006965258136688,-0.006788156729489362
15.0122419688463,0.002792012960142178
15.017518679555913,0.005482870565283642
15.022795390265525,-0.0004915576658277121
15.028072100975136,-0.013204792702274551
15.03334881168475,-0.029773896707322937
15.03862552239436,-0.04457650504631354
15.043902233103973,-0.05089868798921304
15.049178943813585,-0.04635596362106874
15.054455654523197,-0.03403734902870697
15.059732365232808,-0.01849586987639492
15.065009075942422,-0.0034194879458813903
15.070285786652033,0.006770274563755743
15.075562497361645,0.008065085057677187
15.080839208071257,0.0023079391369866765
15.08611591878087,-0.003046358357237402
15.09139262949048,-0.002341679185019728
15.096669340200094,0.005495889202240806
15.101946050909705,0.022281033415037368
15.107222761619317,0.05351648401393064
15.11249947232893,0.099574449726227
15.117776183038542,0.14808695312304151
15.123052893748154,0.18706883045709516
15.128329604457766,0.21140776645557852
15.133606315167377,0.20753753689150062
15.13888302587699,0.16568295869920333
15.144159736586602,0.10484630449164947
15.149436447296212,0.05343916717757245
15.154713158005826,0.021221383832774634
15.159989868715437,0.0024379552508226494
15.16526657942505,-0.011648814904729448
15.170543290134662,-0.025841444442915636
15.175820000844274,-0.03903041102371514
15.181096711553884,-0.04802955827245243
15.186373422263499,-0.05275900624683237
15.191650132973109,-0.056072575724087845
15.196926843682721,-0.05870114895367271
15.202203554392334,-0.05730159595219318
15.207480265101946,-0.04935336013471179
15.212756975811557,-0.0367645920131614
15.21803368652117,-0.02279577183094085
15.223310397230781,-0.008598585048388334
15.228587107940395,0.004402605724050484
15.233863818650006,0.011317887689932858
15.239140529359618,0.009471921851415703
15.24441724006923,0.0044737140864615586
15.249693950778843,0.0032329798633609257
15.254970661488453,0.00519887606442308
15.260247372198068,0.00458860232929703
15.265524082907678,-0.002251120351735778
15.27080079361729,-0.012501515837750348
15.276077504326903,-0.017902975040660504
15.281354215036515,-0.010493563240749139
15.286630925746126,0.008922264741568986
15.29190763645574,0.028679156246957712
15.29718434716535,0.03652393804627707
15.302461057874963,0.02989879084335982
15.307737768584575,0.01648118040002563
15.313014479294187,0.007481340665824156
15.318291190003798,0.00734680027175805
15.323567900713412,0.010458614740722466
15.328844611423023,0.01011774471575088
15.334121322132635,0.004883615459236022
15.339398032842247,-0.004060111956012405
15.34467474355186,-0.012997367480001064
15.349951454261472,-0.014879441283131341
15.355228164971084,-0.005685866556877668
15.360504875680695,0.011781429331339643
15.365781586390309,0.031092756466236784
15.37105829709992,0.04326904916551465
15.376335007809532,0.04089983469586028
15.381611718519144,0.02601013117681735
15.386888429228756,0.008167429408820762
15.392165139938367,-0.0043769542480095736
15.397441850647981,-0.010007736663369463
15.402718561357592,-0.012473352666688496
15.407995272067204,-0.015203903401827056
15.413271982776816,-0.01821048016711413
15.418548693486429,-0.020086565534276502
15.42382540419604,-0.020653583064647058
15.429102114905653,-0.02100424520010753
15.434378825615264,-0.021400535016001483
15.439655536324876,-0.020263020007584162
15.444932247034489,-0.01676519847784122
15.4502089577441,-0.012297261784388426
15.455485668453711,-0.008403777511247525
15.460762379163326,-0.006266018845130586
15.466039089872936,-0.006431831178973666
15.471315800582548,-0.006796083708390192
15.47659251129216,-0.004635986122782861
15.481869222001773,-0.0018718240965225833
15.487145932711385,-0.005062497567864685
15.492422643420998,-0.020124197930057326
15.497699354130608,-0.047095252857616024
15.502976064840222,-0.07580231371272134
15.508252775549833,-0.08864837180579402
15.513529486259445,-0.07679664684349258
15.518806196969058,-0.05007128114883655
15.52408290767867,-0.0235922557788282
15.52935961838828,-0.004515014011426354
15.534636329097895,0.004711888341146385
15.539913039807505,0.0037773739179254263
15.545189750517117,-0.0017532674638411076
15.55046646122673,-0.003036449272192746
15.555743171936342,0.004615965735369925
15.561019882645953,0.021479775769295932
15.566296593355567,0.04648321117697614
15.571573304065177,0.07638864629164653
15.57685001477479,0.10804725417202561
15.582126725484402,0.13740759369558242
15.587403436194014,0.15251589993634135
15.592680146903625,0.14132381774062064
15.597956857613239,0.1050647283117137
15.60323356832285,0.05750746610242969
15.608510279032464,0.016458224398315048
15.613786989742074,-0.009339365300478238
15.619063700451687,-0.024621360632067844
15.624340411161299,-0.034817950722423385
15.629617121870911,-0.03865026523961446
15.634893832580522,-0.03441893260210294
15.640170543290134,-0.02511567124960985
15.645447253999748,-0.016628493392632348
15.650723964709359,-0.013374874204384195
15.656000675418971,-0.015942052471920373
15.661277386128582,-0.022258850234162197
15.666554096838196,-0.0293898868709734
15.671830807547808,-0.033989931855502066
15.677107518257419,-0.032917704325410455
15.68238422896703,-0.025244370062887697
15.687660939676645,-0.014478629790261665
15.692937650386256,-0.006884362266687694
15.698214361095866,-0.00446980110183114
15.703491071805479,0.00027814239929931187
15.708767782515093,0.020305649345714823
15.714044493224703,0.06241166014997974
15.719321203934316,0.11364480536519155
15.724597914643926,0.1417097113651933
15.729874625353542,0.12608927565669092
15.735151336063153,0.08278786982760089
15.740428046772763,0.04194691797535452
15.745704757482375,0.017203260759038087
15.75098146819199,0.0066267992313287834
15.7562581789016,0.0051426171604582235
15.761534889611212,0.007139078024479013
15.766811600320823,0.00660750331062134
15.772088311030437,0.0026264611594561085
15.77736502174005,0.0002559153060010204
15.78264173244966,0.0030578264591492425
15.78791844315927,0.00966305895255932
15.793195153868886,0.01654258748497561
15.798471864578497,0.01975221453033535
15.803748575288108,0.017457814740642858
15.80902528599772,0.013444965893315659
15.814301996707334,0.013597927973310154
15.819578707416944,0.018222777838387313
15.824855418126557,0.021554817877474174
15.830132128836167,0.018843566483506134
15.835408839545781,0.012533687946859627
15.840685550255394,0.01005205030913557
15.845962260965004,0.014328399058566463
15.851238971674617,0.01860618899330476
15.85651568238423,0.013929470262605291
15.861792393093841,-0.0012281797383559435
15.867069103803454,-0.02251261053522617
15.872345814513064,-0.043507090843033155
15.877622525222678,-0.05438096054924236
15.88289923593229,-0.047051466393378295
15.888175946641901,-0.024504252961013925
15.893452657351512,0.0009061611184009635
15.898729368061128,0.01665088363071188
15.904006078770738,0.018073411543124134
15.909282789480349,0.011345027119607677
15.914559500189961,0.005420079299274033
15.919836210899575,0.0019447998854193486
15.925112921609186,-0.001865825256050049
15.930389632318798,-0.006684805159974572
15.935666343028409,-0.013202170308416854
15.940943053738023,-0.02186136889434134
15.946219764447635,-0.028409024049841792
15.951496475157246,-0.02803177312582544
