0
-0.02250033102054364
-0.03267121644221727
-0.013919817539804973
0.021857233710963608
-0.007262767327884883
-0.026923400070523424
-0.026345873313164108
0.007147118617386565
0.011566930601935324
0.021237091441746885
-0.02129299529515782
-0.02593856410249947
-0.0800607631157664
-0.004303690311512431
0.011662346708417558
0.0059753037478002795
-0.011155331457793198
0.012126797676862061
0.03474573340081919
-0.010484336840062579
-0.0003854854908642981
0.01211117335418099
0.16152961665109442
0.005407413289010092
-0.1033899542230456
-0.04058469337333596
-0.006371630459322843
0.08531563578440747
0.1428008355165104
-0.03082091622568076
0.011313736107167923
-0.0011889258478499668
-0.0034142257450976454
0.01920086926053658
-0.010714500467206152
0.042666892367767516
0.007039074759719619
-0.026552517602096454
-0.001140126509784385
-0.01407073545676062
-0.05679996931443754
-0.14931798304074492
0.01459867035985741
0.021694792476670468
0.0103953985479791
-0.030221495056912275
-0.01216970096710921
-0.02738038134457487
0.016528316206418765
0.04327577264737639
0.01897300981225254
-0.0038027092834158937
0.004806830415637105
-0.02673296621753096
0.01906353769740361
0.006050358761009812
0.008267066380932072
-0.016239987721122513
-0.0027989091708506375
-0.03315345516230241
-0.002850317399925962
0.0681753356039548
-0.028512310705843237
-0.036186771428012264
0.06216605088167783
0.04178666265675766
0.013379886623877945
0.007296475965509099
-0.019468618723624855
0.007946462465139371
0.007340854731889402
-0.010256706239062883
0.07440272667099469
0.011763045960942511
-0.015176413402108922
-0.04041398013026179
-0.10067537898306876
-0.010990546293480303
0.002199489875993286
-0.0013556350954355232
-0.08065943374178576
0.0032826508710080927
0.023550933365340435
0.013934124377350676
-0.08242959430675163
0.0016015894321586277
0.009063944710570588
-0.030458642459660533
0.0063589676507713406
0.04820512659754636
0.041591863591669914
0.0024181057838343076
0.050243594678042916
0.016703788318400848
0.05411283650643758
-0.016497340256389104
-0.05503216110478968
0.004326821388726956
0.014220144251844473
-0.014950193674177558
0.036789263210022814
0.07304147460650419
-0.03353690386501372
-0.009157648068160086
-0.02329255129583251
0.09640423519421265
0.006900115545983931
-0.016716631255497005
-0.0052192426893632685
0.022413909134131303
0.052528949774854936
-0.011888541879630938
0.0032093423207939452
0.0029565715672107253
0.013676037216196313
0.02154547761657305
-0.04881087090186872
-0.06223963064254904
-0.06335726061454117
0.0009783884444344389
0.027596269552235625
0.04659438707587369
0.00034423990578929723
0.01200037917298175
0.01616795048849699
-0.0010853879104501937
-0.039770402347963585
-0.00875483646473231
-0.06871342760026554
-0.18701645480724738
0.01880429678557899
0.008497263805255383
0.028098081461401806
-0.023862608979989746
-0.012907648738757159
-0.02583169100943059
0.009038815367635233
0.025044929276096136
0.035519479302597246
0.03089067156184035
-0.03816594977351653
-0.021751216407804363
0.02270473037008669
-0.04005397146226376
-0.009152572620703698
-0.028988556891673633
-0.00023804086590283133
0.0030977212331180217
0.025441968532717962
0.015312359889432648
0.11268907922285175
0.05786884624755718
0.026412785731362878
0.014745629327134134
-0.001796225510980004
-0.041143631982020167
-0.005842208139605362
-0.02572802177500805
-0.011440415998507052
0.02087296354336798
0.0006513968823426507
0.02770266107248077
-0.022298995213563547
0.06372126317360097
0.12321765909889303
-0.02226370749149816
-0.01644738954518614
-0.0029019913546315564
0.05166797895428211
-0.023456516790892497
-0.02850056334787155
-0.21060228792110436
-0.051276765725490975
0.0670063511631677
-0.00531332914687521
0.01524758459367677
-0.03670687434412285
0.002717048965043244
-0.050365475000965
0.007816732009233806
0.01697519880443552
-0.02664978530219118
0.024958914158860687
-0.0261769266601528
-0.015674287120124523
0.02177846842934658
0.00423554568897787
-0.02330778705918199
-0.006314524123780825
-0.016555728117611416
0.015807051880247638
0.054996420252592125
0.12295632168696799
0.018137745199868053
-0.02706958403144162
-0.015389895219401824
0.02640156109068543
-0.026777965781740323
0.0333633931730336
-0.01874237686900469
-0.0057478289314580565
-0.0467690275652247
0.08042473181452305
-0.0058625629003743246
-0.0018759168977895504
-0.003140301030145606
0.005935224131050957
0.003284530237092476
0.028995337251449312
0.017721716559809638
0.02397025923822375
-0.007950108925610813
-0.016281107588242593
-0.01060433650800246
-0.001041286749244643
0.022437978508635163
-0.03390887612954357
-0.02594466287838231
-0.044897551554990235
-0.015241455392718612
0.003381632486540784
-0.03275887174354618
-0.014811526335614113
0.010961334979802156
0.01487043437505964
-0.0005488382195615111
-0.004903979145253729
0.05704181918046363
0.012575506068666803
-0.023801183080962452
-0.02046170623538167
-0.002100661101587206
0.03397870315329404
-0.00623865697709983
0.0010850647648110118
-0.013904147456530663
-0.009221755327368913
-0.021065694867503697
-0.0019936327459468325
0.03809379204549587
0.009806900895246206
-0.009319950526862688
0.018967900646742912
0.021804242211162
-0.022003569946915224
-0.026200632967126197
0.007718687553791552
-0.0037155069190173582
-0.009323216841186286
0.02571618541102297
-0.02861626911780711
-0.043699099052776094
0.013595778272365968
-0.03423033927320615
-0.03493319245524147
0.01580501697775332
0.006909151427984833
0.004079001684343849
0.022643936523861787
0.04055072465535654
0.05489845499664768
-0.012815956025494566
-0.027146571648417907
0.03161269134522505
-0.0324814949210889
-0.002771892792155952
0.03035409742130155
-0.010425591743153538
-0.030824938736485456
-0.02477707294745549
-0.0238646887296998
-0.018382855166048432
0.00475683052607814
-0.027107816190987157
0.008066725637160068
-0.033923381996162905
-0.05435022768220041
-0.05037661692291564
0.04180574581013464
0.01038038166948376
-0.02857495990021149
0.0523616419185235
0.1401958516613588
-0.013957578023647225
0.08748373560912627
0.06090361091730086
-0.014424881619908904
0.02547107814322043
0.04939236315832019
0.05790731237900606
-0.02137809308714123
-0.0268490844012617
0.03640041743241406
0.03161859570360275
0.02377891297135492
-0.08183192827062807
-0.01810012636340256
0.02937241061424058
-0.00477672738352406
-0.001575082142651275
0.002845506451353572
-0.041157125831599056
-0.08075106557656725
0.026263625157753757
0.0010779491242573014
0.010686109230588414
-0.1123217748760689
0.03708738974010677
-0.02664626363268191
-0.03323608293948335
0.017170462417246117
0.00892585178947257
0.018092654831085957
0.015223288370095584
-0.004957100690827563
-0.05315984252541853
-0.04656602432107064
0.027473662218397647
-0.11846401654546788
-0.009420334573999593
-0.03050461869347542
-0.005434834948181763
-0.0024014600948196463
-0.027872085244642162
-0.05809819189196706
0.09275050590518008
0.10979684468506715
0.04586517281028351
0.08859150013414599
0.023413508675053825
0.024647434352371246
-0.006685516534742925
-0.02463454189496528
-0.004615817342690022
0.003621427123966888
0.01737512399333377
-0.10218807449757816
-0.046383671858730796
0.00277097411242627
0.02391133713488022
0.029052769501001066
0.01259215945727478
0.0048554113869783986
-0.15032361061046245
-0.04850444594657564
-0.012679905991164397
-0.01563568763029015
-0.0009547411697977747
-0.011321857726007063
-0.00269740639579782
-0.0005957287121664716
-0.02949258830176414
-0.0363704450031664
0.1783271257410875
0.17041995315660438
-0.01024002099930731
-0.016707778664539354
0.010477774493253529
-0.024170246787932864
-0.009484984138246918
-0.02537779254997743
-0.021509362904789164
-0.000915721085394428
-0.04983622675474827
0.10177074678396118
0.054691343748192636
-0.03859563827469217
-0.011537162880949546
0.023264031741705164
0.0343633482743931
0.036089055541752034
-0.021340428767174544
-0.02843518125670191
-0.021871216911996023
0.016117026340713877
0.0011291807569108437
-0.017317588563356426
0.025308415130933053
-0.0025006888892562936
-0.017947144008584274
-0.01765299004308188
-0.006906446203376001
0.0015284422374220615
-0.013889947110349047
-0.013801417256080742
0.0020529573803468753
0.04265600869123678
0.023380450460055876
0.012052842251133044
0.06929376926359623
-0.005563515643103027
0.022717174637395386
0.0021277990244984372
0.06619006640330624
-0.03103978902298715
-0.21641269294024415
-0.00829533040684319
-0.006959328009103989
-0.029257497337229512
0.02023244923634347
-0.01697761465155148
-0.024588145508721994
0.01372460229159425
0.006747272636543983
-0.008228348682423016
0.016289939540799648
-0.0157506129679825
0.007987402932752588
-0.028210722852495356
-0.010179627414556636
0.20436359915280786
0.0641750247567586
-0.034815228130760954
-0.04045308149032494
0.010458957058156035
-0.0680900063262181
-0.020837170076734607
-0.015575690923791692
0.006129831929972849
0.0035142835414040396
0.014640793756485998
0.01033824165693444
0.0033470643360551558
0.03750683754707557
0.018216753290688083
0.012296326456066023
-0.04002255939510129
0.0037158436449366014
0.02243161907298676
-0.0031476560510905094
0.02121782876211682
0.010091191666955443
-0.015151134350108002
-0.0021482307700252464
-0.042540763990959324
-0.008838064717402316
0.00574225148129777
0.051882040304351645
-0.010256499171379463
-0.04359963567629227
-0.06959815824253444
0.011852925084857276
-0.036395116768353726
-0.007519998036717573
0.0046387996521036435
-0.01777637379716984
0.005208342207538157
-0.027666653156616317
-0.005536166169001852
0.01247805069606479
0.004649647272254885
-0.01001457295663231
-0.017383919405459584
0.024487052826458834
0.0034570000642925
0.025704711686282574
-0.026072243600259597
0.0027927509175769876
0.02170729280252599
0.025200623274438644
-0.018356213384084132
-0.018188854640261768
-0.005387228134570699
-0.011189388243060436
0.02652315290244803
0.04889336746613082
0.030418272087279572
-0.02539465886225815
0.02695956869617135
-0.02174942373405763
-0.016049800749964142
0.03394255933390823
0.0070348674558426
0.0013951041662744628
0.01965243109172592
-0.013340671313097368
-0.01945305767592411
-0.12389794311464111
-0.03867559631282578
-0.0011613715547589033
0.030094305737465202
0.016942279620819414
-0.02822030952050004
-0.005310943698558557
0.007646111965632371
0.1764155966662718
0.009714709177967717
-0.0213643247885639
0.04531269088598401
-0.0008016232023881197
-0.006723182143007634
0.0002886082571858702
0.016933813945174576
0.000485943456478383
-0.02354030496087243
0.004460152668003837
0.00970733433060057
-0.015752891415572578
-0.014862869520048082
-0.019752116880069146
-0.02174752582489284
0.006564004264341466
0.05844651057019383
-0.002374836350970809
0.0031777661634887315
0.0321851811003672
0.005976497990774033
0.005679943523038102
0.015697675874232105
0.017908393824525106
-0.01614721650492085
-0.03828461551174449
-0.017469867341311847
-0.03343355183795663
-0.015486908358002581
-0.03015584844712279
-0.04709053325194809
-0.026428012433965527
-0.03262321513819028
-0.004705027112426837
0.017533151343928115
-0.016811761508969566
-0.025028572000797687
-0.0411267256004339
-0.01196136586074754
0.04148261524882159
-0.0014405728648940756
-0.031630045684225935
0.15751115633883192
0.08810234647578392
-0.04002118494557693
-0.00143563320801817
-0.04678083413743493
0.006381272882107089
-0.02130529261394899
-0.021275581026250403
-0.02098934930946621
-0.003629484660668113
0.04986541544977479
-0.012301990155602445
0.019872962911693867
0.03516446192758159
0.013555469644633101
0.0065452410586938166
-0.020411526558606008
-0.008338551093223713
-0.028096454415857283
0.0578441692571445
-0.03238731725870699
-0.03553594426990346
-0.016070443455272254
-0.02194576078900629
-0.07734030798857305
0.04728137570490962
0.16814840015291369
0.03814381683282562
-0.02927843078606972
-0.083978096017299
-0.060535036260899885
0.025166667448460606
0.04625689751949042
-0.007055381894799327
-0.005107012030891334
-0.0037777260946431847
-0.014792079583986244
-0.0007195041139549945
0.00285038768962128
0.0018775020784765498
-0.06539827949902113
0.0068418605309698705
-0.02247563966963316
-0.02770756229953713
0.1288436230277817
-0.023071119592775254
0.09079835929983057
-0.019186330681415315
0.004189855601834946
-0.04808712007229258
-0.03081268804001988
-0.015203776336509855
0.02583979450355246
0.020502083539564158
0.010481746767423637
0.00445898053716004
-0.011507998246193293
0.04252772053721588
0.10958133133654285
-0.02375961702859961
-0.011158955381661622
0.0036270383317651648
-0.004731632731306657
0.02755811114898938
-0.010285787577274929
-0.0058003090461193636
-0.009009253252494576
0.0037087684450366337
-0.02957490498199385
-0.0478966943877013
0.029924802896357263
-0.0012521909437681516
0.028531092694640034
0.001385691389599952
-0.004664973958797531
0.0012805489395705005
-0.019290364786391102
0.021136561258635864
-0.009943369107560015
-0.012573396001860871
-0.01901508370833348
0.012477543446756598
0.09738039714662225
-0.10033262668266837
-0.12376487513947461
0.007858885224200083
0.007759200373713332
0.0007625283664439752
-0.02116953446310816
-0.0010070516808546783
0.013832626943412547
0.030537282246985285
-0.03001594603729929
-0.00011977341893507315
-0.03906948470077199
-0.012231560974857501
0.001756204167567658
0.015555227072527131
-0.06446510469540007
0.05150208273462708
0.0617825146159048
-0.033720911334273476
-0.018177923432183492
-0.010861434741567502
-0.023461090591998402
-0.028427789881700295
-0.009839839025370613
-0.012856275903270101
-0.03868579809272914
-0.02493120789123755
-0.024052547345430844
-0.028655596396717654
-0.05498617625359168
0.00995754377384528
-0.015244886684286009
0.1374799354125957
0.289238015326322
0.021787245934747596
-0.03203303026580271
0.0318193342654067
0.02849148741103939
0.011556417149034768
0.06015624990883645
0.13901846730354528
0.005758778483409243
-0.03418355514522185
-0.009999090373184789
-0.07058551236237479
-0.0484023948652659
-0.03648020905970767
-0.01283159702073179
-0.02742565352790115
-0.02940946179311311
-0.03078625066928514
-0.03096495181649031
-0.033707592255677876
-0.02991241932960012
-0.01103670596141703
0.010812056441070915
0.028111546923902865
-0.026591114675054022
0.02940700595806596
-0.03267098213567581
-0.08793987679114985
0.012255478341109901
-0.005511350682630571
-0.01307511389911354
-0.02446637546770253
-0.02648832577019277
-0.01445119335086999
0.016985761562227433
0.1389771917225153
0.042300437639864324
-0.02956254673627196
0.004147635081503814
-0.035050084336576415
0.05193345052732569
-0.0037837075154051472
-0.023955547897479078
-0.07126223681869882
-0.07096905833288668
-0.0442903203180113
-0.06050860583370603
-0.01695665171523175
-0.027823806564113436
0.059460276893088075
0.2436584990510688
0.015473370508245097
0.03549220518945248
-0.011820170140322182
-0.0009071617472231272
0.010559040515509613
0.023801247289428114
-0.07556654364309065
0.12004532306443712
0.07314209527682985
0.025595794096762402
-0.0063309289657677865
0.016310880328646995
0.03615910274967994
-0.046863661798567796
-0.01136870874794138
-0.020210414090305728
-0.015999771157921977
-0.022332133033451426
-0.014111507417707891
-0.0007934372068101332
0.027825176739775904
0.0059504812817376415
-0.0195533549937298
0.08270223793444274
0.00631460791461747
-0.06794770237731912
-0.06344237488931934
-0.04294968647224693
0.03471524822610714
0.008430817087894891
0.02745738485782863
-0.036622720786629474
-0.0037635402856555375
-0.023452076940267953
-0.024153846240149913
-0.02073296256582521
0.01940401158287547
-0.020170429898579798
-0.02595326193063148
0.03712990472901837
0.023057444254092722
0.0021290176835412657
-0.0010969358407030777
-0.008820688563488404
-0.05061173299328406
-0.012732356558015903
0.02788363103743248
0.04358611822774108
-0.01911821658133932
-0.038806285793734
-0.02174603335475075
0.034890610452632524
0.009745590228911917
-0.013291299121972222
0.0034420558107004554
0.004435657784186176
-0.034048151793448056
0.034362737007241066
-0.010701498730629205
-0.04674408348056214
0.0009328291702133992
0.015225074991742402
-0.016163645106814034
0.007545831424443501
-0.03752801867986949
0.03133671179148129
0.16876411656369222
-0.018675989992427314
-0.03156854288825533
0.013067156042381279
0.027056648913855542
-0.012868046620468549
-0.008889712127080025
-0.008619117902327772
-0.01082617852571646
-0.0004940553937420977
-0.020131374463373142
-0.01640146696152711
0.02876626642084123
-0.02276932870174964
-0.0313127003746676
-0.04275420059996828
-0.039824564837664694
-0.01570819882342776
-0.011434661471999468
-0.022527121874294422
-0.07361960315788052
0.03708723930390786
0.04458882968407791
-0.024887078326233818
-0.010755273943054746
-0.013638378409649862
-0.004929682410929768
-0.016679965184022056
-0.008288627152147964
0.058607459275611944
0.07104226053774301
-0.016653762139610954
0.005780132744706457
0.005339426203369194
-0.005157744762257551
0.07422004200751198
0.048392017416985754
0.02248615180873483
-0.006844565324536432
-0.02694417875009307
-0.009646451855986874
0.004120346526062177
0.025732526382993916
0.10074701612838402
0.0175686519081081
-0.027771061286267013
-0.02539134154992257
0.03204394308036787
0.028294270525018088
-0.0038981068059793828
0.00491303663670095
-0.01708029779756639
-0.048979762778216446
-0.010316096881465021
0.02656839254639481
0.031465810216967954
0.03739570914268614
0.04966159829046938
-0.03502046569928556
-0.04559282331075917
0.010177909284098417
-0.01867421988007933
0.003552128155115975
0.024019807882712012
-0.024458679978224762
0.0024463341930394526
-0.03077462009562936
-0.01860561004576092
0.06748305960840352
-0.004583361555616703
-0.0271493478504655
-0.013465274628532408
-0.05292616957791464
-0.19861693919828402
-0.010988441828452397
-0.01333780440704225
-0.026079577995304092
0.048372940339797756
-0.012439642435278711
0.0018288725954634778
-0.034242567714295076
-0.009570236292288566
-0.005485304430270356
0.035373448605496786
0.0007625024238425333
-0.012912636385797614
-0.013188260981077459
-0.03420918030594002
0.0946364881331941
0.01217708164544257
0.022121974199692224
-0.019493791662593424
-0.012051910972626251
0.07003125814061165
-0.00417876717474401
0.009332181961542884
-0.0374634014412282
0.0076625790135091
-0.06194546672720319
0.03254536470752859
0.1651670362804553
-0.031383093500107
-0.10296452675645983
0.07338488034750795
0.05867958496560699
-0.03723207516391443
0.0061136843160358705
0.009224365998673496
0.030617508245850304
0.03550887861325494
-0.0025187773733924843
-0.008409308994752755
-0.002437060661712107
0.055606724639046735
0.00026445722327626955
0.02010740611240127
-0.09473771568468976
-0.07011147495564277
-0.009717969617087756
-0.017925317536878236
0.029454159832461187
-0.007290498055053152
0.015613647543327436
-0.019605917184435474
0.013540437398914362
-0.005728047101366298
0.023927392158293433
-0.03680229885044771
-0.001842271286892126
0.028567920373667576
0.02071148664301994
0.017695778857978562
-0.0030023242608358163
-0.016870826732748
-0.02225352518648335
0.021809698636230498
0.019229284733673618
-0.007523441877642024
0.028389161037058044
0.04588893719277164
0.024966189408210056
0.0004294501006477401
0.03554286672430885
-0.05291896223178102
-0.11293625074557134
0.007860901496190285
-0.012416303447852878
0.025118154552065747
0.005655215219715849
-0.022728465486659927
0.0006545618186382157
0.027910594420367214
-0.0018501011673603615
-0.027023271091443077
0.016376235268013788
0.055983471725044594
-0.0295888785356884
-0.0229693414923486
-0.049202562233044506
-0.037049970462336754
0.01345884613641863
-0.021308935089353734
0.019309208901062386
-0.021187262537251852
-0.024385308969764426
-0.018993997988521426
-0.038869641786118105
0.05505852602323053
0.023524642983042583
-0.030214020492567373
-0.024152866454063626
0.12166543459326315
0.04927773045739384
-0.0005425311822829202
0.03383092421611718
-0.03111126496737038
0.03168371540699034
-0.010588552623021427
-0.032915701261814055
-0.03017344984447026
-0.0361530668258004
-0.0568171916675938
-0.0046044689343152
-0.015699243638321186
-0.030805971270214273
-0.016434024028323873
0.00950621699537929
-0.016190746190186553
0.012244767221193146
-0.012800614725489991
0.0558805704518121
0.08127234945965112
0.03289731694176826
0.04315562059503912
0.031623558100661996
-0.03754721528267052
0.039609433534280133
0.006028542088877432
0.0174767701785364
-0.009402396655406355
-0.03495557803953683
0.007059103756661848
-0.0034984928032536543
-0.0057180023711880315
0.0021053767405615144
0.011925256096966177
-0.007890501754419323
-0.01425625286973946
-0.015604606058505837
-0.024840275649851667
-0.030364430466627977
-0.0063936050660574496
-0.010958751524933887
-0.03187812498358104
-0.017580116009961372
0.00968520722213321
0.03787950931832089
-0.038265800942566444
0.038921673941955844
0.005683436485186657
-0.003104027365503137
0.006480317095658166
0.005548107625003458
0.04685941643175255
0.0008878758445002265
-0.021899259972120534
0.04074999591168655
0.010923697912510626
0.025022606057125356
-0.04556734222284091
-0.061515644051765794
-0.004698846078406298
0.027340013246773893
0.0006985971918793844
0.002222678313919459
-0.020107241528999828
-0.009682113423465779
0.011151657004263904
0.0011905774970611077
-0.012314828921888756
-0.012957151252926976
-0.011159057675595168
0.015830051374536518
-0.004274055597479597
0.008648533803175169
0.0037834982882633
0.04200927271543088
0.010823369007627424
0.00597214695514237
-0.025881880204439697
-0.02878727070641981
-0.018671603589875675
0.034471822588542644
-0.008375670882620942
0.07247806666214343
0.022560476920269332
0.03685942614338342
0.05732905534989097
0.007277268028474922
-0.03455231095038258
0.008394909715420909
-0.039852902935221764
-0.059454711730893645
-0.016041311045446878
-0.0043590032792926595
-0.008962009040568224
0.0544880642465645
0.04621871561215405
0.0024632618250399435
-0.005228297290820082
0.03405278263789027
-0.028736051830596927
0.04168464730756747
-0.13391154788879378
-0.1620908737028945
-0.007526070438078391
-0.005183868964475106
0.011902179595210357
-0.0030777501162226155
0.0016182898962343421
-0.022347929832312787
-0.1100973983511044
-0.09144882651063554
0.055775986818099865
0.06925465298073945
0.09384504985293977
0.01850436043639574
0.010968427810619628
-0.00919592419421661
0.004320211270921829
-0.007509201805728022
0.005503436558732801
0.05290461192608814
0.0847991863455665
-0.03685984624300702
0.03180081702689946
0.00645809324120834
0.019428256991364044
0.10036915083156812
0.02595817216781133
-0.06512230231117816
0.0009914053273319774
0.0066548717479104945
0.026288576425282185
-0.020763524650557474
0.006053399089221437
-0.10620144075984297
-0.07368903040711479
0.03376536930493044
0.011145732028881266
0.027188856339266498
-0.01095603452870748
-0.03367592844155665
0.0020735140939585586
0.028184804579815266
-0.02499152206748066
-0.018943426366389716
0.003031198003062096
0.013860756613877784
0.040286603045620435
-0.013067956539778932
-0.011433867876475932
-0.03998570614209374
0.011623164827493265
0.0013846464292324849
-0.030568898431622964
-0.010560377513546585
0.02436560344599149
-0.012838192349907157
0.0394885890035387
-0.023365154624308156
-0.05283620153914256
0.010458277281251925
-0.0339897432415048
0.04075937910990094
-0.04056312811969463
0.12602797115028028
0.14002146781217512
-0.010062878709820007
0.00018242723924491403
0.010470346552916222
-0.02375543077348604
-0.01080463757606539
-0.023427983879174538
0.020244983302675917
-0.021214978132474
-0.02677102919800356
-0.01217434794411384
0.0008743971370914746
0.007362967856656019
-0.04110139687080832
0.024332755722657196
-0.01903578224094699
0.00450806013936392
0.02131567463789201
-0.012352503376284492
-0.00874083413271605
0.02400724379735037
0.0199110287403525
-0.0040936550819339595
-0.02740580180610077
0.009196694641243857
0.018150742261438094
0.0037970203839061785
-0.04061994435761588
-0.03186705777170053
-0.011583689772671416
-0.003775893174246663
0.00440272374120179
-0.0022252817861346374
-0.020382302386954584
0.010796630995456002
-0.013271755461572853
-0.01742733064397097
-0.009005206444619364
-0.03375948024904997
0.004760986882879037
0.026045670741570343
-0.03092764679833679
-0.006233091581477751
0.023051668150903166
-0.02351794101459417
0.00722242789250621
0.03963831464872364
-0.005855803498129346
-0.0015353743626362044
-0.005006337716419993
0.04655038571694386
0.04385966577899028
-0.03861857472917782
0.05611423470496746
0.03180523731876876
-0.00629825472089477
-0.048848490671343024
-0.0793345742644826
0.08280463678292385
0.04432354299342898
0.005038530526443585
0.029894718944433175
-0.036395341339685514
-0.023951779601989333
-0.0063444071542324105
-0.005992105311374077
0.007657218812391844
-0.035658894753054664
0.02013969479807649
0.07779418930224409
-0.06344320882932378
-0.0798407785462023
-0.013100986900332554
0.01923822959512232
0.035437381119496916
-0.026695446806438865
-0.02903634215808969
-0.06350895488386038
0.012180245777938236
-0.031081422889331693
0.0021837143221467904
-0.013248679692327727
0.04810554936466356
0.15377189113728362
-0.006970099479567361
0.0389472582362015
-0.03514288461032714
0.019410819837731474
0.03159447106229324
0.024393304529517115
0.009654262156277599
-0.026579034596926752
2.565345375699886e-05
-0.030269401276299807
0.021332188886342446
0.04831012916851848
-0.011583666433698455
-0.017759896526003172
-0.04514082973483826
-0.00035498046370569685
0.003570795703394232
0.0035059721651277327
0.0059797610559836015
0.023843130273550544
0.02370023125542743
-0.009574342790822397
-0.04033288608448943
-0.1202326943369664
-0.03301739990546645
-0.0002681491689768903
0.003999668753762759
0.005145997614706463
-0.02342685028789781
-0.004018964788668636
-0.004295473196349641
-0.008690900381337253
0.03517834180264001
-0.03461958589368822
0.0009004240648774666
0.005923421059267783
-0.0008169914219472663
0.15770808488592702
0.023937084195211712
-0.005114133933834364
0.009177708680448106
-0.05654764901854065
-0.027772424174595956
0.0017687094840896885
0.013214459149136689
-0.026165448846611216
0.01902933652707965
-0.11314888247915797
-0.15418890588711498
0.0631539801217778
-0.004380347542541828
0.014920510191838583
-0.042336650804076725
0.02387694148721385
0.06103094829801383
0.03173013104393086
-0.034734765004162935
-0.016858369327397846
-0.03475403044316444
0.06861388774670894
0.07121098054278274
0.12731698664061117
0.11047785828000589
-0.030830278017060866
0.01758193660458436
-0.001678125036317236
0.0032595114034167936
-0.023166840570468413
-0.0077223570044353
0.04692667367170187
-0.03354628077990288
-0.07251833831379602
0.07569642363851294
-0.008823459990371324
-0.004586951929446731
0.021428066948852447
0.029042733034417893
-0.007793419225536906
-0.012880666061520794
-0.011777947579186975
0.0052816288948642175
0.015985360369689817
0.048664333261726186
-0.07764058075539326
-0.07478092575515562
0.038480380566537485
-0.026058143763599304
-0.17015129438137777
0.004976385918179938
0.024925351662437575
-0.021483167436757388
0.0191057280896303
0.04877778664844699
0.07245871058373886
0.03191317010647528
-0.013122600932922036
-0.014302320419435782
-0.0210367259234513
0.03579765865655973
0.011824498143602136
0.019871896490803828
-0.008204583409460056
0.008767835846668385
0.022216870269556942
-0.13207017460913734
-0.07119410365019967
0.07274311143962478
0.012352264986056034
-0.04455092848577922
-0.1372429857783297
0.07556789693826547
0.012874783879243729
-0.02121302073938053
0.036983470524214156
-0.003728853920303326
-0.013113039082429247
-0.020166810139572697
0.006641227163717238
-0.006089770046005948
-0.0174470380152234
-0.0012023617508778324
-0.07274593553799728
-0.027913976814415976
0.019135465803119107
0.018673756443232613
0.02972949371926948
-0.010051893682380826
0.022296401529681
0.0377221373027094
0.012477220308423395
0.008379202482766192
0.0018105426094251766
0.018340751128222775
0.004689266262844527
-0.012147578903831736
-0.023423540744139736
0.024267906531260906
-0.026438929167234723
0.029335602940625163
0.06591806686143278
0.013024073375569264
0.06077333168954269
0.04237680812758535
-0.006718220750959397
-0.04051958382085291
-0.04476567755187676
-0.012442114032589895
-0.004765780993124709
-0.036609499114011936
-0.028628372808607406
0.031590440912157874
-0.007306843997118002
-0.026019236623624136
0.055801049211655705
-0.028969011002500662
-0.018815568158191808
-0.020648795135572485
0.03567586628568443
-0.01807190272503828
-0.06418723126068097
-0.002669716163040641
-0.025977236804681482
0.003005794427424719
0.023446392525062455
-0.044634539317240415
0.12579654761596384
0.06906434535536465
-0.04952186233676002
0.08869795099602566
0.05290368659405666
-0.02426883707793301
-0.019933516176345808
-0.0050414184535453165
-0.02584966743666479
-0.0328640016839974
0.01815227664101885
0.00990650670842006
-0.009940894924303873
-0.003836744055209798
0.04640697109218726
0.04966592835948401
-0.04279113814438472
-0.0019661745676034454
-0.005280930284658643
0.0013236007767054544
0.04585341501930925
-0.032185239304014346
-0.03523333517702575
-0.02042085579106544
-0.003919478133933857
0.009443694667887123
-0.019311971014432414
0.126612200233461
0.10332424124041478
0.003509681616554827
0.027280772573053294
-0.026725732461708895
0.0019519358099650127
-0.014975840110953938
0.037996504168047326
0.006964688358644723
-0.05530090902087596
-0.2476408132035735
-0.10558952890595855
0.023361398544465187
-0.04792970267727531
-0.024164654000162857
-0.01630865282635232
0.07472510478446615
0.004527518064787844
-0.011301962561796266
-0.017497223320644836
0.16938708389500018
0.05293266940540713
-0.03407038768943527
0.018541796422259817
-0.030894125138640757
-0.01462080564477457
-0.01807420038865823
0.01079881261536678
-0.14869202114051777
-0.0610925652975323
-0.00040708111698433097
-0.021429772373925574
0.01352304262311686
-0.04826003033638416
0.02092488224624195
0.0018121691962565876
-0.01945381841072517
-0.002255793014401438
0.011635096123544327
0.018800334792804445
-0.03535128992433915
0.09334095650276447
0.053165392514581196
-0.03602984976425697
0.05330082019948304
-0.0018376729919185983
0.004774283577099162
-0.008494797432437782
-0.002497432741705664
-0.04937559136825436
-0.04616529555842772
-0.0014202528987912408
-0.05109123984956314
0.12718918961554562
0.15736770637498537
0.0650852297307048
0.14161630518208562
-0.0430841760711707
-0.005154018628086455
-0.007496198684851294
0.035862957340769774
-0.07463550530442799
-0.009351203187032413
-0.05787234558398318
-0.04656907780103232
-0.035714113106796966
0.09138499168489424
0.16764318932920513
-0.02684822663059217
-0.011574299614576344
-0.04655642406185842
-0.026373489377634486
-0.007962064819645159
0.0005433526587239696
0.029398569246752417
0.0031025843170785525
0.021568528002353184
-0.09464126918518288
-0.0037133728354026476
0.0013177377973904274
-3.684785134148526e-05
-0.015328058009248424
-0.016117699502528338
0.010371254138701113
0.048531644023436814
0.01326539829011599
-0.008075516330343058
-0.047714990086305094
0.052418536726614486
-0.017230766932932944
-0.01505776764180425
0.02134680706880874
0.015134167861678713
-0.043517351022125665
-0.011498109028819134
-0.13420842437200162
-0.09062282484269943
0.02288585843729347
-0.049148814840028726
-0.08421559519906031
-0.04883796698382146
-0.043848567617984786
0.057872642996811635
0.09239919008904934
-0.03817149692799841
0.038137096049865205
-0.028412039336973123
-0.020136714711485815
0.0721167295815716
0.027269307770341845
-0.016340678583433785
0.01764952195069976
0.009486979449622231
0.01517660731835323
-0.01974686761087767
0.04788747899830175
0.0006278370915280451
-0.0154312041506234
0.0008022037667272443
0.03322475254014133
0.002132786785776704
-0.006956855912420362
-0.0027070907892996227
0.04283628439298015
0.007559471642534681
0.02012427673222806
