0
-0.015587707081043076
-0.03847733774279227
-0.032608015780821516
-0.03541985384869177
0.014110330510360524
0.16830279650736918
0.024162679347550065
-0.001269053698283148
-0.020772432102777093
0.04185501969352989
0.011770437508989285
0.012684417152556688
0.028334991712036985
0.03683200889206911
0.01869302979170943
-0.02068536114628242
-0.028683256454399637
0.0410258672445276
0.01759938246090186
-0.03408860003451497
0.00727234361468184
-0.025404983943510408
-0.04527730424674304
0.032885596384975624
-0.07887170952055811
0.00231734895708734
-0.01918066325158481
-0.04870645717822668
0.013612196956492338
0.0016331480041187033
-0.0014551870551008075
0.014622747940369215
0.0031477933741122345
-0.020996674609139614
0.02336416338976587
0.016206619165608532
0.03112367540589245
0.004375807250318402
-0.008316682087960374
-0.05813390969434238
-0.0039346352002230765
0.030154767335058282
-0.024551984130836674
0.024497796176578653
-0.05213936016240092
-0.09253608149023856
-0.040438593242113616
-0.01424165246183157
0.05044153685778389
-0.0198706216732631
-0.028907482976144063
-0.03990929080878569
-0.026270627817118232
0.015307907737177507
8.189126503358643e-05
0.00868918377563639
0.07615641653831538
0.14585207199382613
0.050958833073437404
-0.04565195660419923
0.015653288387975826
0.029741010978049317
-0.018813382637153063
-0.08363024395312575
0.03491568459345808
0.03738823232278843
-0.00974272997888198
-0.008219484732488942
0.012881732673082928
-0.01062928966011353
0.0050093898858969525
-0.010222651564838722
0.014459643120770343
-0.007046374723163305
-0.004660004284485284
0.03555717313415111
0.024762402868138154
0.015148372795438184
-0.03698072241807392
-0.04510818160149268
-0.006035878941830204
0.1913937797442029
0.02573822681877473
-0.10445629244398104
0.018541635935487126
-0.007017037840210962
-0.000846223437319313
-0.026209294384724687
-0.058812773480708055
-0.12191525420425894
0.026446753075131686
0.029838893102951382
0.013919604451989937
0.004225715624147782
0.003492481652580511
0.030404054183900926
0.10287301882664551
-0.030930149185741832
0.008385847519848194
-0.025262117243846617
-0.05895948319548169
-0.008997373189448182
0.025149826741358964
-0.0059898234303980055
0.046816362492283166
-0.03060590425965853
-0.03350852213181439
-0.030651003162022773
-0.044447163173237436
-0.022525344412117995
-0.036729043338442534
0.020642965933700477
0.07209026740412015
-0.056015708759427164
-0.0887412560439755
-0.031196398074662995
0.04034073921635861
-0.0021913001803760056
0.018729366731649818
-0.030987537411337848
0.11402212401764324
0.12402987004887682
-0.01676633033653968
-0.026985579441386118
0.018283902346167436
0.008117638078698452
-0.017151770540566255
-0.04647883580024892
0.0695185774384957
0.059079484992119936
-0.01819737201259673
0.00720776287934835
-0.04834842981107769
-0.04698948083387712
-0.027624235284408806
-0.018042291691011944
0.02373532332469587
0.001264009873029651
0.030265924499706137
0.019251145010120117
0.013454144776963032
0.019218489105129192
0.04705686838649695
0.02641055090209192
-0.03728031218406356
0.0006222000390181736
-0.02635562689757282
-0.009960071581401438
0.04792058067181211
0.027206606253417556
-0.017867584878644555
-0.011464472232542357
-0.03286726339859551
-0.024745660996591947
-0.02995822030467341
0.045349947894972736
-0.06662955960817031
-0.03723959156010609
0.01232568043188075
-0.00242418701946231
0.02102168087207167
0.056327647119690884
0.030842706512191776
0.008794176492027628
0.03124776374657651
0.016688182592809308
0.030582739852471872
-0.0015889915766890794
-0.02286448233691381
-0.003879164216300334
0.03136188533116055
0.025981898218143878
-0.018366163087767687
-0.06534895666761291
0.010557525336367777
0.03226255583950085
-0.08429922109639808
-0.05691050339553073
0.04296422399705834
-0.00824719013218657
0.03561370418221891
-0.02511965433788176
-0.014373073408866722
0.013374511871071365
0.0018851869802872286
0.02530692627288451
0.025822707500526006
-0.014387180092967664
0.006170821680530904
0.01875248906685792
-0.08966121344394622
-0.014279537548659798
0.00014899448816698947
-0.012288949885648407
-0.02398648461940608
-0.04474078019036834
-0.09279853223018798
0.01317724372078765
-0.009478498849095187
0.006510637288552482
0.043296700959080954
0.03984788130769283
0.0006162979812010469
0.0016931824267088405
0.011744953040945992
0.06763586732859744
0.009991652639541826
-0.03814638960691138
-0.044813668091073997
-0.0028420670323999714
-0.06605189026277497
-0.062476880086565406
0.028569929354286566
0.03193814146335023
0.0068770652896474015
0.02321492358284183
-0.019069301468557936
-0.03125879374547958
0.02001971474344174
0.002110702903387879
0.018358724847952583
0.025612952685068628
0.04403550725789522
-0.013417103384247998
0.03248638927271943
0.009074223823675679
0.03446538714807646
-0.01138046430074921
-0.020892157282545377
-0.013875659288673878
-0.003341215036047567
0.0053157126963056
-0.01982778941048237
0.002098754152794937
0.01586589145720424
0.029768190311697758
0.00774852035061288
-0.05452280837542987
-0.02668895199971482
0.0035909469447766144
-0.054427343097914214
-0.01083767308500976
0.007412553449197451
-0.016744998141726652
0.05555994753160421
0.05535827320663939
-0.03783566534018379
0.103839215504194
0.018336846691357264
0.03849686420223876
-0.04252240734435902
0.013998776545690076
0.03816587389300162
-0.006139765724793406
0.021536624839755898
-0.014485157818807116
0.017566060625580013
-0.005398130040564241
-0.020733751775536564
-0.020165008783170072
0.013544549545560247
-0.04097661754818101
0.0096284976244036
0.038989392924540095
0.01552957612005653
-0.009301125557451103
-0.01250995472297567
-0.026522864980559592
-0.0007522416073072716
0.10147507606410952
0.07307667073129272
-0.027589218663305954
-0.018106671330370413
-0.18730928200989344
-0.09496968039961626
-0.019037098751909804
-0.0961223121462501
0.003691869499081683
0.02623162766888417
-0.008506560895519068
0.03126426502891542
0.02573460540147227
-0.0019434653426813747
0.017595073704534434
-0.012267779687482558
-0.06338907511074961
0.022517458560203513
-0.025518995853894746
0.2412469160248748
0.12924500804436664
-0.047214665958941346
-0.042479676387901
-0.022440114820045633
0.03315651527276481
-0.011339841744891603
-0.011267363254608975
0.024829275176426024
0.054214535944422514
-0.03731527413785199
0.035064454758081065
-0.018822533365728922
-0.08606373560979305
-0.03519348024613798
-0.026655402009256663
0.04789981658310312
0.01385374904551606
0.009321164041179449
0.005502647773180876
-0.016182251799900897
0.019080648026316142
-0.011908471626245793
-0.02256290656031666
0.02660120815826996
0.028936238342896912
0.021151159050680955
0.02756080094449683
-0.04105867261036118
-0.026781121599369784
0.0027261505456289844
0.015945496893369843
0.0018888009617735832
0.017679594895905183
-0.0407566199447076
-0.051702762820936964
0.0023880045929116525
0.015064551561778305
-0.02606413964226338
-0.04564570340220489
-0.021719312853208297
-0.020705547716371956
-0.0225479217169989
0.022798755985514285
-0.007049584872120415
-0.0005074129061791735
-0.00035081179140738887
-0.012899086465757995
0.019186042498639044
0.031083546042799948
-0.002192290788784689
-0.004947622335533408
-0.0035532996165599374
-0.004654019651565651
-0.0217032579729401
0.022099182938473832
0.037553084925853145
-0.043237408427994006
0.006305555745623296
-0.008371618892976666
-0.01534753474191022
0.001017174961475269
-0.010935610052058606
-0.013933363678946745
-0.009669866878332909
0.03193169662591476
0.007506450161370881
0.016025953870979485
0.008822700355930316
-0.013740582778278184
0.02397364476376566
0.022624779479324113
-0.01828856213784983
0.0689779037533833
0.15937407273523993
0.010493982829247508
0.1330303429162571
0.010200813756542594
0.0002773377455656502
-0.005918519184022674
0.014318783684056154
-0.11435933647568507
-0.09845849321134413
-0.039127868076071916
-0.03486455048135864
-0.008258836266194291
-0.033922341475409325
0.028970054827313445
-0.0031629019825292135
0.0577795541807928
0.06372949056431657
-0.03476915084655944
-0.03902835579850209
-0.03959381153890173
-0.005013153551037585
-0.0052297314335999845
-0.006361350308111351
-0.011285402434203683
-0.010527641140859273
0.00809749262850523
0.006626722922335303
0.008595379864040117
-0.026792311267832974
-0.02944475736154178
-0.0168269955412833
-0.020696471156510646
-0.01977412452767882
-0.011019007994970496
-0.06089794771197334
0.004054399806816955
-0.051126452477819426
-0.023221349318987602
0.07217227752272226
-0.027583271321959993
-0.026295404786111566
0.05399749401819256
0.10269094613278683
0.016320956292251214
0.0038442598521419256
-0.029181020493329764
-0.02200600345925296
-0.025868955549785404
0.0073556139036687895
-0.04291180565760144
-0.0751492615609498
-0.05223796851274161
0.004224562977290351
-0.014031998397392827
0.008024705605747346
-0.03145704312718595
0.08086840235879579
0.1425149143021335
0.007022253790849379
-0.007742942176293209
0.003679356556413361
0.062248808809975714
0.1790511250667158
0.10829849548878263
-0.03713066153392748
-0.0901154151160802
-0.014357701283334062
-0.0019343685796419244
-0.004538778130391022
-0.10895938286756418
-0.07322250945712086
0.05183416671086719
-0.01732125551368942
-0.015511816776132885
0.06863431588757261
0.14761812833311022
-0.015236190249779234
0.021765690409442522
-0.007665567687583076
-0.027521875003801533
-0.06371254758666638
-0.06243865370747009
-0.04041512108843411
0.038575914085328386
0.07718939446842626
-0.21323064690390484
-0.07481426737800317
0.08112384863024152
-0.08704306471269192
0.090760116198538
0.2396200095197299
-0.060025966138242515
-0.005770447360579919
-0.013071355080848395
0.013721088565345416
0.11765764897163733
-0.02066286243639812
-0.10665548906219922
0.06508368794612526
-0.04727947806289504
-0.004894530659572391
-0.032424542403024774
-0.019066451024629394
-0.025913193803957842
0.04832894360980354
-0.05581742235917175
-0.018452487040213125
-0.010662921151093633
0.01834793154605928
-0.028953851914181566
0.06299260779498278
0.03395224003374096
-0.0392785084216189
0.033604158835420714
0.01589696597278045
0.012850666896469532
-0.003468937145547647
-0.016709101019892144
0.01920063345522476
-0.0429724523932874
0.03681598825583275
0.02645049717323484
-0.020862250940197963
-0.0411424385389285
0.011169366057326895
0.010541049701339622
-0.08130466156552882
0.00010485640028442194
-0.05173952947442457
-0.006424483625521607
-0.04120784965423003
0.14194699953466836
0.036938597211479914
-0.03787131296545343
0.04867624526644412
-0.024900927284252243
0.017933881643568322
-0.03255803282158683
-0.03571899680574495
-0.05335170970172187
-0.004767703244519362
-0.013990696067561615
-0.008151625128497132
0.044227544500255164
0.008027856625479701
0.0052800990638089546
0.018731009320408686
-0.04844379036550045
0.015628253511553784
0.10404771277800859
0.02163099138744263
-0.009295172518984453
0.002766096730898433
0.06984887247405476
-0.01209533133654077
-0.011939603624208582
0.007234048398642689
-0.030642077995540886
0.04424683311967452
-0.12057810475353599
-0.08335328133783877
0.009816070125222032
-0.03410005828690179
0.009868335194422305
-0.01443230818744386
0.16049559657358245
0.0044583206537502
-0.025218623837144766
-0.03444979014898057
-0.017041891678141238
0.0038380433269450346
-0.01377876969151012
-0.012283900081741113
0.005825822533909913
-0.0065263855029461006
-0.005886423397248945
0.10386966170534133
0.06856547724988729
-0.023182648364301485
-0.01025347856452674
-0.031006329919197443
-0.0009908780441416332
-0.0035116380149001706
0.008956352465148944
-0.06054172795070619
-0.12109703107761535
-0.004972670788369171
-0.01905269606097056
0.1196498655730429
-0.012353513382499293
-0.0096453958041051
-0.03354760317246634
-0.003381047796329944
0.020117478367032034
-0.003099995242130598
-0.013648046067273439
-0.031396118850219285
0.04655555411877573
0.028164150940810626
0.013716797974751019
0.02812171340413095
-0.018336468894341876
-0.06552707241026466
-0.026514262496180215
0.03980057940209379
-0.023133151636534986
0.001288961665796456
-0.021071562377802392
0.004229595358557916
-0.029851861329110742
-0.04642397707798502
-0.023402382787165315
-0.008411595056113361
0.1066063383131649
0.02483160137007732
-0.032304640825328475
0.009463214631224364
-0.012453400633735389
-0.048876196460438406
0.028248432093227388
0.063861238142032
-0.0663998435628577
0.09600006415229981
-0.005211151650409332
0.010017923218482355
-0.015164415998650583
-0.0006556203349384189
0.07128061190520199
0.023837384099064943
-0.09057164416442796
0.1595276098488434
0.05929340599731987
0.02998940974832809
0.035389727917338916
0.0273510798047317
0.01310740655078807
-0.010837887678664573
-0.03230318187917087
-0.007342759408242861
-0.04478159843765782
-0.01636595347874704
-0.06110367244259662
-0.03146640388484282
-0.011270455627414282
0.00047510989805613877
0.07390496901675186
-0.012374692151474749
-0.03461314798132322
-0.0630149703204198
-0.01275898213549776
-0.03145071611739832
-0.01983639901841214
-0.00356593958683567
0.018171703194068016
0.058429781968309474
-0.026589954026613245
0.03096465812376752
0.0918195420175604
-0.0008860321514165109
-0.06988040010760767
-0.04632796650132494
-0.006233107807185118
-0.03550974633087859
-0.007691451590917516
-0.008879081155506799
-0.005945431343352948
-0.024003979320404604
-0.014052173754597351
0.11222190876182139
0.010243534084929111
-0.06706507474305631
-0.014484199990074425
-0.024464117173957536
-0.013377743080224241
0.017850078115272904
0.019504090450746095
0.016094136168734733
-0.0072178552181704925
-0.0007586255779917891
0.030561649977765514
-0.008379577318495661
-0.005088004566026321
-0.014283416104156657
0.0035962363922567445
0.016967075690211074
-0.009589532787121687
-0.01602161043123254
0.04074714394642302
0.02218235505388524
-0.014152142495538712
-0.023656511740582538
-0.003434973001971552
0.03548194900267146
-0.036975007762597045
-0.005319715197276097
0.009499019001583222
-0.021910670345845703
0.008510547891229164
0.020039634689417014
0.02197432302418953
-0.055252141249286936
-0.041059882267551424
0.011362089030295728
0.004134659569112705
0.0019410562527758671
-0.005800161984487679
-0.015545519037510513
-0.001084470588758518
0.019454568699165613
0.01245848883976762
0.00846990268749987
-0.03261805165319686
-0.0010013785298568128
0.0009601055692858779
0.045173414706252274
-0.034490061966998595
-0.0011542004580636807
0.014754280843969896
0.02991931541776823
0.0013403409807306685
-0.010956105467124189
0.0066287278410334105
0.005177891980848237
-0.026838562621549444
0.031708382182696795
0.028752188538778842
0.022445223957297342
0.02972086589547988
-0.014919359475115367
-0.03350737489551632
-0.02813649487925076
0.01548668859575408
0.015731929179451345
-0.03381146427201761
0.02273778875941376
0.0014734720679228375
-0.023205325915833335
0.06377478518176743
0.050836835405457054
-0.17137332732560234
-0.08256626763118319
0.03773081027135203
0.02063801388835025
0.007952862630834365
-0.05371004691247339
0.04890585254343511
0.18996450405190154
0.02643695102185992
-0.05628192161320556
-0.044711352491824764
0.021801155241570017
-0.02556092440098919
0.13687505157300717
0.00677155704624928
-0.017158987917662884
0.03791293208230347
0.03116134814952175
0.010417185370322568
-0.02409644770572288
-0.009324173648303862
-0.041503181210146844
-0.022203898208902728
-0.02069619659235936
-0.023142623582892496
-0.021649572004445172
-0.002959252231523518
0.01509598787508178
0.034437879708257124
-0.0013913924126904935
-0.05883411671108671
-0.039497686308323086
-0.028175912084461484
-0.04366056738156978
-0.0038839377743643023
-0.011019740766886605
0.0018387707750531633
0.04406360592475875
0.022926274363880464
0.003254947684826432
0.02695643191570192
-0.00044804862201410357
0.01723795310547354
-0.016139269450686014
-0.010907401751098438
-0.014003085403750302
-0.013794413262207773
0.00633914559826442
-0.023477865702975654
-0.0031312720859609975
-0.005236982026519845
-0.06952274927263638
-0.025787420608495315
0.03596040847469454
0.020575713548127525
-0.04084895405334464
0.05567473776924694
4.5470312911574476e-05
0.08438229092737819
-0.015992076256742503
0.04849403091550202
-0.013325634855720619
-0.15061522544813932
-0.04424232092180482
0.05246331092532437
0.015423809264471232
0.002511728249015194
-0.02065927881770562
-0.015475720657551716
0.03034713278557822
0.04108741931500812
-0.05099420829849212
-0.02451052861666356
-0.0025677117733898477
-0.013857454497957786
0.02998690752502236
-0.029155699497705446
0.031528544472193706
0.09514297872941282
-0.12505971271479627
0.08215645684310888
0.02125079464620039
-0.0009994183881936376
0.016984396001740766
0.028670000114306694
0.0029351898238281424
0.034463925633768766
0.04450930832400651
0.03341974860869966
0.0075063828597427005
-0.011771490191450082
-0.05517249759489166
-0.0017369721490306193
0.008169526281469235
-0.008192172833009171
-0.014394344249955488
-0.001417959981082202
0.03251905539828777
0.01161829892266233
0.005916810824268627
0.004184863521786942
0.0008793742828178066
-0.03365160341243332
-0.07027097203675409
0.026355968333911097
-0.023577381421768975
-0.011532027878649464
0.0189105855825996
-0.017873737683395573
0.006136761633002975
0.014535765391404196
0.03380860590929659
0.023143727344952392
-0.009510571144505875
-0.018693280848434708
0.014498792245131347
-0.018550297319764923
-0.003182122159253531
0.0543798499412891
0.05300119032419386
0.04041831510560909
-0.025959762491997267
0.0073949256019431074
-0.022304751979291167
-0.13445372697779417
0.016938341269920634
0.010326667698559385
0.0022019350499910125
0.02094409981580716
-0.0001842175956535759
-0.0022197980896775586
0.004793433685844034
0.0008951686789055776
-0.01689396300990666
0.006268049171300761
-0.05113691499788721
-0.08172553420612579
-0.03927743143537601
-0.05213370853003238
0.009585161728357576
0.04649540486646302
-0.02065955419991807
-0.004505602732055816
0.02369948404407834
0.02588021292676292
0.02832571177305903
-0.0028831625303326284
0.011545195599463959
-0.018562459644626658
-0.01614859426996597
-0.029525147496201266
0.0294688298612849
-0.032874433501660916
-0.06674595662219998
0.08166280989092624
-0.0036636172453317246
0.022052825061866947
-0.008986156778333509
0.10978437331801277
0.048008516354871
-0.035816181622561324
-0.006103775069105568
-0.05289533111832882
0.006357815886520417
0.03439970642414872
0.006928907955197422
0.04311666789250144
0.02823271201343384
-0.03167046549096207
0.015171559960541665
0.03131486562594868
-0.024529824496628213
0.03238214550505798
-0.00438715744108463
0.01540841180137176
0.062433145940482916
0.005654398794373136
-0.030925135471919225
0.02493485441936534
-0.1438305805018328
-0.019476237807470577
-0.015520425503182243
-0.07654158706055067
0.0050777784797072035
0.03915924662167076
0.03529336321782507
0.027594011588864813
-0.05044982911804284
-0.06478501681468625
0.03193407104275823
0.010762981722233514
-0.016668205366545636
-0.003123441852723377
-0.017150054591230417
0.024374089470606593
-0.023321396146344417
-0.024466016939880424
-0.03626851774917748
0.012255731300864528
-0.036348744620249486
-0.034984851950673336
0.002110286092280851
0.04400144358645052
0.18934713118957014
0.023831357801109135
0.04078087287711395
-0.01461958574747509
0.03390068739745052
-0.0037957790920868945
0.01006071020018372
-0.015710047051253295
-0.009891090894547159
-0.02112798351864303
-0.0037827601788766635
-0.027415683183417174
-0.02940886231309572
0.020817615020102407
0.011720890982895738
-0.05956182497081417
-0.016041914333080845
-0.006947038198592182
0.00373122437638111
-0.01514592474635733
0.015332389140925091
-0.08283560320050873
0.011672622349624505
0.035233640061932144
-0.017646404149495046
-0.01828974845872598
0.01045630659231218
0.030888192245436975
0.04160259082322568
0.009403778723177639
-0.031152190305904152
0.03740533123267779
0.014649069065552297
-0.011338115592967237
-0.003022784991065047
0.20294008302234
0.054003408242886096
0.016648824321682413
0.046772884705903454
-0.12321868806629512
-0.10030686398344281
-0.003123757066491894
-0.02624114753090164
0.005623021348559492
0.12370825250309753
-0.03459278114369067
-0.08248968277247044
-0.05621896582110162
-0.029850374279462428
0.02496405271773822
0.009063913804520133
-0.018549595955602762
-0.03474845938680479
-0.027581243880341947
-0.012555073328176186
0.02837541462287406
-0.005243883951931357
-0.014916227954908087
-0.013971792948309218
0.005646765702851063
0.01913673925838328
-0.0869334439319846
-0.1077453311337646
0.058827218367245304
0.043365590897168335
0.017630072632687024
0.01983131371311814
0.1765110314115657
0.05746182527753786
-0.03435571281571578
-0.03612084560131094
-0.018534397552924107
-0.025375124868215915
0.03400243941715845
-0.036798435021564956
-0.11419066804054631
-0.031615850854418884
0.040213811310537785
0.08718758700597119
-0.061155889916035176
-0.03517250935232398
-0.009066182183535889
-0.013796278810179669
-0.021616009497440188
0.06215299931778498
0.0944780606018552
-0.018623925482038454
0.04681874778544764
0.007804435741305626
-0.011634834420583063
-0.0016784509317515166
0.017357870752318906
0.012055127129669968
0.007225887273020666
-0.01621288542727676
-0.08818297448696383
0.10643042066765442
0.08609931646911052
-0.03147476418551203
0.0037520288585463275
-0.020328997331747603
-0.02644443202754545
-0.013358118965537923
-5.533988395414203e-06
-0.03748854698650581
-0.06035517633778107
-0.01358389598769118
0.03943399605690675
0.0040133516514796975
-0.009370660617847243
0.008303744788861742
0.010858400235302303
-0.027179584686825596
-0.017580534464463893
-0.012597566890861391
0.007205286085646929
-0.02655670479947772
-0.0016318157291444434
0.0013356100372379962
-0.02771321687111587
-0.009500513116078668
0.04446673934036207
0.10018832555976953
-0.07155435576194723
-0.01007045882214038
0.004019041804891325
0.017586811011468386
0.04367433098256531
0.014785136311789286
-0.009695993388100082
-0.020395125302676967
-0.014411818904617115
-0.10524603319486109
-0.048257404632347865
-0.04870258930130084
0.015090945362558988
-0.008127475164671792
0.05901183603390748
0.03391338592650007
0.0057544774104548784
0.011418795365475482
-0.01645535012162255
0.028135841336679596
-0.03938678280359706
-0.02956034390491377
0.03832709629453207
-0.005662914455063853
0.0602795739126045
0.17717618364675933
0.04959938773719712
-0.025811464388932087
0.020727054293420855
0.04513699041167966
-0.06109620639195643
-0.017402522378775785
-0.006730932986257
0.016474119225440512
-0.01942108367061317
-0.009722413778849998
0.003643312059615878
-0.005315898814523494
-0.010614574539104513
0.036239044798420626
0.009329610585783571
0.003460029968440019
-0.006407764524309291
-0.02589869792534314
-0.008537580655476756
-0.117054717161283
0.006994103185250505
0.004400955060831241
0.025210408852750964
-0.0038466650877504913
-0.011814170387068437
0.0008063285342064059
-0.01755125143184296
0.012667972880650812
0.018401910655253206
-0.013022774438020381
-0.019596875552922707
0.023279008065269294
-0.025940262271561865
-0.014129525747230351
-0.008515517237847138
0.025116674197340733
0.0007007856934063251
0.0008174573857296973
0.04113522360318426
-0.19630378971695195
-0.0722649695760477
0.05479049992193694
0.01652977451414874
0.03392511275424165
0.039283645589379544
0.01815557734035563
-0.012256622206488236
-0.01850945887368733
-0.004890730363375889
0.03849523139628558
-0.02100152071883992
0.018923195659809128
-0.022237590479888606
-0.003011180946245897
0.01858015379408621
0.02380336015927616
-0.025007085214331797
0.04847141746726523
-0.01318630348894905
-0.04476971913978513
0.007146502532393217
-0.013263763343702372
-0.011777221473414768
-0.038968727937195795
0.053882321320863895
0.01963382887627158
0.07473995384973948
0.04212419765023961
-0.08896356028988592
0.1253542279417326
0.11312328715964519
-0.006709667965344239
0.07076098687738364
-0.04022357851472167
-0.06918760975010885
-0.03647594528290125
-0.010945495789248298
-0.02846786763559203
-0.02672276025426646
0.0038567761600533587
0.038935269792503086
0.03740510659743316
-0.005597673329003194
-0.011484499596232224
-0.018396432589257772
-0.02773153582789047
0.02848097702205276
0.027541156130153486
0.010704600267551639
0.03713358618373781
-0.0034518599863821568
-0.013639332900417793
-0.07773153734229357
-0.07673624638457441
-0.008261186465955167
-0.008778696189406208
-0.0015416801732853127
0.027029273137946213
-0.027309028997731515
0.026478990345167288
0.01039095855152725
0.049668844600897356
-0.09564575423229574
-0.1783015205406752
0.02422414520450879
-0.01937219539911994
0.0958223803314046
0.07841434376826349
-0.022062211026454292
0.016458364679667083
-0.04936814110004572
0.007666550189577992
0.04367611323312002
-0.01998692833030236
-0.0011210580795176222
-0.0065443270221979
0.033185136590035684
0.012105846432419992
0.006523036184237225
-0.033397121444034526
-0.02614307430766089
0.02494576996060083
-0.008945348634577814
-0.01956264264938865
-0.01719082452490712
0.040547629398734686
0.08078940734929191
-0.004937822490614728
0.0009841627714895817
0.02720601404837546
-0.0448935147397952
-0.0518944974261957
-0.10757940239410671
-0.0077424891043936005
-0.002772104580275101
-0.006552585717714432
0.02887261189515319
0.1692141203600485
0.032274745683605374
-0.040499008418135016
0.0190223174553765
-0.028025257935953
-0.013318588131124885
-0.034737728918467985
-0.03311165272089757
-0.016317307489152975
-0.02166975212443175
0.004554078547709421
0.022052307676037608
-0.04583233032531416
-0.037682290574478264
0.03201960825857093
-0.006292060090614558
0.019218419110130485
-0.021662253526675078
0.1705342124090906
0.0807801434033685
-0.04554076933700613
0.004062712061423975
0.020143409335389613
-8.715887247307895e-06
0.0003236526166835515
-0.02669635702711466
-0.0014796581211539185
0.03448237357880685
-0.042119313768347745
-0.04661422306234917
-0.011351751129968278
0.004147975160127172
-0.003955348360367352
-0.03117461411576227
0.014408391455581166
-0.01631948958505337
0.012826997613764497
0.07470666060752189
0.010996094992628052
0.04188509579169004
-0.023284136026534515
-0.0785586765703153
-0.06224314900465327
-0.008984926299914332
0.011489189390560805
0.013647376118553559
0.06354555388383079
-0.015016409487425721
0.005296295027477665
0.0049235134174547245
0.010745839571197813
-0.028007417728634118
-0.008268874933048263
0.0069505945389477675
0.025598683210034216
-0.06028047352894992
0.03362316098087901
0.10003105076755038
-0.030539853891356498
-0.01667610076773553
0.029392378282856863
0.02711586728343649
-0.010279391025900454
0.035658637428605346
-0.02029058804265269
0.011407006368662709
-0.005419932054079095
-0.015726965020116355
0.015390463608657687
0.0325376685317619
-0.010623477939166348
-0.024337470305189006
-0.01909979934704701
-0.04992101911634343
-0.018336100340430046
-0.02151019258238483
0.019785739849247058
0.0037340346379148215
0.01654531167975301
-0.03593218516529644
-0.04438956181398935
-0.031068155914744103
0.016952897878650647
0.02259630984159474
0.001079543825427864
0.00270659835300494
-0.040769361381553855
-0.016661186543626944
-0.008647957380130081
-0.01295799091675895
-0.03501480078045385
-0.02081876420446619
-0.00895070901432519
-0.014976065620688457
0.07639991333646588
-0.02274661103161971
0.016915341816551077
0.023576762740454636
0.043098867344756826
-0.038991082358045895
0.024012533907564467
-0.05726283136734852
-0.04099453443092495
0.019060889549009395
-0.03251203253124193
0.005677885140602173
0.16556759447582334
0.02493651779620412
-0.012702630250843991
-0.021156887397804358
-0.026097089161803783
-0.03343947395042419
-0.0018175100219934872
-0.011250872044516197
0.0015115019329163802
-0.019886238670537203
-0.007734276454547905
-0.03549617674552889
0.01927047101581284
-0.05966542962384483
0.053706339648025354
0.1821477396211003
0.03848080130041588
0.005211542010653203
0.03136741828705242
0.043402291300620136
-0.014249436611726549
-0.02096901585508455
-0.05398697373178155
0.01731376147438724
0.006100820440977516
0.0004955664457025409
0.004033108696087584
0.047290767031956366
-0.035911794730615045
0.009029053471324133
0.031042618470409542
0.0005702020331008455
-0.003519631241817399
0.005624724939975121
0.00533005313941855
-0.028817402698041197
-0.01178974285949632
-0.08615209496976085
-0.09681071500628187
0.012709984165968743
-0.03134234922848376
-0.0026213629936009375
-0.0028430163172976897
0.005269188253251643
-0.024495924875137527
-0.018028672545635453
0.021435191524352325
-0.0005217462029683869
-0.03393762288393215
-0.0209824535327817
-0.015284559814413127
0.014293169163429504
0.009410873633843912
-0.00697689092458384
-0.020821516174003577
0.015240583038702743
0.05258610179609644
-0.000501549191238366
0.006277886567155353
-0.0227577811802917
-0.019946694300105455
0.013550794809089325
0.026663408452060135
0.17249866863448612
-0.052612749154480415
0.2139933633107669
0.07529779191663812
-0.04564371137349177
-0.0006078568047640832
0.008714100779863287
0.05177796989356712
-0.10875417408638152
-0.061572188783692104
0.022545668887489954
-0.0721761518907153
-0.036945024795555004
-0.020499014828425706
-0.05562237412768816
-0.004635262839490644
0.012615167041703481
-0.01987971594458346
0.0007415315322140767
-0.014120746980682712
0.011974547316901785
-0.017361671930349033
-0.026248669242510004
-0.029710481967178817
0.0030667573271055165
0.013395187528585728
-0.018855284188795424
0.03268067633121477
0.01232329916400271
0.022268965991504745
0.0014877845686455757
0.00549815753679824
0.024884056736547876
-0.030932903863486415
0.0007686206024960769
-0.0064535254367106025
0.044147005180605735
-0.03539209729730109
-0.053806895593866345
0.00029540853691929097
-0.0019157723220757739
-0.022469315195498614
-0.003155987609514155
-0.015076060936039283
0.01667195639028687
-0.007929062285896455
0.07624099871122988
0.007952061472917167
-0.004766358541161242
0.005367521457433879
0.006052239717257264
0.04949742900659675
0.010246436281180438
-0.02953945238235501
0.0003460956431641394
0.006104144799985542
-0.05263653989861358
-0.02967031662126827
-0.017889757713008908
-0.03530992066342609
-0.0024039987832971655
0.012893651567679985
-0.0009892453472044602
-0.0047423270996835585
0.12374001614677217
0.0733131629267422
-0.045427400834496263
0.029880158804768697
0.012446369408543245
0.004285015492804169
-0.010587617330502426
0.040564015515031276
0.027056888783025264
-0.008741767555949959
-0.00883261994398159
0.02874471160930745
0.018228553014345148
0.0040676986666013425
0.00044307084928465665
-0.006204963498486443
0.03448051852674027
0.02392933115380033
-0.08235623990801126
0.0023026235146196435
-0.038070755448775286
-0.014836204177224721
-0.05971774445999101
-0.10654737885284675
-0.06296585707732019
-0.12380511906027859
0.03641554521733568
0.01982091797310935
0.021077774218819314
0.006605728139038749
-0.035689457701697916
0.012712956868107219
-0.04370540686850299
0.0504471093986469
0.1633396790040504
-0.11649563670703061
-0.04577488341893208
-0.005110575116662761
0.06313295764599344
-0.0075577722033994205
0.062291295858311245
0.05485868416656591
0.07749666791756085
0.12292355412175227
-0.04604393865943121
0.05192931121455798
0.014732941337829547
-0.021330201560001767
0.026727494630894362
-0.011537863051285503
-0.1861186886313317
-0.03355549356122064
0.018902349592610015
-0.024908433649502088
-0.016628237499348768
0.0005576572201848949
-0.031032316829092927
-0.008505328422071095
0.0327870417000878
0.02990095269485586
-0.0005595153749494632
-0.03014825951922544
-0.00789103320699825
0.022267631093284234
0.030756462859159908
-0.018625309472876737
-0.00788242132236638
-0.03119070888636864
-0.007528123527738473
-0.02930231251894968
0.05136176784063109
0.06780929387230558
0.029092437208188524
0.001576265056829414
-0.010058063975790519
0.006959738793134848
-0.008916247134352625
