0
-0.06044501426366113
0.009292425087579667
0.05796479314159193
-0.0043628765159324555
0.020064919458142295
0.011534674631815052
0.01639880253410625
0.010393669747175639
0.003835419940166928
0.00670113526358838
-0.0004236722201221892
-0.006899058889004689
-0.0019627534333031328
-0.014626122845814896
-0.024535014863582418
-0.006167484216578934
0.04712918324957282
0.027310087426973047
0.042605485102374864
0.005903907274224494
-0.003110034081805263
0.006832344926577184
-0.0006768117306294461
0.0022425620935539676
-0.01284676458264608
-0.011941887124498958
0.02979108268378354
-0.13206271897081623
-0.09069334298994199
0.012690533153914198
-0.019709117120055478
0.031842924939651254
0.011578654646797628
-0.0099293671394376
-0.02425705645698357
-0.011882495887155736
-0.017791909933711193
-0.005584025964961579
-0.011009606846752585
0.02940984788721596
-0.025042234243359898
0.008085962297669646
0.01029306185874558
-0.013442705351119327
0.006740572493836592
0.01832522052020625
-0.00762577127873044
0.016116246951004155
0.017279529651811686
0.05500256983529409
0.04647852404621471
-0.01740707790278587
-0.05025370131146197
0.05376198931942637
0.016538468297168523
-0.03705701020862289
-0.024959258384694018
0.03343655618377328
0.017889717240266223
-0.02252452210406285
-0.0005372743519031686
0.008535578921542747
0.022873796311770743
-0.053122955436827324
-0.03574661989781938
0.04716463470885166
0.018752031115313518
0.06466115482512125
-0.0005983768483210095
0.010862182283643468
-0.0274928112522823
0.0010263675215833462
-0.03006706018123456
0.023966701521664212
-0.03620826793287829
-0.06895057635242194
0.015202991987040356
0.011343073523382964
-0.0011596948375007087
-0.04282252597743248
-0.01395058946692372
0.12448414985893076
0.04605978292710666
0.0044926514827015275
-0.04357018204698394
-0.12836254106808906
-0.04059015452231982
-0.023177736389719976
0.009247357888905983
0.06569522361296917
0.025775149324081256
-0.016958165298706165
-0.042891490802692306
0.0642356250149215
0.155625851815171
-0.04769847077910384
0.0017332522606019016
0.012274407753573217
0.013179230230129658
-0.009850654159728942
0.00013439014604406984
-0.00895852851828313
-0.08386263133414813
-0.01746545592897116
0.004055810140422953
0.004068333709914635
0.012695385725710417
0.03188908039447714
0.03401311899786945
-0.07314419399587739
-0.011812313619498617
-0.049134035801787115
-0.021220115505974555
-0.03165283079168747
-0.004383713922515466
-0.0018176544638997233
0.024000231243176233
-0.010223704869031111
0.0036538642282909852
-0.07169857133002729
-0.02697997136702674
-0.00740564603288786
-0.0010446874740297689
-0.004680895632197092
-0.018448494390355223
-0.005017348909579433
0.087934997071424
0.03549825743657674
0.06268511549496272
0.12310309500831977
-0.01519423669866498
0.0069327741461744415
0.009217516507955667
-0.02727675067828956
0.018209696856046394
0.07411137394207784
0.00424724461118664
-0.02547970886436482
0.07120980571106934
0.013136287149344113
-0.01671709493393017
0.0003134762698556864
-0.019308626237652334
-0.011835774765587836
0.024133439647417647
-0.0016039446484013271
-0.04871243781277174
-0.01853134961890344
-0.0028721221325637277
0.03529071753966494
-0.039508062942475025
0.028211270377104917
-0.10670395518878788
-0.05724962615649046
0.040002659134974757
0.013560653382414823
-0.009699668209161771
-0.052127704447263695
-0.0014591828983443757
-0.004441414377309548
0.003498745019973441
-0.026518323944377788
0.009437908936072067
0.018011924412046538
-0.007747126787642034
0.014321130460766638
-4.548974714147168e-06
0.025295522448647915
0.028196003774239337
-0.013388861755994115
-0.01869226494468916
0.0032898194562016054
0.023039811362665173
-0.03230150904711556
-0.015894398678429997
-0.00036205296202279505
-0.013970783581168088
-0.03523734293956994
0.0350731116883196
-0.08137567488746837
-0.03569330849221875
0.0029114471251892203
0.019909362335181757
0.0637520530767512
0.0031698602347021944
-0.01762709846503374
-0.011168028574907249
-0.069576915947485
0.03822000011113332
0.009213535227987235
0.29489439060371436
0.13261073580531124
-0.04793598712162765
0.05068491091097242
-0.014309689472979786
-0.024433231340853272
-0.007249745181496591
0.0049348821760048745
-0.037365533777236205
0.055057979818981036
-0.05675044849342841
-0.18212082312669128
-0.036433236574153066
0.008008589284353862
0.01296604250240438
0.012358685464126341
-0.00114718488673365
-0.0004045129389292462
-0.00043032930309422373
-0.02558542669524835
-0.019000908435350284
-0.012371996901602702
-0.04588490380163771
-0.005838715844959959
-0.02545969401136461
0.0051379619887502925
-0.030284127411802704
-0.021661022194545815
-0.02678838538006827
0.01171348725653751
0.035710978055278016
0.006602598459586224
0.014586914331123756
0.02044416285331037
-0.0003774174163541804
0.019242493211931316
0.019609233098417916
0.0097806794788914
-0.038958209525655534
0.027766300833880143
-0.05122471025570562
0.15497000317059934
0.09289593833302792
-0.05002774470722853
-0.05201260979071098
0.0020745626992633394
-0.03743397311693801
0.019752981388931647
-0.03833212144661987
0.05133631351026944
0.024724906701157085
-0.1117562231898715
2.2817303526187618e-05
-0.011375885837827091
-0.0530468253536567
-0.05544158300662912
0.05228352164356839
-0.006027713690568003
0.012166905074594414
-0.015310182861773408
-0.04960625273676362
0.11128033438432285
0.11464636656805924
-0.047449521045064384
0.08620703006316438
0.04367434124965538
0.04161974948100593
-0.012382848540703758
-0.002039931729414835
-0.02368726674819898
-0.04218616136353763
-0.028742132710430666
-0.056022418631573215
-0.010401979220929048
-0.0365860459196015
-0.00016522252307838882
-0.028607708485836138
0.09563291241264894
0.16513145474204444
-0.0032184553282379093
-0.21802719441002588
-0.072606011186334
0.02218332057281887
0.019751755088726262
0.06826696797180677
-0.0022540621012253053
-0.005794720708579081
-0.0230213430539869
-0.00782978116171294
0.03586324638751336
0.04598907347504989
-0.02708219731817981
-0.0024277993382427875
-0.019661278629550943
-0.018786259066629948
-0.007996098927850725
-0.0450399607323307
0.02590449047885394
0.043627965713910324
-0.047227997339614615
-0.01530218624234156
-0.05778046639703865
0.011797972661831033
0.10607058476322054
0.0075474375765134365
0.005123735264440476
0.05954204924343227
0.021048956364668456
-0.013985759877174122
-0.01711768919580188
-0.054141198033818456
-0.014181863095746039
-0.027836320268094673
0.03952239066124105
-0.044227909212171006
-0.031781946044728636
0.04303222929512033
0.006609141228273992
0.02052453851817802
-0.00454628708426594
-0.019185930141404916
0.02007851220114741
0.03324593071663399
0.002989952974546176
0.02636064569874273
0.02234719284264465
-0.025304372361091537
-0.034784012958034585
0.09875586369657777
0.025959434990730758
-0.03232092257796815
-0.018368704114121243
-0.014582914644199899
0.001330124562279599
0.011110264863786213
0.014096212635376297
-0.02564830826979154
-0.005579915493897541
0.016387057842551643
-0.05315228544597078
-0.14277531491248976
0.03138046868635067
0.002473729904014464
0.021117051678024884
0.01199881347213395
0.05993447369627237
0.02614143164521774
0.034055794751617297
0.027878668553703703
-0.016877077026657025
-0.03566209735775909
-0.018935472997585818
-0.019383870948082884
0.019849344605230364
0.020280270883132598
-0.0026120374223938037
-0.0472926532888078
0.03580727976222337
-0.0631451387478966
-0.058743842836363344
0.08425853406728608
0.011140314891068032
-0.04136276880636668
-0.1445740860673013
0.030632132074664527
8.465930666980093e-05
0.006550881675321883
0.01863947427677515
0.028276957508547123
-0.024691572712983997
-0.02322618633952976
-0.0007964276966262413
0.008701939906115471
-0.010180385449823503
0.03602913882961069
0.009675932919855681
-0.014210402180131818
-0.0017585743562533755
0.016726685353909938
-0.02142182086236859
-0.05540091316440902
0.03413831005136952
0.04886184242733386
-0.028360195259305814
0.020248821791642797
0.029813728858276475
0.05954488992726374
0.0028330358306745355
-0.033763413296445194
0.04058140128675415
-0.008090521783704962
-0.025818275065037265
0.015978048012082743
0.007138395542228074
-0.008301512864175417
0.009059565279196552
0.008050127273726502
0.004363246994542439
0.03714727787298611
-0.008934343308035886
-0.013078410822921339
0.049613392494924635
0.003960939589574817
-0.05801984618394605
-0.01947508252543083
-0.0115096343817209
0.009231843532069916
-0.015585820582095811
0.003572944786652247
0.005050142070085699
-0.030219295013615227
-0.037945578737314724
0.01414244732928109
-0.016229529975106755
0.12031314124728557
0.01673445096739493
0.0004267715205892499
-0.01533129165652738
0.009840087865414054
0.002975759769274587
-0.010030268398336373
-0.11058619810524146
-0.009075566230516724
0.029969633920580753
0.021974702908711116
0.029224725466776225
0.0010287613247494866
0.008385399360616762
-0.0071358195420236905
0.01444406680090094
-0.008773226818537155
-0.021955269446832158
0.024835113373049965
0.00969202059869048
-0.009703545405749012
0.003641693604844724
-0.007170335271457511
-0.006852176209961152
-0.004471118835775173
-0.04141860429478151
0.03398376504730613
0.09139717504057848
0.01323486081670816
-0.00658008896640644
0.011134326946008799
0.02846886799193885
0.02876974737342811
0.0006615186329215844
0.018049295356562436
-0.003756818037846343
0.004865429687482228
-0.01613284877880224
0.007836092161386287
-0.007867510526345975
0.0074206750930659576
-0.06243895372767151
-0.12310532806276364
-0.012090321559302888
0.01875499756736834
0.03255012088599417
-0.001223547626983652
0.011650602185615328
0.004125815709424227
0.005483671625917641
-0.0057114358219740625
0.019069022640047274
-0.04060105497135014
-0.04929295675415193
-0.011711968793734973
0.009572897214492344
-0.05265821803482463
-0.02530231513553277
0.008136509012879692
0.035958798663833474
0.055236122740182136
0.00010038178428393215
-0.018955342060742075
-0.017460966999650853
0.011321961659673578
-0.012943276682017257
-0.04106378489272792
-0.01925411088702807
-0.044931558748173395
-0.001062881595900682
-0.022177752380803765
-0.023804912422247818
-0.01347522659800052
0.07655961486444218
-0.010966228317325502
0.12173847851458228
0.04700106114708737
-0.04627251788168234
0.013148757999929967
-0.030712656546181223
-0.000520834066889522
-0.0029975132141462934
0.036387941700215906
0.04888707463606955
0.07241022355296808
0.0012968681832601838
-0.006107264385813248
-0.1459991310745651
-0.12968900600299085
0.09147864206792547
0.08700223794651761
-0.02676621382742921
-0.03224600178008033
-0.07393192203187048
0.0364174861285783
-0.038001456177328245
-0.019229288345569105
0.058449647907405075
0.02263805877972335
0.01187692414942995
-0.028564155849508964
-0.003979563466100137
-0.011291560445686275
-0.026670992120493224
0.0035416830487095684
-0.024097489370088397
-0.0052110379970604906
0.021847810403444693
0.016191018974898348
0.061989040945000365
0.031464250271199326
-0.06309741703825908
0.0308665005814701
0.13953126675450983
-0.014353163459603678
-0.010244547666129936
-0.026579787807150895
-0.03976093477755066
-0.04606131338181877
0.007390021450499748
0.02691064885045429
0.0680358021356783
0.003492884250846047
0.000858203676671707
-0.03754523977974019
-0.03406026955508922
-0.020878842752906905
-0.03424634254630459
0.03476190229753685
0.02984380229607564
-0.0029255703950421662
-0.009613499535293364
-0.0272787785905498
-0.01370330274864278
0.021945272837110275
0.007275478470832384
-0.012184071005065106
0.0037206708611492306
0.07059832438258407
0.05818283755690563
-0.010591371278742837
0.032218999410653794
-0.021852914867218038
0.058657119040972074
0.008247836236068357
0.008967971828193363
-0.00684524327767842
0.009558711666146448
-0.012317457544831673
0.07957433773058166
-0.0742661915708142
-0.0853868932522038
0.003969317524258297
0.005342026712032357
-0.02941761934361833
-0.0036894749208555926
0.010066715831771017
-0.00738830904139901
0.01978127068935956
-0.0210672492325198
0.01130982356279298
-0.00882202822354954
0.019128775364976133
-0.10484055196634771
-0.027909178412018256
-0.049599201482501985
-0.023677022325802467
0.15645947452851208
0.023386672322642747
0.009391970198337082
-0.027897992649156385
-0.0014836170220650063
0.022722087441614632
0.02121858820461937
-0.03226159934123116
-0.12757336242390238
-0.05240610679074592
0.015803750293971568
0.032838741801980195
-0.05896366129591818
-0.06927664885714747
0.06245874813256836
0.033648586697365715
0.049440271149144524
0.005130140895282792
-0.002963874141463634
0.019777449452479813
-0.016670575195403166
-0.004210743063385584
-0.018578738075606074
-0.012924264045232784
-0.010192586710820895
-0.014730941611916404
0.028536875071068373
-0.007352867568129308
0.037844098245780354
0.017347055216024303
0.0433428730575477
0.05038274831061369
-0.0012959111775481189
-0.010394443578220423
0.02785299876549217
-0.01462322034072039
-0.018235336938158205
-0.031242602144723818
0.028422816779606397
0.016335901150896583
-0.025630203421671317
0.0484766622932876
0.021980029474521354
0.05484102705122855
0.020355067752518802
-0.06508883114754817
-0.040434468727844376
0.034153394855685026
-0.021055539972193678
0.028034028455536732
0.041881676449894586
-0.005228712342866394
0.02097078676528384
-0.07926934895245134
-0.11849271753926491
0.01612532809350214
-0.013517287233834949
-0.0037129653398763223
0.005565823976130978
-0.014546678760730982
-0.0013522569453451841
0.04084473339613371
0.012295246724515005
-0.00681712153357994
-0.004654511450110376
-0.02012155301429489
0.0022935481014417737
0.037033313796558526
-0.03233848480572515
0.015536719242973914
-0.0058980030441091414
-0.027180970406240554
-0.004773044408770801
0.005092276248969801
-0.004996402035419418
-0.0024841209761006706
0.009213704307283152
0.02689290737985537
-0.014048772942969115
0.02290332863739301
0.07665201105896866
0.042138135961538925
-0.004025031074152229
0.08315725138787985
0.00019722405092233622
-0.1206612749833318
-0.21981993560220284
0.013048934856699704
0.03508958044197251
0.007316510857394003
-0.06333620420810987
-0.07783679356877654
0.001161144194308339
0.06051694000513602
0.06468183781112748
-0.0234387207839517
0.0021009246745948016
-0.0451834825781074
-0.03884947609789891
0.011960072958704009
0.0021219744311924468
0.0677981678585274
0.09495252076661385
0.02706688655829997
0.003738205535306554
-0.013338661757993222
-0.01441721961950092
0.00371773156504806
-0.037581194910403536
-0.07160648734581929
0.01322196085952253
0.02667622522516189
-0.0039700073826695135
-0.008236715487167034
-0.03556771303142771
-0.014528298755106727
-0.004921671766487663
0.08329549824688813
0.23184927386083842
-0.007484886472908759
-0.01979410293803646
-0.03435324942263286
-0.008657275236117467
0.012320271694586429
0.07192150622422179
-0.014339692176452408
0.012998552021427698
-0.0007922931414020417
-0.00972684069674849
-0.023363844229510995
0.013743308603465123
-0.043292734830939573
-0.010935812072818168
-0.036875500601810884
-0.01641728632860915
-0.006570132564283261
0.05806027888073764
-0.008026987019260558
-0.025181457632274223
0.002560062840747607
-0.0017506329943786532
-0.013379777733825588
0.009894398106494263
0.013026402460575532
0.004721758850421262
0.0036029939197377925
0.004072646039885278
0.00578566664577095
-0.0007570101286551927
-0.006287300907090961
0.014930774454733165
0.01293628596683209
-0.011508778324303243
-0.0005377253773383975
0.012727780329620837
-0.04623538868942139
-0.036099274323928766
0.03456671404391563
-0.016967002216010628
0.04231079107683451
0.00039526496177261363
0.013587348359728278
-0.13071717420734313
-0.07139157851627635
0.01894546413966313
-0.0094254621222827
0.013073079277436866
-0.022828993516005494
-0.00955142835584229
-0.05912015844958627
-0.024248887621453663
0.010160849721347003
0.0036686335527265825
-0.023855428935416294
-0.007270944768234412
0.008025296129765007
0.004444868451598095
-0.01061050606836121
0.08101198162012925
-0.027098296077042065
0.10734022746894943
0.0978080029465937
-0.07303060833160369
0.058984427462762015
0.03670074325709724
-0.001948036939867888
0.010672624107404601
-0.03282940266294042
-0.005582704850379758
-0.009931397623217606
0.05868560536115163
-0.08406508216036555
-0.1258110718036006
0.015055881854699082
0.0033322268517469037
0.008138856538667789
0.015756816905280868
0.017391634481645095
-0.01912391541223614
0.09360974413519935
0.015464060698215609
-0.017592261062487412
0.0028293217421641636
0.032442440211160745
0.009751300557272611
0.03477725767012404
-0.008822664378550836
0.004187296183377221
-0.007812894188714125
-0.0013771625512754083
-0.009867652217284405
-0.024836810623744522
0.03797589360099992
-0.01938392422406558
0.07525509479080404
-0.01245635287275793
-0.028006582413745238
-0.0723136902691871
-0.06097994376641547
-0.041552449068225465
-0.007572724273353762
0.0315212104103588
-0.01115037934354699
-0.006946451908380603
-0.0021994329947092593
0.026519665276150576
0.07890985009066652
0.009602521608381315
-0.011606372993570343
-0.06920732136385606
-0.02176040433443477
-0.01984057399940292
0.028158965035508972
-0.005883230982896014
0.1595268914404803
0.06220465879052274
-0.024841343693497123
-0.02186092335119816
-0.08089107804095241
-0.008131011876574511
0.0006690652197804737
-0.014762426489673897
0.040029711709724386
0.014797073237057772
-0.02910028672466325
-0.005941655126206859
-0.031052748657348125
0.006193093987192852
-0.00023210516479390706
-0.011170796186005192
0.0005584479640065717
0.04035322489554793
0.04656873954287231
0.030706579692111633
0.01813912442522812
-0.015231567826298836
-0.04195748659964837
0.014234188253370769
-0.011576592080139666
-0.0027621742718308482
-0.009366367787296784
-0.1009230309927743
-0.017061827550767933
0.003828984653856449
-0.027411306549886508
0.03153975808085674
-0.00693214747957488
-0.001369311274123102
0.002127903027695428
-0.13845473332402278
-0.03829057406308386
0.01038668208939629
-0.0038093809420451917
-0.015493326520421393
0.06484797255475479
-0.005453263628617289
0.09696932146978904
0.07226327262108143
-0.01952249150057662
0.026615708964177698
-0.053362105420155216
0.012152075494807683
-0.02415736192464602
0.057980028398433976
-0.035259725948413485
-0.038585960575663956
0.02080423790061188
-0.0002837775234113034
-0.028328207022725274
0.0013788669852515954
-0.028810446657763857
0.007254001848650837
0.06630750819416953
0.19451031075484426
0.04300849911194822
0.036974757641319925
-0.014197812191704805
0.027124198329546757
-0.1281500867164006
-0.15551979181700373
0.009825793926527895
-0.0015227936489057268
-0.009520632819762245
0.01612199903779081
0.00488226695939709
-0.03570187380633316
-0.000971310895316133
-0.015002529496166844
-0.027753852407594537
-0.009446608085534821
0.013379716858124077
0.06922364360414211
0.04930275252587292
0.14714134934550915
0.014577073072735341
-0.07011040299546913
0.09388785215230243
0.012841705406491322
0.0015519597301639682
0.002266966022775018
-0.009461954891855646
-0.017863971944765106
0.025351911726447164
-0.17601144947151137
-0.07570405380654775
0.019035559498836976
0.02095323931795198
-0.003711379764656345
-0.02681841856063233
-0.007850579127044495
0.016268609482687667
0.01929756397092285
-0.04220815305636503
-0.03287976774496687
0.01805136172119715
-0.11423094057418179
-0.061535142684500416
0.01762842031959
0.059969073623624414
0.1544973051021994
0.013958751626027558
0.03241165296561594
0.004574034329064717
-0.08631171577917096
-0.014937860644009648
0.010220361835421072
0.03275425409863671
-0.0007367782482465763
-0.05586873776617604
0.005680227212217398
0.036634800154290124
0.015389572230575193
0.014890636292428221
-0.012954884911023963
-0.0008395701816124693
-0.000634782590836101
0.00756349716555402
-0.010224902965613302
-0.025960313254420404
0.0016701395138891371
-0.005506014414088539
0.0022939858466218066
0.01741731526755825
0.008647916008287775
-0.059072700539912114
-0.059078211798342
0.04670418652551366
-0.005936765244610975
-0.057565776642448566
0.030186178314883173
0.02885803317096444
0.07399627231748795
-0.0397422691261031
0.028337499129251136
0.0038375685314904428
0.01306014277600088
0.0026303721217484895
0.01024523212981598
-0.0020621884984214226
-0.012834415078431369
0.1316642927965117
0.046501860532845676
-0.008856673886816218
-0.010939858315896426
0.0034650953096715727
0.038038402633500695
-0.011710146159570074
0.02621643855683989
-0.13778424714026608
-0.039309900427666085
0.0074165457942442035
0.009595101151880565
0.02278774042583944
-0.024962161832457395
-0.02541135778446213
-0.018369398623740582
-0.014033042499066605
-0.031178195111841764
-0.06962712919598922
-0.02155117721116533
-0.044349382715260635
-0.027592442514435028
0.01904239376142445
-0.017129727022086757
-0.017738330959825445
0.006982229188828616
0.038749243938104146
-0.0019855562093152885
0.0062063126215937
-0.01576972468536407
0.004617074266404113
0.04271542764167137
0.07410702622087555
0.04787396864467661
-0.025795744851171237
-0.06288371856458978
-0.01349039466295994
0.08122367127908586
-0.001530407248154567
-0.007391852238587229
0.10523154016553372
0.10097009966436837
-0.02221803394890483
0.008042604398525563
-0.04373392704146038
0.026022982607482557
-0.07259991646133501
-0.03195138946356082
-0.04336289461819526
0.14708041972735938
0.08561638889353243
-0.04936908921904762
-0.02736016911303481
-0.005222446352261233
-0.0246976645455432
-0.030653886625408504
-0.025629213290109233
-0.022475789788385138
0.011215187365564308
0.08279287696188217
-0.04101871194678004
-0.11628629950790784
0.016097255723327614
0.07647697336237891
-0.037308543820036844
-0.13159985236302044
-0.005323767701422265
0.03438706862177591
0.02383119676359321
0.028580876505438505
0.005827255562916711
-0.04279311399131494
-0.009716456467243045
-0.010192058963924099
0.050284525980862096
-0.0034024148758660983
-0.008754159415225483
-0.006147270229900471
-0.06409310317265675
0.011607878176657142
-0.017563920729581527
0.009327957175733577
0.08997140821388198
0.07246177802803293
0.02615498634899591
-0.02805098285838054
-0.0027823875906142917
0.05967081175804752
0.04176493181424692
-0.020348795383439533
0.023700929216206663
0.00832562167518164
0.0007580247661605344
0.05563481967575671
-0.15109525189756534
-0.08702740589704674
0.04038359399448496
-0.010292625382271632
0.01997654517189093
0.005954033085143004
0.0096866300277125
-0.011135799236889121
-0.021865437873931984
-0.010262064519447925
0.028668202472045313
-0.0017273822194717073
-0.0011363990990974765
0.015491468819212671
0.00763634432486049
-0.00190903872026777
0.044758998115911
-0.011539945311754804
0.0025904531335493868
0.009888854688391385
-0.02219103090990117
-0.012704289360232934
0.033481286252870474
-0.06222974328255344
-0.0663676408112675
0.015150823219356365
-0.05763041722849166
0.031186117598640692
0.011752019018754853
-0.026701828128148968
-0.025496891103060464
0.02365983743453736
0.029244207814197253
-0.029905836869520763
0.012002633123027896
-0.006095801507207918
0.029842970145357813
-0.04358368854662706
-0.07794772376739266
-0.006874151650558697
-0.010493716022563165
-0.019451555288655463
-0.0007369327734439464
-0.01945035842976216
0.01624107321821912
0.010525856617470786
-0.020346086448019603
0.02369966950845168
0.03717262661097815
0.04167106016789367
0.0029273601710356344
-0.016351489877382285
0.01150601312818005
0.029617102965311774
-0.000744267334176189
-0.03510007347155111
0.017021911580486448
0.05336154222732937
0.03482888804057918
0.025290373321070994
0.027563601289240486
0.018151803635969906
-0.008785689369984811
-0.013405557594116366
-0.0193997538460422
0.017192924487723055
-0.03349355974122575
0.021859916999716237
0.0583748933722475
0.08367808806338035
0.02817373979390578
-0.012346235143700436
-0.022842759580136995
-0.01174681675490241
0.007439795288286621
0.020007976919992905
-0.015585186641804232
-0.03613274970578508
0.008401763876944296
0.008258422191347705
-0.04101056639371659
0.034684221840019326
0.007154826506145307
-0.008865466730113044
0.0004342629141786755
-0.05974029268860748
0.08986521802126468
0.056470187943818986
-0.0022041750973451485
-0.019738124301059642
-0.07815639759453519
0.0329151286469438
-0.020247463136354345
0.014543310981900684
-0.03325289827306711
0.014850510965095775
-0.1873675833552861
-0.08273311217593753
0.03882545324254466
-0.00036756963027182284
-0.027144965075866466
0.02419064022380674
-0.07956221932358185
-0.12440946719264974
0.018565477956664172
-0.018270062012229686
0.05617769831914178
0.0042115052029433764
0.026426967627689105
0.02508158074988842
0.0100120300765945
0.0963645433982824
0.12388416347526589
-0.01618685301585826
-0.0023560843158043168
-0.01430711370436366
0.08846532370295834
-0.12027725704500623
-0.15714173593945607
0.07344807500084065
-0.02920750973206746
-0.012041083589608105
-0.024823159704902037
0.04875147488363537
0.01394650047913431
0.015897369631307185
0.0613198126336115
0.012317209633019088
0.010589007410680114
0.010273735092622995
-0.014289428753424458
0.02122177224077471
0.010825296417559738
-0.02206143585769118
0.0033735420627695246
0.09076677214155444
-0.055295835628929854
-0.0014121843774302003
0.00850108710061196
0.003005562607966613
0.026710361499853237
0.0025514070985292302
0.014062872666648695
-0.024140742142397954
0.003084247901002236
0.017699237334656958
0.08386990163836829
-0.017542302303603482
-0.0903616928337604
-0.013555609582484526
0.0054159577909887735
0.0005241446058974794
-0.010147085702222535
-0.05430073019822624
-0.023981063927991146
-0.038405573189095654
0.001320477898416322
0.04629237241525731
-0.0004594520956640442
-0.03774528425199589
-0.0004966567809933147
0.014324987823369295
0.11315308752002093
0.04216058842549453
-0.04422457098664309
0.03423092840301954
-0.05598378101883097
-0.15494074660067916
0.11984169510385016
0.08900441977944515
0.06465422281027475
-0.0665594073953125
-0.06282804990766744
-0.10840057195819577
-0.044954039869359884
-0.05860807645767192
0.021773223252035467
-0.04446245653530639
-0.0009108039094258794
-0.045070734959419614
0.04147567392209136
0.1286508225635162
0.10512507477340313
0.04534249996425892
0.012458360285480294
-0.0010415284730987437
-0.03259295338587424
-0.02453661826652402
-0.01899310801723382
-0.009450538321288103
-0.012842238135294391
-0.003170153707861431
-0.03959136485490347
-0.003293814015132835
-0.0010687727343719885
0.006562908687345273
0.06886987331680751
0.06430263494160181
0.008484371168151117
-0.01997356329880348
-0.04732901925807469
0.026106202532161678
-0.02496222997728551
-0.0023167856343129876
-0.0032740523244826577
-0.010084696957250377
0.08424923040241432
0.06880075215142148
-0.05440286569771667
0.009104440648466142
0.031879788695952975
-0.018610848090093026
-0.02627116635305982
-0.01903924351366154
-0.004864342023271159
-0.02836232817692653
-0.015123592750626316
-0.011223778545205934
-0.02167568938485022
0.003958736720357121
0.035916875723545835
0.015637149712962595
0.008991747880052418
0.01755753205296143
0.014184694746882599
0.043688273123921414
0.04177845014506411
-0.08920460628390044
-0.07380572070021872
0.036446950119517346
-0.004421341227499715
0.0360619767245522
-0.04597386728330452
0.01448688278707807
-0.041751696131912486
-0.17434306598357938
0.05497781040709669
0.07397229056004088
0.061702817943462114
-0.026304012574282908
0.0015192132238022996
0.026617756143995523
0.04859751848852467
-0.009597046720290938
-0.0031033523518896864
-0.004128172511221948
0.02040479372029545
-0.08507266046941428
-0.09418095612988624
0.030241192309580733
0.06150723047786976
0.06696492857051828
-0.010191152312508325
0.01167027122894039
-0.01587653363586678
-0.005124895840023793
0.021964862179866266
0.005808832089957147
-0.009125411073220667
0.008492617210066217
0.011076473395168433
-0.017832541030742454
0.006004950646707953
-0.041354245134069365
-1.0403164542304498e-05
-0.0559073898004159
-0.14814747750054075
-0.014966198685168958
-0.01461435419422331
0.0016369938598833986
0.019218158584715102
0.013295744215239243
0.02378033036485603
0.02629636358761672
-0.007042877953748171
-0.028756941650206137
0.06441667852835821
0.04193209703931187
-0.011589371756129476
0.0131285420154483
-0.014741424624183545
0.0036593887848550997
0.03241797825597392
-0.030790389705082064
0.04680531143436977
0.08487452588219979
0.009711903023461763
0.06661311593964733
-0.011818177180664571
0.003538809166921933
-0.020467374345155782
-0.00805544203595663
-0.05877056556436307
0.008002594990923323
0.1362962229498109
0.03864752555825703
-0.0201440518396895
-0.1826704749800007
-0.007826219797613025
-0.014150849701839318
-0.04842877634550526
-0.01752957890005862
-0.04146806645743456
0.007845186989821569
-0.0020219953925567414
-0.01804845136574478
-0.0027521736868174416
0.00845592856805008
-0.016427734410003524
0.010760550628817533
-0.02440173733492008
-0.030733041386344265
-0.041239247110185395
0.014791758497390234
-0.017060595352185636
0.059530874726541144
0.0005814255024691792
-0.0007818933133965813
0.008861787026781755
0.0526495465658711
0.018052649025994908
0.009962760192780466
-0.017251919499066022
0.0028214931513630176
-0.03526430615449418
0.13863885411400598
0.029359511077598884
-0.03821068962815256
-0.015839737448262746
-0.002070393690253513
0.009984719373472652
0.012030413299800884
-0.033258799877258965
0.036623329931225544
0.02233688474796481
-0.01535138677458074
-0.04063339682734791
0.15732636652647927
-0.004770660905507905
-0.018613792028753042
-0.011639599794234092
0.011743574779324629
-0.006106004170156931
0.1871692468790829
0.059637561300705126
-0.01119958322359633
-0.06439343440037663
-0.1609289705915181
0.022704128854131228
0.005078257065168689
-0.05775512446334145
-0.02879069533438975
-0.005454822412421318
-0.016163905749776983
0.0004820836964138369
-0.012089651020285936
-0.1490341998492943
0.0009894336414284042
0.011858350471606438
-0.06468288039167071
0.05867179155931014
0.035746946566725
-0.0033436123259097793
0.018831525698262665
0.025678653431235952
0.012298947841702445
-0.008296877096129833
-0.016123559479866295
-0.010497586258755074
0.009862886683273911
0.04417662398936771
0.06049114142404374
0.03816472434239228
0.008348690257340606
-0.023326726875352928
-0.015956532983299205
-0.02196715556015717
0.09188433896572706
0.0029237986413819155
-0.045635595876308506
-0.023486884834015124
-0.022127666124618958
0.008804811751010378
0.034569333227284255
-0.007892962999575157
-0.0006470995502324153
-0.040604729556389496
-0.12911930624649004
0.00021875065642145618
-0.031923935913050816
0.02400672532159869
-0.02185279585936684
-0.017742844045303408
-0.007959963095810409
-0.005689797696787003
0.026110624950517854
0.08306356117992561
0.0027457544587192496
0.04526876550492026
0.03230622090990465
0.009734654228532978
0.053024741074381716
0.004008365845720101
0.019628867060777676
0.021886387822590926
-0.14189912156208254
-0.08614480644013467
0.07270693697893804
0.0351870697807141
-0.0031054552148461457
-0.02543397802649389
-0.10068476919691782
-0.016689798975546188
0.05409435949447359
-0.04125416863354335
0.01057339592258657
-0.0841430099583296
-0.005649382698212665
0.020903319549285676
-0.017499173591604408
-0.016508403617436957
0.022853015813680596
-0.002188408952390345
0.02531746073263775
0.0034544841209932582
0.01189104737193409
0.04655495302334636
-0.05363764280707708
0.008836326509672865
0.022397819857833654
-0.024256648418993366
0.1587386461750544
0.07535774161829273
-0.08216450184920256
0.02727457058506462
-0.03338530227930111
0.015708421222846717
0.04154488650987681
-0.0017299110128439319
-0.02150673996125711
0.012705949357571935
0.014555449545802696
0.002693481943407902
-0.003622534546921468
0.005375194549514284
-0.055911867822991214
0.007392920655144498
0.06363220945223953
0.02573844892987662
0.08458358938918091
0.09643042340005918
-0.03241769470944549
-0.05063490696399492
-0.049914563815591256
-0.003943804152918292
