0
0.026202433258885185
0.009718736001689736
0.02219993760169188
0.00858389296931023
-0.03306554781845564
-0.05854930861058836
0.09970910725592097
0.1160379426253112
-0.041118398180439004
-0.04829971222809378
0.006512837044264968
0.022804168316691034
-0.05690134535400138
-0.032225836408958736
0.062312758605966044
-0.058041798257914966
-0.09367666642905768
-0.04258872174146528
0.040253802566240365
-0.008111428618719203
-0.021888188624167065
0.0168000878966592
0.028024851815174893
0.031930004003862866
-0.01377279877798942
-0.018910404220422474
-0.014981175207753803
0.0414226551935272
0.08174305810635422
-0.05756890747127397
-0.10798329507517253
-0.0408835285399075
-0.012375874793406065
-0.026313053615061664
0.006241112923364293
0.04797849590095566
0.044621967399192455
0.011881748064442768
-0.0693883428054475
0.072389828118028
0.05929648084273003
0.007040727320031471
-0.003052412304540446
0.02303271679529668
-0.027053106960842226
-0.025712524655408436
0.022805257755526054
-0.005424330438332293
0.01904431717274083
0.0018977476539186098
-0.003374103641365827
0.0017189236990266857
0.038490353465332
-0.05213605044625474
-0.06501572443695676
0.05518819185622913
0.0035635123520317896
-0.00817413351536385
0.03309705762225612
0.03053598900215312
-0.010712212530222514
0.022272327707403946
0.04156293985116513
-0.13539094875417948
-0.10077568512003324
0.0528803311401445
-0.012179153901054233
0.02338534472110148
0.04312421901997458
0.022024906538503992
-0.015442921882531241
0.00728187537381491
0.018437728458025684
0.01331499317065118
-0.009814224906636028
0.03947485830334842
0.056560784639170976
-0.004424641772349783
0.004359526520193281
0.0018677182200223525
-0.03352900535230463
-0.00629289327743536
-0.0365064644564717
0.0013996745952066978
-0.03786406328824481
-0.03313690858472995
-0.022296303663462278
0.002381362081493577
0.029736656612956897
-0.003627062101993988
-0.004749720453600023
0.003753950772801337
0.030860220098362704
0.003841441017849732
0.011744804458595012
0.05980763839951417
-0.013491222873029196
0.07162591997410678
0.14609675540926978
-0.030613497904725562
-0.07514938745807224
-0.03820069111005087
-0.08561853689367616
0.08581045359560244
0.06644086953730954
-0.018602057904668817
-0.01297722406748341
-0.017211280632216074
0.02848868503108413
-0.06668797689865301
-0.08459544342364067
0.04021753721206139
-0.004674979925505862
0.027610329817088396
0.028565590712509265
0.007417750002130584
0.019512669257513368
-0.02616593238058271
-0.1993717543429569
-0.09966396738346962
0.025415191089558756
-0.06340325074055694
-0.06455814670692682
-0.030181533875312833
0.008490935729940474
-0.00414830788488442
0.05792439056878753
0.023014649884261697
0.029265994639398375
0.03941029518098424
-0.04015505413354545
0.031368632548755764
-0.033247881405360655
0.0039645370140885035
0.09922703979893344
0.0541906721451669
0.014588803109998738
0.03644170553023729
-0.023283001826721453
0.006636880255835475
0.02241713852340038
0.005885896392971334
-0.04797179424490733
-0.0014940187269991115
0.031933506515903355
0.030988701105802485
0.07207490823684341
-0.031793126155329234
-0.08384159550881067
-0.01979370709791316
-0.010951863311572755
-0.0068584341041992075
0.005920279220677829
0.03711046661416664
-0.0139450344352519
-0.005510959124709407
-0.012016250626437599
0.00115181795250795
-0.024248659944314542
-0.006501317364573709
0.0550583283087038
-0.014960483548472212
-0.002460888323891891
0.018732807169332774
-0.024541409561310835
0.02069832065056576
0.014415517678700461
-0.04440634332451747
0.0173970965321905
0.06582850009537948
-0.013962965147242355
-0.010991305637457276
0.0011482599645873874
0.018438628830478154
0.0044968600773211504
0.02836107754085271
-0.03575803363106014
0.002618081159317136
-0.01247571641048379
0.03650678663767219
-0.03291259667501906
-0.01120822901525439
-0.026103715806655374
-0.009854239111955846
0.0716687355278423
0.010631448033828829
-0.04729220605064008
-0.02784839540491383
-0.005297925273741445
0.03281985670569242
-0.008878401648938848
0.018276843231893915
-0.004946340609395949
0.03528105307352848
0.0136459976616323
-0.01918186518080526
-0.004350624207215603
0.02565681214688901
-0.02467700444367561
0.011703319962289436
0.010974219503064502
0.0027056473264196
-0.08575228466415481
-0.06369540826304998
0.020803182996020422
-0.013832790652693541
-0.012216164637558792
0.09389598530963648
-0.02349261772129433
-0.03650820684170293
-0.0010086919157072732
-0.035602718816415684
-0.01432636241891938
0.01344190578206136
-0.02751347881455325
0.044278754144447215
0.04150177845939547
0.025733098934326206
0.01558909915805661
0.031045074890693795
-0.053715121320979345
-0.04692885815057261
-0.010978281803104825
0.02484628076513822
0.002402618495786446
0.0469363314527233
-0.0334798024418314
0.13688851583922115
0.05351868444028219
-0.04931318273505911
-0.007489540721687626
0.0033060644047968653
-0.018023235136198083
-0.01671823861716289
-0.003972122261096212
0.0038082639600742338
-0.0040915815504086
0.030946562692961255
-0.026718315248163524
-0.014157136172670063
0.019532725983631382
0.045972637564825065
-0.022777221343318596
-0.07900558048049634
0.03816777007827492
0.029546247572558772
0.019610219842071196
-0.021792680323847655
0.011502472192301718
-0.08619152104086931
-0.014132069982396299
-0.006131018943440861
0.008519512866778642
0.00516906146482243
0.025017751546462547
-0.06233407053401714
-0.0414983223575488
0.010042776632819448
-0.02015814217475592
0.043349957694014965
0.053622625234029275
-0.028655663963372595
-0.007470366420905439
-0.007512934703314106
0.003882981861035765
-0.0005867409990249098
0.0332134790333539
0.011074233486008537
0.010437781376129994
-0.10058200479929061
-0.062173065593692504
0.019692044908685005
-0.010839053630875534
-0.010709378432355691
0.018446516918275934
0.015573010971056638
0.04496590313777705
-0.02545639874361662
0.09126827237694213
0.06449606739193842
-0.019757140541404677
0.026801894936227897
0.011368015154470272
-0.04406978962372678
-0.02809596250451424
-0.004241432047819967
-0.010928715665822843
-0.028902978740333627
-0.05321032639423602
-0.03761011837357402
0.005211520769884491
-0.030920693918271427
0.02177700333329368
0.010194446947360351
0.005748009294395256
-0.0035158537938078625
0.04259416665349069
-0.06237446811419401
-0.08078926665106723
0.039519550336201255
0.09347428342385987
-0.02764991441416127
0.01866268479098771
0.06479257553871612
-0.040506746416732034
-0.02274509583134303
-0.012889825074173885
-0.004072975779031214
0.03959527155575742
0.012945147230225038
-0.015385417590706748
-0.0011863263267667646
0.1738748512936831
0.03731881616042345
-0.06434524830556547
0.004321279071027099
-0.06050154817950927
-0.007806342640443529
-0.0001859973573450139
0.013839694124512967
-0.02789144094579309
-6.9072000414195e-05
0.11641146138290331
0.04399991920644602
-0.0013582164674504802
-0.033828891924295605
-0.03368542818206463
-0.05258817533116276
0.013613773345707578
0.03825415309046551
0.018382684049393132
-0.05650455794764725
-0.03732632427779665
-0.03034972387372717
-0.03594054541306285
0.04895317886930863
-0.025895616063613132
-0.020162944134085856
-0.017990335314903332
0.004914691623636958
0.15864377702522447
-0.11548426315552895
-0.14022192716621915
0.014729419684905267
0.01258333514189569
-0.005482526154116995
-0.055457689711866265
0.07502387576149613
0.007523528140096882
-0.02050346230032791
0.06911247777050689
0.030443044249995714
-0.034352175250445725
-0.026715944787752122
-0.04344118675753668
0.04939637341452275
0.15541333339017213
0.006202663897437638
0.03398950371829304
-0.0005035689601519181
0.013252456419626114
0.0021070326271487774
-0.008536731345115978
-0.0074694840540408735
-0.037245508120548616
-0.027994805003319023
-0.021309126733211788
0.005224920234908191
-0.019290540177827113
-0.011321996221503493
-0.0038762129433994362
0.015432803415097554
0.03317601974106199
0.12183449804518393
0.08621148535425557
-0.01331656188453667
0.02777264069861895
-0.0033828822051213832
-0.08895284125836235
-0.05323743680653553
0.021459795611630982
-0.05797592364342747
0.0034798941135212474
-0.014031012893217341
-0.1075605264395157
0.0033400451926988797
-0.07891905226720838
0.03357808200705344
0.008844590343478788
-0.016720912396341124
0.0016780066218655683
-0.006192976681630872
-0.10187551382126409
-0.12841548939145125
0.05423817812607731
-0.07085171807474107
0.0010802515440206
0.05180384793501656
0.08323259866253248
0.01102017186012342
0.06391894565174783
-0.017381292194992386
-0.04145196163615074
0.005949681190109559
0.0205262276496834
-0.0015972441659934597
0.189182787585346
0.09151337376335761
0.14121684945589122
0.04683089793678114
-0.03278340891511225
0.002558859034510721
-0.03657652917581075
0.029288001853790827
0.00890195842943095
0.007214565645025327
0.01077197577601529
-0.16711517537297998
-0.14037983629168005
-0.016921087717005102
-0.048620059838743714
-0.03893011273838823
0.009336004993198605
-0.02203715926177245
0.04105429080458775
0.003718157273991576
0.024909313505287477
0.025124742992870125
-0.028541549533451258
-0.02493468872743984
0.049405980129871664
0.009751337312939345
0.0028368887271232497
0.02965547755551798
0.03250896982932745
0.053682961257712575
-0.045457250225143596
-0.027525526205715935
-0.059134730840664236
0.03898229655345424
-0.01989295990451381
-0.09792680787597403
-0.08123996664970505
0.02879437770383169
-0.01498183651441339
0.0021002158983554424
0.007805666957865903
-0.019707740293864802
0.025119759790441728
0.06707429375084177
0.013865737597882444
0.0042053952088059055
-0.009770212122137106
0.010188916020586745
0.08149958290595549
0.01729529059343624
-0.01769272526495677
0.030918300778896103
-0.0043373696969435886
-0.00022171264279223857
-0.012740053975931467
-0.008677896541418647
0.04311906667159846
0.03301584980604793
0.014056352359977913
-0.010535578152570522
-0.01731738549717758
0.03385395674182792
0.030395698449698527
0.0036510807684314744
-0.015134166840442002
0.016553877257521932
-0.011615549809025079
-0.044650821707437525
-0.023009414355501277
-0.005980633710936742
-0.014715896408362157
-0.0042244419269884155
-0.029623776542171448
-0.0606858777993258
0.0006417048894975258
-0.006380136439725477
-0.028663512861396553
0.009012613786683601
-0.016222948974507198
0.007220910707191017
0.015029345037702847
0.0035925654532638325
0.00917685456453024
-0.0006305595748767646
0.005841304601186008
0.03136433860402686
0.001344438859733733
-0.008282143508126824
0.02912804896722795
-0.011354911409910103
0.014887483599400283
0.022104325443538922
0.033832008884432774
-0.01733652973980252
-0.02408496589147537
-0.03266430316710686
-0.018442568230417206
0.06660138770783616
0.057567867629850895
0.01599841730166616
0.0032720271290327682
0.00601826421418195
-0.015694885569172246
-0.009293316281258911
-0.06577823591345114
-0.05975529691704876
-0.007336448062070574
0.029050446881171147
-0.010784436534721586
0.008994225010850409
-0.02187745580223428
-0.03643740545638912
0.008073832971220106
-0.052372363182779505
0.004001028155590214
0.03133771271593037
0.013129683248153536
0.001680063623360094
-0.0032631841741816636
-0.04890981364887137
0.03299281173981658
0.021864440085757976
0.05003236858524042
-0.017693029619036047
0.0303884698483002
0.016173554038647113
0.07532583239006613
-0.09870447040618593
-0.072970160694117
0.06637201148134658
-0.0280696955798889
0.030422788756681984
0.08310286046489217
-0.014317126490859386
-0.00040003341554079995
0.037642273471486055
-0.05239570261638961
-0.05070588458803718
-0.0037528908173352577
-0.0038451537132175874
-0.0444166343475408
-0.031117933347692875
0.02663698307485835
0.0033359478749478786
-0.03657054340493335
-0.012233368358965694
0.009842692340376831
0.047970252921716645
0.07573676850781397
0.014030901855422344
-0.03864643587597474
-0.05708161500692866
0.040774784187979224
0.00467897717015789
0.09375826937785649
0.02810972748563094
0.09265678959233689
-0.06297469994011623
-0.08144375887908183
0.05723676073211137
-0.04359865773894546
0.055145969746857613
0.021593435130965555
0.03604599491937946
0.01131992309689703
0.030815060611729075
-0.10371164256826278
-0.16944585889045002
0.004373982901199699
0.00989907229543763
0.022078064427665387
0.0020707127122794235
-0.02283371953258792
-0.00181010004944968
0.0138402962560805
0.00263338843485912
-0.05282276216613465
-0.018280369162078
0.05554130513101641
-0.014318613178490406
0.00831720449595953
-0.01690879161081092
-0.001397269937318944
-0.04917705099323702
0.005731218203114394
0.06482092189888457
-0.0356543942434608
0.017851094826324222
-0.04497771653741645
0.046250991652750886
-0.03804903323549004
0.014880516354429768
0.007963465649478202
-0.0028245578387096093
-0.07055153531953909
0.13980444222314212
0.15776722757309353
-0.03180643306954153
0.0257919642951417
-0.01586314031503252
-0.031775512776328146
-0.028582924802750508
-0.03349432616287225
-0.0019607400750819657
-0.011297868100159288
-0.009231045992501475
0.020987228079888686
-0.04518336373412528
0.03260806948530116
-0.00022647794295738196
-0.02452351967300875
0.02911486040579617
0.009320420208034476
-0.01960231851056302
-0.008717839022698168
0.013061379984813213
-0.005418850630486941
-0.06269471887786528
-0.01767484609788071
0.08157529316384979
0.021303923283617146
-0.011657381923764676
-0.037046847793922845
-0.04214496357516815
0.014072387639229219
0.006066584361584234
-0.023631204824958202
0.062280874719762146
-0.015197972984776419
-0.014814468548565603
0.006395668686104499
0.08562803442749756
-0.02956603670312046
-0.052337167995394514
0.010752577494115581
-0.028731412542695595
0.017852949491247997
-0.009456383975360637
-0.0327146454652156
-0.027470911887380926
-0.008613409333178265
0.006619603198672593
-0.011933852350991333
0.03847651294531706
-0.02471128711668646
-0.020704361359949096
0.05830181713614706
-0.015821925111363804
0.03355298773192462
0.020414549888044316
0.036001549109123954
0.011663637761758125
-0.040895069208568544
-0.025627571666156257
-0.07436489602932873
-0.03162190658994987
0.01299201149006832
-0.0024053228565730973
0.020997677422510425
0.023289998405942175
0.015854139153544698
-0.003094414084188512
0.012145210553122579
0.0013995858908106627
0.08849347027523907
0.04789632829088679
-0.03598561542468597
0.05108271150609265
0.036626562781003305
0.019244475312302813
0.029895038101950083
0.011808020251711867
-0.03360952806695907
-0.034790659270560645
-0.013235369368911334
-0.02281843650360104
0.0076344038941354945
-0.016264952005821662
-0.03967911727989504
-0.013113234174643312
-0.009417116796688333
0.021764177704496318
-0.024439616436432353
-0.016371620651954435
0.005330641795423985
0.03451727536780641
-0.07028012469172507
0.02243632157986297
0.005470769684306866
-0.02415554734116106
-0.014641854272091916
-0.005660284747829915
-0.0014872011910352083
-0.01759456297223517
-0.048594296551933154
-0.005289549506943817
-0.008519912093204449
-0.016999264019729
-0.02065706414655578
0.031701112411620574
0.11231222523015247
0.0572054039391796
-0.04831522229072609
-0.04397078616706891
0.03570573137739236
0.04321842614066442
0.0053716016856419
-0.018500330260850715
0.014432205295168032
0.014512368447813475
0.09319179271209185
-0.058811113528238854
-0.12463591542756025
0.08640936073173784
0.0736202309945117
-0.02703492335408288
0.002389084876588298
-0.013285652247680862
-0.011300929356595274
-0.013744769315120996
-0.03575191755941049
0.024338930551941623
0.027523931778378006
0.014837073945924876
0.038807310156006886
0.024417439225098404
0.028200379240558293
-0.05127993713812419
-0.11453672083003716
0.06314034263988548
-0.015461084836907899
0.012521036223742779
-0.06026689419231603
-0.020131094655542338
-0.028509553740543522
0.0023738614192736506
-0.040129483091464295
0.022789396015050454
0.007356021397859098
-0.013752402400825163
0.015707191401210484
0.048547309163597965
-0.015967705685032755
-0.030933924516499046
-0.0054446814240582085
0.021621153487973947
-0.03107627115971387
-0.052355359339283855
0.010158572031026908
0.01478672280053149
-0.004311901778863954
-0.02039236766828713
0.021222493667875625
0.004242085403080913
0.01709199025417202
-0.003582856931118144
-0.019118699776021483
-0.011496886787584829
-0.0082814948122606
-0.009571448828431578
-0.0030957667861984486
0.002623162661958647
-0.03905133267772098
-0.017985997503035322
0.001568849357927793
0.05619907574569945
-0.006033011042728576
0.020877997952162
-0.018716556147062944
-0.014330143131003404
-2.8087578605350048e-05
0.03326083166615705
0.015704698859799183
0.021283281711613797
0.01770979143034653
0.02710065251382996
0.010398321287800456
0.0822997627116095
-0.05387247881681293
0.07535670091594218
0.16808454640996365
-0.02421115734248627
-0.03855530129054163
-0.05077178652726019
0.09603046848006357
-0.0014088300787419177
-0.16245733579781632
-0.06091716596999244
-0.029596388495960906
0.0027007541816207606
0.02261003132850955
0.00902179718432109
0.011150184708332532
0.077249018193107
0.05851031888202226
-0.015824287978736987
-0.012913142626150557
-0.03564584840417789
-4.5241281745405946e-05
-0.00873731196940958
0.0038267509240833423
-0.004021569565596455
0.016667030454327485
0.01066773554494003
0.009065308103721078
-0.013741575581469793
-0.02885571158346641
-0.017444892738646103
-0.03270953381195521
-0.00990079426686672
-0.00932733549078644
0.01081154524445686
-0.0009894616974309
-0.028178470567101696
0.003759167951576822
0.024951149649541038
0.023000720936096803
0.020506845879436627
-0.003553776759160757
0.048765144454341075
0.03718264395969265
-0.0805202424222374
-0.04987334490655601
0.0047545090535199026
0.02964573413529289
0.0541887272730208
-0.09459835718573922
-0.05255898948191592
0.0057535607756098025
-0.011436898145697393
-0.010355135019184012
0.008721754750091782
0.01903255299289185
0.003929888561717385
-0.009470577560786037
-0.04031952866583414
-0.019389331263359053
-0.0188526931338393
0.020994653410133606
-0.008810597905549236
-0.0952373363245746
-0.02437447065147369
-0.005589147976699965
-0.01985631138865447
0.18709050957651316
0.1561716131973952
-0.010422489850890736
-0.021532411372430657
-0.009600853856292033
-0.10609633927689074
-0.12517414651591757
0.03830420916618865
-0.06396417687507189
0.01201754208200187
0.009396868576893739
0.14820813879722392
0.06598636023893424
-0.03243096874322927
-0.013248057505846584
0.007899787871216785
-0.05210931054852201
0.023639077488316278
-0.0710454911158039
-0.04877264148930916
0.02244893831695411
0.015061886114697113
-0.007423198574570523
-0.01970735285927247
-0.03577531965199834
-0.01528371630480454
-0.006824785832134638
0.009121778700733447
0.012805394276893934
0.1971911433034587
0.015195894110528352
0.05077645456884835
0.04561098835661821
-0.03056083946012036
0.027908823813373545
-0.03557987521960199
-0.026540157399419444
-0.0672716750349791
-0.0740362592588235
-0.04582239754145034
-0.00393234861142802
0.05306423115776985
-0.059747248565477605
0.050858694072089386
-0.0042555852603555116
0.0141708453096315
-0.02137936137925995
-0.03331217139858248
0.11901982841842884
0.011759919420587316
0.005048506781099324
0.07407838471922912
-0.048846204774657474
-0.011998734015769053
-0.022258289830527425
0.05475448932605523
0.07521026360056055
-0.06597126090018354
0.07788087874973507
0.02251344915680576
-0.028097380072701367
-0.005854901706603645
0.04587733926687419
0.04740350548052932
0.02242975712465561
0.017269258465900134
-0.006767762253700499
-0.014237476310079785
-0.1233249111193432
-0.029576974051416408
0.037030376568788735
0.021272964410302225
-0.05558233644114838
0.009050613462780207
-0.039677560908655145
-0.01564309180546017
-0.07122456864961112
0.00017819048378611918
0.04784307237988353
0.05525350529193298
-0.07606162839151298
-0.0773243326557379
-0.024157452120351752
0.021656684053861102
-0.0218764717726978
-0.016204158872712558
-0.01069941447074109
0.07015162747913223
0.046969018931860965
-0.0611638451879077
-0.020205383314602754
0.029447037056686182
0.0011832548259537077
0.06874466246251103
0.05112740377149125
-0.018092138810363128
-0.035779210050350584
-0.0334946926094239
0.004157890355385684
-0.07631115896556494
-0.03082311660824144
0.005325668077384411
-0.0076713729915972115
0.027069964681060252
-0.017152219312428673
0.04302022183024635
-0.06229512204359379
-0.0372514978511968
0.014757624785600387
0.012967715134115878
0.03138522745971662
0.007866581067024337
0.04069410534210349
0.06523700136953804
0.06583490104548412
0.1491546837499579
-0.045271779508907324
0.030364866812211868
0.04550570979001059
-0.017834422477133603
-0.013255573757575379
-0.003899104556558741
0.00020805542354122687
-0.03312939617056916
0.010535451737017502
-0.02092699839173962
-0.14202602117300264
0.012114394487789965
-0.02001962375094118
-0.09067975268997437
-0.022559988295203136
-0.00950155036366067
-0.028404149682348223
0.03979201026077586
-0.01956584748907983
0.007157570342647819
-0.003965457359506487
0.0007322122912260722
0.03302545093221619
0.03370474702314921
0.014878812894397278
0.028875197944528048
-0.004114213313913095
-0.03609303224505211
-0.011748876343659538
-0.00808312175593889
0.024869936550924662
0.08631050361192392
-0.1494833374865782
-0.09577813741838534
0.048871605864102094
0.02337382907140874
0.04087643085418482
0.02492235991545434
0.036059253333587164
0.006250942474252528
-0.008919503057630377
-0.016207841969208426
-0.008992550275313711
0.03940042290914222
0.012378904268415421
-0.021941756199417253
0.025338877981372444
-0.017998259957671407
-0.010205934570114547
0.010475612180731626
-0.0289760191345113
-0.021162537314889443
-0.024664064285492976
-0.006194012729169203
0.02695254745275986
0.1507293662948753
0.003837750896393093
-0.02604895598913907
0.026080304393692372
-0.014324961346726603
-0.005774778191168127
-0.001085617578617066
0.0006867063734797358
-0.00585259329472935
-0.004850149765889324
-0.04281423449189465
0.02114074959531277
0.04632486265944426
0.007540067565545936
-0.0010765355257620006
0.0251319381082739
-0.033665162780219325
-0.16040527203626287
-0.07338335224366521
0.04189682289831487
0.030032657351745123
0.005930000688209352
0.00542946746153771
-0.003169510448691113
0.02995595115107033
0.033376867516046745
0.01300648835703279
0.03297880999593553
0.005096550809912031
-0.01036389137503988
0.02346872298183802
0.014950625026763153
0.014491872389406496
-0.021645833623384274
-0.008383429709848435
-0.004339528933328384
-0.002081803745879856
0.004525287752595953
-0.024897078726982606
-0.02549193767819709
0.04314232362243382
0.008458264881885454
-0.06895460357544422
0.035900937329998474
-0.005093559685566049
-0.007455177322360653
-0.011232754362190721
0.00037872414981579696
-0.024404066967761675
-0.02935617545749823
-0.01925329822863503
0.007536311153304303
-0.008252016454422471
0.0019779940859625087
-0.004355637770853473
0.039054474062754876
0.006463566421972015
-0.03880181483794876
0.004909701138140973
0.004414864382031701
0.011923883806304951
0.0032073434871290434
-0.016147271457931562
-0.02519932068113834
0.02805161384235728
-0.012089289203295698
0.032221697897099104
0.029657456901968256
0.04558641951742246
-0.03768305433897536
-0.023867637656397937
-0.004355164872245594
0.003026356543245238
-0.02055678827452446
-0.030076890996806223
0.023899801187300385
0.02907944577878319
0.006928505873733828
-0.004635925062434405
0.05020216396627335
0.00998607458051623
-0.018048807433415567
-0.010295467115803375
-0.017888511545892556
-0.0032135923242954815
0.006556377101378067
0.0427899081898263
-0.047390709139131064
-0.01344796947854416
0.1559274916673504
0.013420883469493404
0.04897623642964285
0.004853226497881528
-0.005112250799339537
-0.01779479394201305
-0.020193680985848835
-0.023189442570777947
0.018484305828240837
0.011197431514747556
0.007325362760480161
-0.006847694207174781
-0.012838199709368479
-0.05045944007635362
-0.01680656122293221
-0.034921183019135174
0.10031941848635922
-0.01805187091112658
-0.17262865279554052
-0.013706933838045596
-0.007175664680089018
-0.013551880570335292
-0.02291492041941327
0.02386586459022135
-0.039293647534592815
-0.019866207752534035
0.014280975455393285
-0.0170676300685372
0.005403208074809868
0.031012435693939622
0.01628291688334087
-0.005572287168613898
0.015251287803331947
-0.02911516113567995
0.01970866955454692
0.062424058936081654
-0.06939993538836946
0.013048272084846314
0.04850182977735689
0.007555219488692066
-0.003350031967662837
-0.0014389481975059328
-0.052997607269577564
0.0009889671423999062
-0.00581603690148058
-0.007271931510468631
-0.03828006630570506
-0.010131725122838683
0.020918504284615214
0.004458119975745333
-0.065422617707056
-0.016328440220360188
-0.011110123046469035
0.018559052928584136
-0.01920055724825668
0.02151050455084135
-0.018613593373827553
-0.020070892862886026
-0.03506891274728201
0.17067504493676658
0.006878389043741163
0.0865790416428342
0.19675512969186337
-0.040956970939860254
-0.08397098560062434
-0.039944576229609986
-0.01664769688278906
-0.005397801075943982
0.0984553944767264
-0.005581753627813835
-0.07143306626583693
0.14316083690383308
0.11829560796676872
-0.06112376920271271
0.03769667578611123
-0.060687414794945965
-0.09997156526622099
-0.042826999744887524
0.06266840914865345
-0.02505730151370242
0.0166146221299843
-0.024544160936806007
0.021985609886935913
-0.021329093865603006
0.04373725570460121
-0.050486850689954
0.08449063718464625
0.044522298486197556
-0.13135555371533428
0.02522373647280983
-0.02709176654926105
-0.06703133836516523
-0.0074645221455253985
0.01656518477011919
-0.05297256824909925
0.012982918639327492
0.03250134228446202
-0.030521687168350926
-0.02233552946431178
-0.013751104195938411
0.018094561893955113
0.010280823628667458
-0.017045506137287968
-0.022396258452456592
-0.006801303899197611
-0.0699465149832601
0.010307332520517524
0.13160705655328642
0.044494214125954036
-0.02284049215754526
0.02454602252868193
0.041313970778792584
-0.036477766283451
-0.13746878309276667
0.057578401683759425
-0.03976100572099875
0.02294562016623905
0.03497300581824068
-0.015359422446723265
0.007009248047772166
0.0022381487369374253
0.0028944409218556832
0.013431604094419217
-0.03384601454084623
0.010808487740244156
0.02314521552616002
0.001520437619465396
0.015132075637759186
0.004937716436398591
0.011243654657253263
0.030621064769569568
-0.006864805228303113
0.015393791540971476
-0.055427987920637835
-0.0521702896216438
0.017049341351146587
-0.004056862209841144
0.026522503101132296
0.003877269858731305
-0.030117861818376147
-0.05848260902305939
0.0035014183587770693
0.012305776126870038
-0.025087865559721766
0.0429617688636474
0.061958262612793344
-0.013036819051995677
-0.019666796783695477
-0.038763660037376704
0.00548460794032951
0.03717978188405214
-0.008712993407190743
0.012635251682634685
-0.009534843853135978
-0.050595004365663526
-0.02286776623285883
-0.013715391735557877
-0.019223534890803567
0.0037107101013119357
-0.0698434501032542
0.05699291832489426
0.17745420183753294
-0.06003868126885948
-0.048508266015242385
-0.03140707645182007
-0.018523447640531956
0.040756178659872966
0.028835592379512092
0.021561694894446377
0.01727068921112498
-0.004944916862105938
0.00012066902499086523
0.0031111918271631354
-0.03755361688646958
0.0018943619809686319
-6.080461183810038e-05
0.00475603976862294
0.004179491067434038
-0.015127635366198617
-0.06262974008481328
0.013454731239238307
0.056062487036134506
-0.038787566074020376
0.008135095101391739
0.001377904907745582
0.05894311743648131
0.04088212197720526
-0.02713145304924244
0.043772990376005565
-0.017876851300767257
0.029981607071990966
0.020501814891847985
-0.029587290135447343
0.0015159151771951746
-0.013595442116451271
-0.018747669921249398
-0.020602904218260377
0.003925190829955181
-0.0063020027760408845
-0.03792995353813692
-0.007484871662878181
-0.010130238858721167
-0.021739492302703382
-0.0004682020657028804
0.01096692135717597
-0.011085851617327447
-0.02070922205035407
-0.00449662464744952
-0.029995979580534807
0.01465353866148086
0.022466141177833843
-0.0007165296064333181
0.03328956236146976
0.13826652264763767
0.012480113249432889
0.05439966155909048
-0.015666094501765787
0.04070815232150197
-0.005619054606599361
-0.05208860102611356
0.008269488250093064
-0.036810367460623224
-0.03371680546209587
0.044906210448002526
0.05813111014494788
-0.010436133527670583
-0.115722287433293
-0.039411802682721576
-0.014083380920233911
-0.04064467316953529
0.012307790585058808
-0.0013638928366779312
0.00578335996036886
0.1444810038514958
0.014709092101760426
-0.017903969412443765
-0.0012735159032828524
-0.03690865697529716
-0.0048910876786981625
-0.018562528695166055
0.007118151536134104
0.012081267596568409
0.014998764345557747
-0.01410906521175211
0.03604903191081603
0.025684172608819947
-0.007655515928091806
-0.08327114799887342
-0.061317394683594935
0.007847048034997495
0.006191399383315281
0.004715720374075062
-0.006467026239771033
0.044597618105325865
0.025685377558940927
-0.020893876286597994
-0.0013292470464976373
-0.029563711145584096
-0.03548678024493185
-0.025571974784068814
0.013565792160715582
0.025001858895486107
0.02523623368163142
-0.029720140500184115
0.00352022606684543
0.008941822428983016
0.015699410641457162
0.0023282167324700656
-0.0184399384668379
0.017805326617949962
-0.010677103448265834
-0.0036391303082950626
0.01819231353834002
0.0032300188079807893
-0.035723415985058286
0.026725648569692464
0.0017937525357021266
-0.01567622223641615
-0.022962758394269856
-0.028314897352175072
0.00033227342089296036
-0.012844065395349652
0.004551385652322136
0.04985303438430947
-0.006125980024717485
0.004330565322153875
-0.003596907503691099
0.016732268782104338
-0.005585148972395906
0.02500709981780436
0.007395155585761939
-0.005340984364215075
0.05049695807811124
0.023225858219781563
-0.005490952751890095
-0.01846358926712736
0.01105924565775149
-0.006783015660339506
0.009329090571152701
-0.0522572014104492
0.02917859790981194
-0.052925097669476735
-0.02099401883479673
-0.008884346237954005
0.008786256209303801
-0.005088616092849256
0.026235757386217074
-0.014422059460553126
0.03594839261133089
-0.020878671020561717
-0.022295202769071848
-0.011536195582503678
-0.03236411703227551
-0.06633465003084135
-0.001108866782180151
0.04367850730013711
-0.019743152349083047
0.0227863076787794
0.0072431600113665225
0.04487340073109089
0.02079994845312065
-0.023646388230731247
0.12468755640377283
0.10200182362221095
-0.014390205572587016
0.053166766383161326
-0.10844248287808411
-0.11128379032661831
0.030566766275547757
-0.007752407331680836
0.054345326691364645
0.013037481640225461
0.004524674209910328
-0.005636090065046921
0.010759634234935882
0.012157404877465748
0.010128230365810224
-0.07970871716905344
-0.03120585003434964
0.009338521479929977
-0.005386441948081879
0.01639736080866892
-0.011212089467005477
0.010221525287248763
-0.0013894559951282011
0.005551506306262358
0.01716557761541146
0.008330254257705392
-0.07730209456143854
0.0032978148223959604
-0.07604408411324626
-0.03671826392264762
-0.005260612475053123
-0.019211511896314735
0.005955452917093762
0.05480866726220945
0.018934818541948863
0.020507518604587764
0.03979453107468854
0.010814819774678507
0.03912630775035614
0.04834369008530703
-0.005511077717441743
0.02664298211830318
0.02849394833456538
-0.00392908053145189
0.018299974184398438
0.009528581149487429
-0.157775992137835
-0.0004437977408851463
0.015169948495335562
-0.021874470373795148
0.0015352621454053053
0.03147489404709064
-0.012092210393623033
-0.07555005577626117
0.05398478136589601
0.011896721928484079
-0.02880454707651773
-0.008343019821333614
0.024049326637655966
-0.010159146306174772
0.005186327816084414
0.011693688679566105
0.033413740551010776
0.00035253789861172365
-0.01726528248228605
0.01912963242007891
-0.0020964479135623564
-0.02961120329122057
