0
-0.005302425445905616
0.03581462835492424
-0.02566897527145082
0.009688883700046606
0.025868936232900333
-0.025334902537634468
0.012882912571328889
0.0063543637030583425
-0.00827080887402802
-0.034332763400227805
0.014597472167816029
0.030989071262966704
0.03447188886008849
0.017255999977706587
-0.0298444407902243
-0.00360913432775608
0.04750836702351735
-0.008347157629082681
-0.05192751548107895
-0.02080512274080732
-0.019602057365747976
-0.0315049747504904
0.0066734148850679485
0.026646080866189373
-0.00855317428583541
0.0342924707254017
0.03717195881622921
-0.030768795506994087
-0.01897372961779175
-0.01612693506590357
-0.008302650289995201
-0.023474778750665785
-0.046120350496452876
0.013958684575140837
0.0040946688758563944
-0.0372379047342781
-0.020167380116678024
-0.022466247905448804
0.0042407722707618846
0.042101990515864864
-0.05839281501369267
-0.03402240765624215
-0.027712258150669623
-0.0002489115512713662
0.012801319376953777
-0.0002508050381135753
-0.04248183619745855
0.006781770950909507
-0.03589824359805414
-0.009464214702520785
0.027675371781797613
0.025580656874140417
-0.00988527567665854
-0.0062269322208911675
0.016014926776579116
-0.031190009538606078
-0.029068107609375764
0.06986483101622552
-0.11793502041124558
-0.10346202528299678
0.08273828882657817
0.23754320068138932
0.0657762139330926
-0.04192083586418369
0.05343679243852961
-0.015037159507806824
0.13135294774297543
0.10170125623740982
-0.03456643846146135
0.05438095791241028
-0.0003578518943799959
-0.030848325896247555
0.004728658712235937
-0.03547888628585041
-0.012637084906274264
-0.022453252143827134
-0.03934236631978642
-0.014767580571107802
0.11589740182960825
0.08923741759661777
-0.14787342398962644
-0.10533146313536834
-0.018697197850081476
0.0017939708561394159
-0.014991297844374809
-0.025351537060385287
-0.03407235261989276
-0.006513728312759798
-0.02297389542924549
0.03142317504871693
0.021804422919425637
-0.031172618802209395
-0.005897959188227264
0.02500954487040895
-0.027954155194813007
-0.019464249345841976
0.01218370662764938
-0.01940089474577912
0.05102535789002999
0.06703353329431748
0.024822669146180792
-0.036008189941050484
-0.028425794002222518
-0.02435123133320451
0.0034286577223932003
-0.0036315602428849667
0.026425368821847345
0.0030696278186468726
-0.016135215342147277
-0.026314451613257038
0.022575591474277634
0.027103418649366346
-0.03671814272453207
0.009015870080299358
0.08433582075885769
0.05441521903718519
-0.07192404712161607
0.007614287059178498
0.01352572529932611
0.008748930635844959
-0.012600872727126162
0.011730673688607276
-0.017411818826888133
-0.02618362351758322
-0.006490150135216845
-0.03765942016294083
-0.025650792909814077
0.011069730669078919
0.0041336851145912954
-0.0006349175774160249
0.0509196446340844
0.09156924352587452
0.015229142828872326
0.007394309966261453
-0.01104783500085787
-0.021905995617324116
0.02189548227389513
0.019606042118993215
-0.028042168897244552
0.007304619665252528
-0.13295761730743902
-0.04255875292271595
-0.01828307987101248
-0.04307368525561295
-0.02809728368740118
-0.012494984104506347
0.015687273667758423
-0.024847124096976186
0.0036669091096220166
-0.009230156703502664
-0.0400656759901973
-0.059663964282556665
-0.008196725132620682
0.06097881973495014
0.041231014593341574
0.02664427673320983
-0.01325904347850305
0.040301787501014735
-0.014670426120636995
-0.02295351064534064
-0.007710316809831462
-0.021343802396507103
-0.023293046617925445
0.030454584161413462
-0.021310211221153997
-0.005392174436444763
0.014086180230127424
0.0360633906083465
0.015035413877034996
0.09539466611999982
-0.007114890923597949
-0.0008366563382102122
-0.027287058858205135
0.05885901935003309
0.023169176952083054
0.07463148321647954
0.12133897297691479
-0.010584313867521535
0.016454743757528548
0.0029093779843472646
0.01657277776341333
-0.022212147878584665
-0.13089340298405497
-0.02320379576230851
0.1668147700125082
-0.023809921180711218
-0.020472076452258296
-0.05020840933736318
-0.031484985709119305
0.003710872449163823
-0.02362226950074092
0.018561642202826557
-0.008273516150117694
0.0015083206857014694
0.028131200577050368
-0.03888562992374721
-0.013621867716213933
-0.03073406671264637
0.018025541090020556
0.02380241539418714
-0.04784744160959064
0.0036452876670195525
0.005964295903941554
-0.03051962436460605
-0.03755598083039062
-0.028004219927130012
-0.010643044670968682
-0.01586542916525232
0.023291028878672217
0.03548003151591521
-0.021414614586864188
0.01925692968339967
0.014274976841595973
-0.016337605175448206
-0.06326041004306403
0.018579572102697034
-0.01074740723672717
0.05310725911437242
0.011301393460027197
0.04001737068113571
-0.010780937253449497
-0.009994537619579746
0.040884178515001826
-0.03564621301778661
0.006361277570743983
0.0016921363664482805
0.0024272576081914086
-0.006763290227730822
-0.023694818367277035
-0.03122406443916716
0.008301725514818819
0.042202589634619904
-0.026044533617991573
0.0021659788555566314
-0.008907834829407504
0.039708196983671666
0.027082958051367897
-0.0012062644322626624
-0.0011328919595278535
-0.012759905460375162
0.0034570707127240165
0.01174224029951591
0.001834655452438355
-0.024091383642379317
-0.0013534182392807921
-0.0031759902038410613
0.006473864219307534
-0.018035011389916457
0.018156471117924306
0.025838487957096715
0.0332665468486826
-0.028510885650147238
-0.007765664140923852
0.06340107834423671
0.022020223712742332
-0.008182524213863824
0.0034547272186328084
-0.03166531592894776
-0.03309311589437539
0.010538764017262543
-0.00395800241815127
0.02240226285475899
-0.0611384985183019
-0.10254318607094111
0.052179457021133975
-0.01585653492825803
0.00030953684166870474
0.0004003235511439718
0.004271186871327196
-0.05236631934030938
-0.014630316312277068
0.023490655061346913
0.02667101030206237
0.03349080825379463
-0.0024883543697119125
-0.11405710649006903
-0.07888846193583818
0.001340766770126055
0.020272467066291332
0.13079886951821793
-0.006949989719657764
0.0184431992093574
-0.00552860770882457
0.04226289635660243
-0.002477592658258385
-0.0050635669559263435
0.007400853121741901
0.007079120127464057
-0.010517612169934451
0.041562954330605806
-0.003211867062190309
0.016067250337027595
0.006240801184576858
0.005863428512746894
-0.017485953562613815
0.02606679901505662
0.06413912494756255
0.023426543799943543
-0.03835125077699503
0.016648466334822712
-0.04484511320104847
-0.03189943563081094
0.04569109402560459
0.022684707068654587
-0.15805923890716753
-0.03386454256554256
0.0793089243257239
0.0066989050867864285
0.007789921703734039
-0.016884902223715737
0.0029619117253064124
-0.0027865605412068666
-0.010458537775260913
0.01579486964088867
0.03673149568099921
-0.009294605116340773
0.04165665474821424
0.0050465930192821785
0.012454067509689838
0.011482619569110598
-0.16030507096816768
-0.04508221541465061
0.08793539242425696
-0.0141440409490391
0.010206345812447525
-0.027153680016861744
0.039604808509359546
0.004876396022548634
-0.06421877091206848
0.027783681276709715
0.02811250351195799
-0.03753429950539348
-0.04976250388418046
0.004201532742101042
-0.001540580935227283
-0.014300626173858107
0.0659623232982193
-0.007271885639618504
0.000160415105352039
0.03656376463550084
0.03216954007124127
0.005074126410325883
-0.09091654683553722
-0.040351518238570916
0.01012026902468251
-0.003573861151587021
0.05293594953105967
-0.05734624012142883
-0.025640399002639182
0.018509294121437567
0.04811828196737204
0.04607317511654065
-0.02326303560427096
0.006486130252457661
0.0024133423122245272
0.053989865545548486
0.017982366535744178
0.012211004190472812
-0.025826283166941497
-0.16749052061187247
0.003247290100308917
0.04798171908644215
-0.037443982220946574
0.0738451188242061
-0.002258829860331732
0.045330080481817275
0.07940552987965681
0.013826072304047352
-0.04345107514201003
0.09298884453222486
0.10928500352475878
0.011773128320172787
-6.859714767451177e-05
-0.02612858066808479
0.03228656055209311
-0.022789880685929412
-0.030581305186549956
-0.01768976806032795
-0.0009666578981487618
0.0005473323559185027
-0.10796453559870739
-0.009681373771781918
-0.02022736218787554
0.023399713758445812
-0.038778183899629275
-0.039559976115536626
0.020768357142016015
0.015368746108333867
-0.015445063669402213
-0.021651376226427196
-0.0035004876099866706
0.030679260523777882
0.01566214669881685
-0.017579638548395095
-0.020576408718832415
-0.034401364551113894
0.02404012800284907
-0.011984338996175792
-0.04549367760419226
-0.03028199903981381
0.05048345051917268
0.005132365170661931
0.06312870136786335
0.07048838930603264
-0.05462773046981279
-0.06042032029311259
0.03495598327753307
-0.053754649238832414
-0.131812878109253
0.024054916904585274
-0.04405018958840296
0.04237362026370152
-0.014975531231934184
0.050913703756559785
-0.015460998165236585
0.013911102897001924
0.03559865518615927
0.035424715153864555
-0.12221710394658024
0.11934050978384549
0.08788869558855203
-0.022984439201155137
0.005541252874608231
-0.02385480821572064
0.04294356877130612
0.010928584817876119
-0.04381125905167039
-0.01952451833803127
-0.03497222634483979
-0.08699147387051459
0.0050489717654495295
-0.01859252758724152
-0.0003748370048508365
-0.004016408953100237
0.0887995446415428
-0.003943968834233667
-0.014049124053079273
-0.008251784766557866
0.05060770570123548
0.013072800329116124
0.016960332959219664
0.018349197313811613
0.0004954090485051843
0.0343234625292169
0.017623610453906164
0.015799921525925315
0.020981303230036157
0.06317019890657156
-0.04884954494215455
-0.039796359718938926
0.024479357360950527
0.006212946809919653
0.005403835834081389
-0.008053688114451563
0.05354551060873138
-0.07793164525054248
-0.018014530541871913
0.04914012583464792
0.004023972917450803
-0.041451941982239546
-0.0014295367778742283
-0.0408504869500362
-0.008875169186939081
0.032393413200361015
0.007832361254657059
-0.014984331743410472
0.0061884180132370835
0.015954232905076304
0.0029854403973702866
0.014191050115763677
-0.0431589260019763
-0.10883113850247843
-0.017030140326790098
0.02442530558683001
0.03711716251460898
0.012903124718596117
0.0364571501115789
-0.01462233537510533
0.008508419827463332
0.056925744574917184
0.016253896363757594
-0.013853344230124765
-0.005370857772975617
0.003021206576415257
0.00398532903118026
-0.01147330635626335
-0.014540706905662174
-0.0004018512281497217
0.016423598567801442
-0.012456074532140874
-0.018187370269936592
-0.021044443531741498
-0.013345047795415597
-0.008148580015601339
0.030186869369437565
-0.025941242622380435
-0.011249521896014901
-0.009549715278333067
0.0012438821610310329
0.0017448017985073055
-0.06369141340877958
0.016266065341620645
0.027731947182148133
0.03530511564992554
-0.04200356025471677
-0.05333361963354868
0.006377906424266788
-0.027690829455213832
-0.11183939952665502
-0.01794241822733232
-0.009031175165261694
0.10780267722386365
0.03156839600609753
0.017762630254997913
-0.04934657766101662
0.02391477333514394
0.050596649447148784
-0.020242285535481817
0.038521751787041494
0.14625382944355034
0.007705296627535424
-0.007778065761995281
0.02623911796036495
-0.014090329943657923
0.010716388822049389
0.02192648450154742
0.05938620828454912
-0.014180990488951765
-0.027417842343855865
-0.007991819118085934
0.002116963579599718
-0.07279561617768288
-0.08236733247634577
-0.03599769826343398
0.007126153668603523
0.041514721510547234
0.019305591564890874
-0.016668846894981073
0.03657866442439403
-0.01709804388478999
-0.009708268956791707
0.004883637178553417
-0.05927463145605201
-0.023734335099724467
0.019985707110533248
-0.013849584620170467
-0.006221140945854253
0.017927529548099046
0.03553766488412334
-0.013394803421986208
-0.04614937666263644
0.005085135830316619
0.026858634034801092
-0.01370901985590954
-0.04496553427316073
-0.014236685535019056
-0.00974924606380874
0.027726299723259545
-0.03922536716852098
0.03412215806636175
0.011315988744531193
-0.005267177230881292
0.006544870378513309
-3.0918567825047776e-05
0.046798173967634873
-0.06427944957193964
0.03523990004833497
0.05044691389901171
-0.002619957924552958
0.01622629642768081
-0.01640798875503998
0.008119010637371016
-0.02993846928372123
0.10052483833310333
0.11492784715708565
-0.039778086041626845
0.027959176588837086
0.012986243956134328
-0.024932611224295017
0.023119819106068105
-0.01747841567900076
0.004567273836475852
0.000756542048010479
-0.01749657209114736
-0.047681729872502424
-0.008190548691061459
-0.011058285180044137
-0.03814431866677858
-0.015671801817198402
-0.0223302972452815
-0.004008415004264108
0.002834683812779684
0.04378082843351987
0.025435838173177638
-0.027426024462322073
-0.003632981125410356
-0.007165556136309963
-0.036160063993127746
-0.05204245309705778
-0.02637278644023469
0.04814820436114674
0.01702812981820888
-0.05680401222524863
-0.04372104604162405
-0.046083021621140995
-0.019601602529547218
0.012128838933167175
0.0018165059353546416
0.04919476444515259
0.01918778735269863
-0.013426770419090097
-0.0378313322734092
0.06599350036719757
0.1564849116810384
0.007838516266275589
-0.018329402588312425
-0.009469849048003378
0.007366894445314562
-0.025823727966334416
0.017246046057269263
-0.0067136405507487685
-0.01698578378442298
-0.005218883262136548
-0.022930357333633432
-0.00845355491238737
-0.03414985612398387
0.027728202112907795
0.042969771005066534
-0.008471331964524808
0.03942787481580699
-0.0003235114525210704
-0.030869734346140695
0.03447960634656057
-0.0027493871095424552
-0.028339187491072095
0.015668651160674098
-0.037804361163776085
0.03519327769747389
-0.005945666158657388
-0.04538136210281581
0.04441148788268061
-0.06887113478228399
-0.009997383922132197
0.011712651254286482
-0.002107121153463915
0.0161995076893045
0.01926723240146234
0.014950717482332234
0.0007777801698217692
-0.017034311773925895
0.05316703964972255
-0.012512045716947551
-0.006058791852427808
-0.014343592983191867
-0.00973026784385606
0.01399912963600487
0.010284223038551702
-0.0002799042702346013
-0.001996866283588506
-0.02558242977793466
0.019477214516310085
0.02455110238345776
-0.01448299232583183
-0.011613438028788186
-0.0026606693980245288
-0.014561842632363473
-0.01198862137670219
-0.019868028984438027
0.040583146683298724
-0.0887216076428985
-0.0993647164671654
0.02160654195224461
-0.048315444700769115
-0.006957207199017599
0.010391998200512344
0.15576567412219808
0.0297532585371101
-0.0007378639049924534
0.0010918789084135578
0.022402605294302786
0.010844421256636
-0.0019590518925290488
-0.0007815988216810851
0.03221991965490091
0.005924316501658716
-0.00419371046687395
-0.0017101986956321671
0.02336552416329451
0.0072376506420653505
-0.015644221586352536
0.01069137294684435
0.008156590928535911
0.009707608131861273
0.025193511386633012
-0.06218789034391502
0.0005163087621907326
0.0452647220168556
0.010828991249479584
-0.025983546419857596
0.0017226662709856793
-0.014160597385490267
0.007690305853505632
-0.0021247733173140795
0.007166503035439753
-0.006255847792664837
0.00333032313130756
0.021974766407982255
-0.05941835802420503
-0.08214414190473818
0.02148998676337413
-0.0067567735958197536
-0.026750696569940263
-0.06683958067179394
-0.026937780850408224
0.009504959615754817
0.02450641110190017
0.023905090037223572
0.012268562181691565
0.04796183558300166
0.011374847073236967
0.0018436189439858576
-0.01320720424907792
-0.0032273139230333424
-0.02689964464861563
0.004462081598640323
0.026303759976250556
-0.0032079598294368792
-0.012926746231056538
-0.009391556465509151
0.012745899573179285
0.031860441241762495
0.009728545263794441
-0.025939886909073666
0.014799374542843892
-0.005363838082608229
-0.009654147426123702
0.005004925469940515
0.006275632380525175
0.03184939317594119
0.0028676367951958616
-0.01571672382198901
0.027936811302924587
-0.0017700225832750088
-0.057528429446588245
0.023444050689770273
0.06869421327848581
0.01238751563956402
-0.08355079846540552
-0.049503958277790874
-0.0016478447144312413
-0.04381213256775627
-0.06282918557245212
-0.012289662428760364
0.03769462773976355
0.024831227360076043
0.01076008840967328
0.03710018367784776
0.014881649360964574
0.004661684219412583
0.030225578656394275
-0.011846435911227278
-0.0024059506057632508
0.005191896727899161
0.023415098125968693
-0.01453703600124486
0.07308231818998821
0.01621793127100599
0.032234307999870454
-0.06765772849252451
-0.10294568491755823
0.015260929367567328
0.014999487259581154
0.05326088715279245
-0.03289315889636681
-0.14759185401697328
0.03363607688292542
0.12014884134122339
0.07998434438260453
0.021777376475474886
0.06334116453320894
-0.009112275992242647
-0.00978023559893483
-0.001619044319542917
-0.022959381048466575
0.017654673779747495
-0.11992296117428278
-0.02750759434381823
-0.0006614868730623922
-0.0047044863298727
0.01937647072533241
0.17186312329686415
0.05804785147307745
-0.03146625962698433
0.006245641569455892
-0.004791973621120288
0.028911454847178577
-0.014292201097994502
-0.02584507720478574
-0.06191033551622266
0.05021495844875622
-0.18414698617282846
-0.05994755781062066
-0.1048852700097795
-0.08070327735320176
0.024604806333465908
0.0050221234964738315
0.03504963795724598
0.01246977944687696
0.10564823094077128
0.002339225855660806
0.013272465408593061
-0.020812738555147436
-0.0433437500571205
-0.06581468135488801
-0.009732590536798464
-0.01630232347411834
0.023975725739509766
0.14555040367692654
-0.0008737949770919096
-0.03805182576970973
0.003874449074477747
-0.011977254940640825
0.04042659780009446
-0.01479896038525549
0.014976588104364101
0.035229060963518126
-0.03281197885508751
0.0031820478774443792
-0.03455374615379538
-0.017824140467962147
0.009900879520295612
0.050135151219524325
0.03573503107161058
0.039657057578016554
-0.00013613447420360194
-0.01053266188021625
-0.050201978378177796
0.07642102687069781
0.07343749055847398
-0.03336905845033906
-0.004536503326957528
-0.017411736603106458
0.009755532728100555
-0.006144185395832221
0.013778706547253619
-0.031719630091475035
-0.02008674996344998
-0.010370781732778942
0.0467657951486575
-0.0017761305080389654
-0.01320170133349977
0.00867566169445391
-0.01306678568502106
0.017524412744631082
0.007144564204569575
0.018544216768307833
-0.0021993396979878553
0.004548786804856981
0.05856207886517261
-0.05335270345926526
-0.0004803664619433952
-0.14779573033003784
-0.0841392248584774
0.05564479752764085
-0.004895284136142145
-0.04619036788505727
0.01503449947557012
0.003824218436222025
0.02622445772757149
0.010450913477661349
0.023280058159207737
0.027437449812810773
-0.04307467337216352
0.010298470866937958
-0.03268429592637205
0.01809960114333535
-0.023615931258270585
0.04429149568973168
0.06226632142056494
-0.026564199815565598
-0.03992812532752951
-0.007871222207337778
-0.016322708620095203
-0.004943485954390629
-0.0071853088753998364
-0.03468205023313658
-0.02001373631786835
0.0004546882916586859
-0.006157877306575183
-0.010286786017231372
-0.007386252533562744
-0.023358021850580855
-0.031530328643422256
0.015159346165599613
0.023646481687855908
-0.040545307167364195
0.05414839860115993
0.12336556841665021
-0.05820569162302984
0.0778163954689456
0.15315182898106905
0.0167923868694829
0.019407120197315053
-0.029451647800098416
-0.031866626270230944
-0.010236743006705596
0.01593655244180299
-0.011137106674571908
0.009870840073216203
-0.024033219024133544
0.04434622004021909
0.02694732168249537
-0.015634301775244726
-0.08850063380896442
-0.020432575189558128
0.06586382190145268
0.03427803885359433
-0.016809644395405242
0.011723053401610749
-0.0129595816538039
0.0281392881334707
-2.444124393712405e-05
-0.019298634221071073
-0.02089772451202927
0.04531609078749508
0.029065921895060947
-0.01680859913787257
-0.13395132286916775
-0.18714803843076983
-0.008482039251209605
-0.017192276496662277
-0.01768241903374801
0.0015305180935537349
0.019803927525939388
-0.04609027162518471
0.017724056968060592
0.027876504222927243
-0.016253238536374778
-0.03230065095173655
-0.007096844010279663
-0.032305338716076604
0.00829535876569401
0.11124023903313206
0.169241440859952
0.09428897311576508
-0.04882147448807818
0.029661415018732054
0.003226309573415513
-0.09506102385402097
-0.024350538924882384
-0.004607290558851251
-0.01775311089388501
-0.04111807782193553
-0.009137909232127142
0.023292362666545288
0.019228258667313303
-0.020895007791544552
0.013990308357411173
0.026040956143018896
0.09394313396815127
0.08089057459285891
-0.01874003853196285
0.04808863718999703
-0.006784404626557935
-0.015907572850157994
-0.005090028736757594
-0.004636407463094534
-0.00023587958714340224
-0.021680916855303444
0.00024687467247254787
-0.0059431987183151316
0.01100136224483873
-0.007655252520035228
0.10183735916246026
0.06286839775825652
0.008115928637122403
-0.06572590921140069
-0.011246010460435893
0.006508458573085876
-0.10309585457720437
0.03643624354749548
-0.06282376964787707
-0.03560752921470902
-0.017046639989251794
-0.03892190652926206
-0.02074296918701263
-1.985152828347671e-05
-0.015756476184704788
0.024110168668267585
-0.0057149351536511855
0.014216339861460078
-0.037597554273427786
-0.02217127580858095
0.011122770788020023
0.020121068667455957
-0.01433064288305974
0.010046510075911504
-0.005500102465678592
-0.014796320585995306
-0.02094156174419734
0.029158564890401223
-0.02621948722564046
-0.07367876778153898
-0.018789250482301473
0.014551013446698414
-0.0852565959451778
-0.0036044564271268753
0.10840906512904536
-0.061775111192408846
-0.009314694484445295
0.047508389604327024
-0.02433974700932184
0.016912633965047445
0.017936323041730984
0.02413972561798494
-0.06831164282004638
0.08631961841741961
0.1056492505677662
-0.058139130243546645
0.045336230570113316
0.026766939028810444
-0.03542446583697805
-0.04361966917305288
-0.05273548063790754
-0.006445619019611725
0.00607302108671022
-0.0039004818345474714
0.023957138645905266
0.04710644030415047
-0.0027644001870097213
0.0062056432208089495
-0.016565322095632076
-0.01751515366569266
-0.00016327700289039816
0.14950688553235636
0.07126145637934851
-0.05760580062441758
-0.01572706987447671
0.018573388477925112
-0.0012486747202999494
-0.02293096662777503
0.014215148339560963
-0.0057323016530115385
-0.05778612876298009
0.030906541109808415
0.09117951551791441
0.02147807554488342
-0.0018596655828674819
-0.014922175685277999
0.03181804388669006
0.013929876677168692
-0.12000300479665767
-0.053771778634290175
0.03654002531729089
-0.020736267088830102
0.024038085805216765
-0.020058511276496594
0.03860859083294154
0.02268863837609302
-0.027983138932343565
0.009044795997430067
0.01727530481556155
-0.02885700436147218
-0.01623117449319447
-0.01835213868119047
-0.006575856779691961
-0.007821921772581888
-0.06284214425286248
-0.027121999547684735
-0.008368836824806521
-0.037156645221902686
-0.02386971721456632
0.008847231258081878
0.021598059449856453
0.04652606000806009
-0.01791753943532317
0.05081145637637912
0.036376264483043444
-0.031159056682705515
-0.0007910265736615616
-0.01963083155144982
-0.013141537318543178
0.005538784230119747
-0.0166075835797925
-0.011431632793808546
-0.010862504213239262
0.019513804480678514
0.02826455369105893
0.018890379506576786
0.004689546060161407
0.005599827474663752
0.1456849157501377
0.020787706126208106
-0.0175432636730175
-0.008618472963429059
-0.01267391594456067
-0.03582621727001029
-0.030925128294482396
-0.0956261644002584
0.00231530265537924
0.004815998081628651
-0.005886208224568037
-0.003487783720114591
0.0033258218226405326
-0.02689170563649673
0.015024476636933246
0.018877385697930547
0.035128828083967924
-0.01399766849261592
-0.025745880596086235
0.05777382786338983
0.02434130438002294
-0.005657976442758078
-0.022560610233687366
-0.02527661407388972
-0.01634447789104382
0.019474182185957884
0.02372132671460026
0.0206029636173946
-0.03413394461121084
0.0014261981333445668
0.004712333316696066
0.0247077100596271
0.02801055543180125
0.011951621870418448
0.03760438823729359
-0.01437626830358325
-0.019228109379348032
0.0019823790194164323
-0.003952104998113994
-0.026896174891804736
0.02207256743720165
0.039559440955679766
0.01747408139637879
0.06868866634346894
0.01520718620619101
-0.039703691645733535
-0.021261081213537883
-0.027568827986642685
-0.08171752634298504
-0.037166886992363715
0.015536023789772074
0.00891245694177947
0.0038665840667205576
0.021487107692456223
-0.04479265513000611
-0.055833920792856935
-0.014665834402334318
0.0027395539643210454
0.01417202174670978
0.009525806270433146
0.030221860437180142
-0.023220995934498247
0.02063024929713288
0.03490789533507527
0.017925442674034932
-0.004026880015155964
-0.009054379020036
-0.030095803835739357
0.0074204821728894544
-0.020947869660984334
0.011130617606832581
-0.009741567349698131
-0.011270338692113779
0.01638214261574218
-0.010211321532608173
-0.14295941096088635
-0.001683119397595706
-0.026652151359660446
0.02619148703228543
0.05384282732681702
0.014581876290173315
0.033850565710701
-0.011811781951543332
-0.027606058273352302
0.0031875987197404285
0.031946301004867006
0.038583555261684034
0.04566920717431417
0.015651558003423844
-0.006240383308576848
0.02936722292101239
0.010965051167793975
-0.018540175938371237
-0.002550247255672401
-0.01894599344285357
-0.0009121243067168975
0.0011941898671268857
-0.004663868395001367
0.0008012952350297995
0.011883248758301638
0.012004534270986562
-0.022938125882219905
-0.019513673690233938
-0.00934847799015846
0.030128543323960984
0.061123507522409554
0.047528497391123546
0.1675677386698579
0.018218689636633808
-0.006738790242628335
-0.07359913574535847
-0.056863252377251663
0.009695636161258778
-0.04154802053264681
-0.029320705332221426
-0.20092373995447171
-0.03717881087377774
-0.012022752019607345
-0.0023888558218651823
0.012209222541312393
-0.03340706310249869
0.013762066276451136
0.0234989017474137
-0.018633889414117498
-0.004195230402681911
0.003933069541423551
0.007550860336468473
-0.019083758276798337
0.016220960619550247
0.06415123765132252
-0.004034470855363248
-0.015901181041232962
0.016727391737844755
-0.021768018806624805
-0.010703790256024201
0.0912451649456206
-0.030739470024367898
0.03737266938680808
0.08405782208081078
0.006088969802832941
-0.041826116829531836
0.018487363026200517
0.043678955772898244
0.05389121327627924
-0.04643573477192335
-0.18126662224704576
-0.02167207446147576
0.023730208251140052
0.0012712437767834863
0.05002256025690333
0.04657247834023588
-0.0815622088152242
-0.0168399721922177
-0.012476323690204879
-0.03645366298123194
0.0399882230248984
0.05318692766712311
0.09827305015961531
-0.018565974138039596
-0.018356372404364114
-0.009502558642930713
-0.010930761951283187
0.027236157301488213
-0.035572001106614834
-0.029755619563681533
-0.024816637265189352
0.011555895538556035
-0.014598199983408952
-0.008855792539631695
-0.03135414131360876
-0.007373699163321299
-0.0066307919574742046
-0.021321675848000755
0.0016008775807848496
-0.00684484601225199
-0.042522968034057786
-0.010728486077557832
-0.04819717671906376
-0.00247680438728165
-0.0474617000433939
0.19966525858653472
0.11185999814524382
-0.05543894648747327
-0.024118209016969046
0.05970011355762884
0.052440987814842785
-0.065433502752683
-0.01615306472987193
0.13723337958157658
0.07231832004901331
0.005023245532015706
0.03569459633418459
-0.007394120657653029
0.0024819999179788153
-0.007759382335552331
-0.036909881970633635
-0.006622865977884965
0.09290174151886472
-0.014459721573033449
-0.035870157427693276
0.003649807282120455
0.028260969274057236
-0.031041171794826915
-0.015726116205076177
0.0012190797609289176
0.023065693938438027
-0.018399587474097794
0.0025253464700681475
-0.03161912091911088
-0.03330486988295953
-0.15682839073029906
0.015573867947759504
-0.058703872207251206
-0.19340289473359554
-0.03656557479711533
-0.009043321376171577
0.09706734933280824
0.059961156553129315
0.014957168855934002
0.014133018706095414
0.05294343545994038
0.009599686729917914
-0.007603685807489264
0.009079010000653845
-0.025213567130543433
0.014854854689444256
0.04419567838699602
0.00545685286847195
-0.013637417319260233
-0.005875418264964174
0.010647820317579776
-0.0072294121499733195
0.04148526805095688
-0.017575100650054267
-0.013324967156496522
-0.022965965456195017
-0.030580268771823058
-0.016857029411788398
-0.020074439726442617
0.020677486650255372
0.016589593094999192
-0.038984895318033876
0.009122046224641685
-0.018320236809430412
0.09744811981838654
0.1362638854263125
-0.09176264980345405
-0.035392443480992415
0.0177285144622669
0.010497753282528282
0.03304533198686617
-0.010790764387149094
-0.02311243149636887
0.012653542826586586
0.0023766375341222343
-0.016193089973269206
0.0056826194694827425
0.02446822027036079
-0.03867504037087082
-0.019487138083768493
-0.036483105458195574
0.05986260213771909
-0.010212017672565757
0.008933816013195085
-0.030752416845355415
-0.026405630009471548
0.002308532684860304
0.020571240324732693
0.019159499387332905
0.031427524160091425
0.010667125802759372
0.006938827428449543
-0.038987917715839926
-0.008970413451996536
-0.03342749504982234
0.04251369097809895
-0.00939845622439542
0.05737826034428423
-0.15393064939402942
-0.0769316142946053
-0.015448128965664974
0.08419408486879623
0.10661805601585543
-0.007867354511523924
0.028661254667853815
-0.044541042279234166
0.04762235631015031
0.004877951555420592
-0.0018735074523887826
-0.11673041687808552
-0.0317834699437666
-0.03576636578965494
0.10270786150481623
0.0328010735061523
0.024524736933907453
0.03006792689539998
0.0026444171141138716
-0.008020575746394773
-0.006872729993805673
0.039794574175614224
-0.037092165841509116
0.12196031318787033
0.1348632070127202
-0.036053666815358675
-0.0034110796496386437
-0.036584408945197454
0.0047711180428461715
-0.07790083624952601
-0.010326503463202207
-0.015232796714589653
-0.007023159513821785
-0.00019105434367241262
-0.003623014171021694
-0.042472102802685596
-0.015500525304166147
-0.03336695002881528
-0.030516911389339953
0.02819812293709367
0.008208881058184072
0.010548981094621665
0.01697451358435399
0.010677190207796724
-0.04496100518128011
-0.1611786854867311
0.03389567756810087
0.02724145874159753
-0.02016823074241203
-0.022800108347678597
0.02113891436927264
-0.0472011963134725
-0.03206028015383911
-0.038948458808803675
0.16246668022071536
0.09835579076344399
-0.020577761699138896
0.04054177046112886
-0.012313285261608064
-6.638791347873355e-05
0.06109931887278668
-0.09591829775266199
-0.10791735522867221
-0.017073744958461805
-0.021641124968451934
0.0505261296792179
-0.010940427602746584
0.004296035940845956
0.0003567167603300484
0.020348725468782546
0.08083647206524808
0.012382546559088251
0.03556241609444604
-0.009370254809734283
-0.024452101850747678
-0.008834881878997666
-0.012044353876386988
-0.0006407491197311826
0.049469317203705246
0.02221860226507905
-0.0790182528761281
-0.0282793335160917
0.006585510875759739
-0.0044461930840147676
0.01484603021972747
-0.015058602588436302
0.023610917237036955
-0.0026065097959173103
-0.04060315620230509
0.005045983428684648
0.017776530114712235
0.007579577174397607
0.02670679253043845
0.00895170746466591
0.10421444169241735
-0.02750937863301309
-0.013063961428902645
-0.034443584230362555
-0.052008000472038234
0.0038827890470317012
0.027658231386850852
0.024995223451370466
0.01871401137318751
0.01722640778680278
-0.006786049195697744
-0.026207568222941645
0.018085310830873478
0.005157958702790052
0.04058209004036367
-0.10782407818861395
-0.15864083384435101
-0.02333540389749806
-0.004495945794741785
0.01591845131917881
0.13315643326284685
0.04111203629047754
-0.004448572862662334
0.054924114633614594
-0.02049259743050807
-0.0021278856228462103
-0.04147006270315312
-0.0027796043972038277
0.04091237490552271
0.004341470080869434
0.009503706565947257
0.01987740332696936
0.0022631762100098316
-0.019785540311803435
-0.01783377009145996
0.02630730307817429
0.07587419005730867
