0
0.023889959178406143
-0.026244632670739232
-0.024966582264142896
0.007872602460701044
-0.0025879534283667176
-0.01848628940566307
0.008801717351008527
0.0013331719403695925
-0.05154493804181579
-0.008006180761518553
0.0008507690246245216
-0.0459511286691875
-0.007427652678841112
0.0020809715767237265
0.03778778207040803
0.0393628419798546
0.003956282480885399
0.037501080471333284
0.053450281988353214
0.030790149333420128
-0.07633217950479029
-0.001625509842286198
-0.03035337712289999
-0.0901906295421381
0.03418563679058482
0.0008184213384189623
-0.03321979523500075
-0.029312170459331193
0.02067766139905787
-0.025744499882468207
-0.016103817992803512
-0.03654136022632867
0.010087644584712797
-0.0010717757179837587
0.004815160460403845
0.014844438879976492
0.0009477052001732379
-0.017883524952397832
-0.014210544398855616
-0.019589094866621845
-0.00378999967412041
0.10013127965500884
0.03598373634313029
-0.015803114531931232
-0.016432913128635204
-0.010196021322291554
0.02924175735982478
-0.0040767407061091865
-0.0033627872226269805
0.04501545628402161
0.053717028511553896
0.06004939739231598
0.0025077082848367883
-0.029842378232962125
-0.03453839631735243
-0.0006775415627692649
0.02437374417709772
0.007528737299146096
0.012616877260110047
-0.12358876996376747
0.034149368043559204
0.016854814267234577
-0.014084900870239399
0.0022418468454013635
-0.008174222144115463
0.009249951811376587
-0.0032852800540199025
-0.00330516304264096
-0.026449396497390996
-0.020067699534059562
-0.024485709656024975
-0.02419999800295367
-0.03245707129574051
-0.006022194632032283
0.015347073059072767
0.01169958480813138
0.09059084957287977
0.024806037258918424
-0.024686516469907594
0.03002562838272844
-0.023337408179976173
-0.01976541901283243
-0.028685500252156586
-0.010771674864606959
-0.034239101383235625
0.017196054497564086
-0.014266650138926452
0.046496785638595994
0.0760596082368759
-0.0009654562812204718
-0.018128277498652322
-0.019157813843153272
-0.019888760129315845
0.008085064300288654
-0.04012790692928535
0.10202583345014636
0.1140971467771658
0.016090460604021726
0.04883868996759851
-0.01833584547622072
-0.042605310005316206
-0.020937914380614094
-0.09519746344507048
-0.13191911747338672
0.027883866265356293
-0.026207843826846773
-0.009880049388660045
-0.00017675331165730677
0.03474469942945645
-0.029027212428672757
-0.025360724909389818
0.14690121814990267
0.0932388629936418
-0.044786098714989585
0.03636123447952903
-0.022507277734214483
0.0021722084121410376
-0.0527089601182688
0.049150189676771136
-0.09836203893093387
-0.07623655836947624
-0.019110510816826794
-0.03128221216613399
0.006475823943895984
-0.023184350269756134
0.018131732292001643
0.013133015502338004
-0.017473999149534736
0.008367761516490447
0.00616990503253869
-0.0096972514695274
0.02430052406786666
0.04267380531535371
0.03296285424092093
0.026403814613716575
-0.00711386708969606
0.04094290900090825
0.11900532445979546
0.10020900481965311
0.04835472589710676
0.009450483906409141
-0.04264818457578998
0.07839665088560628
0.0237367258659028
-0.030883197073441667
-0.00013231079233191195
-0.11824325861746589
-0.010535737237002926
0.054408993794607556
0.02775110589492465
0.04791820654440129
-0.2077381511968622
-0.03648246462605044
0.05412060763161881
-0.06414507595470047
-0.14597190842698143
-0.025610523459892263
-0.027331256562583717
-0.07409619619298945
-0.018595144869510166
0.042048105127001814
0.006933741620356777
0.015078492278761027
-0.009307164260892932
0.006658018827875086
-0.018041924336247555
-0.023042728790225713
0.009963996397002524
-0.00819269620146886
0.000769722926017872
-0.005862551344268855
-0.004248160076647103
0.034103168305375374
-0.008355635740936479
0.04320679115882879
-0.07411322815377124
0.005961437398148316
0.11276704846384673
0.07763368609624281
-0.05595908605654255
0.05587759342863325
-0.0016641229632130706
-0.061696920872996934
-0.06780604776246958
0.039582256234667906
0.007200307816328979
0.010461128784045532
0.03468084597941685
0.04339191548581724
-0.010113193745435456
0.08830491921655587
0.11579290530934666
-0.034231044060287895
-0.04055632178476848
-0.035093848535535495
0.0028988328212231364
-0.028307551252894792
0.0023974089220772515
0.01658379340858539
-0.00515282614203742
-0.04520386696258593
-0.005032264581096255
0.02387164110694776
-0.01836487123536251
0.011500775672290133
0.008309739419028886
-0.03639613336229123
-0.012641967197839799
-0.019876681574541245
-0.0475169821189404
-0.03559716896691497
0.001692787368953538
-0.0039670946209784865
0.017012904067941117
0.005067022903041417
-0.009760487460296643
0.01248867093420759
0.015449317829418793
-0.008945184694364745
-0.08398801828351489
-0.029625460721983087
-0.030711543362201898
0.039164188750641496
0.28519239057171747
0.010215020270774065
0.023747884256752977
-0.045075707867538055
-0.0514390335636879
0.026326770810179784
-0.022284687882275146
-0.0026418237312916043
-0.0007420147408934127
0.004402184540406325
-0.016856445847226426
0.008317488832652813
0.008604383036904011
0.04494590861789894
-0.002235279161336341
-0.06266495711250891
0.07197949629165964
0.015362213637042233
0.041637395220504296
0.019854140676384736
-0.020259072343611715
-0.04031443394249571
-0.01827625218916071
-0.014720335841834914
-0.0021772653797644966
-0.02039980486869246
0.014480519473666641
-0.01165021361680647
0.024661346479882967
-0.00830561537759999
-0.07413549459378878
0.02938983461514935
0.0411597656753343
0.0471300541147473
-0.0005817270141148024
-0.029688410145612826
-0.06879095698095457
-0.030571852851132376
0.051227494649059055
0.09488837824737292
-0.09929024875751262
-0.03785018144522203
-0.0014070172966137561
-0.007832634105559805
0.026876842597806917
0.03317500043959658
0.0063068087122385135
-0.042224786763824525
0.07153778632691678
-0.07352225569723334
-0.12484093454938984
0.009800399141860745
-0.042754791310249535
-0.038873232620212306
-0.0026068593243244315
0.03919407299631508
0.04927214599237481
0.06523645102068645
0.04108945760826889
-0.05180138464116529
0.00022514292913786835
0.019977562820381975
-0.09093542326693094
0.044425460196386345
-0.053133155211472195
-0.00012938900882937345
0.006237758560341003
0.006649666384649818
-0.022129939344115716
0.012681260192234556
0.017593286012322223
0.023188797859036017
-0.0017142175826367655
0.023349376757362983
0.03444536083635591
0.04489547308972338
0.0029104916555699337
0.014327815262602201
0.024498510083094838
-0.028012879130501264
-0.017283782884181496
-0.011400512979716086
0.007810716443345427
-0.02894957431556138
-0.042005524496039566
-0.005092736806536075
-0.0019397117901982443
0.03304617817407254
-0.00019499076792531568
-0.0046132203600336655
0.011770149533794173
-0.031963427208261896
-0.010404016691102268
-0.007793394246346558
0.15827705018625055
0.09678332177539767
-0.004880857711806964
-0.04473475342995233
0.0021113647441093064
0.034885876839254995
-0.02228218792330983
-0.027095346198577785
-0.02537414625521259
-0.04021397120578821
-0.06264440627732676
-0.010019603065633433
-0.062205605507753274
-0.042245188783837845
0.043298904761772006
-0.0233437530402283
0.04556366317416749
-0.008447760439137227
-0.035624540104239065
0.14609537561723326
0.027113127895997045
-0.08406103724723565
-0.010974275821588442
0.012032908768651176
0.014844425592804753
-0.007896430041462154
-0.037553262569833705
0.015060208995559758
0.01789178842922232
-0.04985523261681384
0.06837149627845938
0.053927430881173265
-0.0512325884414052
0.0007788676709189656
0.019513189395860164
0.044481765813043604
-0.011064065981594335
0.03119059324347077
-0.02925867817711955
-0.02944950785699735
0.037887382485075366
-0.03570999313146662
-0.05029702621054875
0.015882815429949702
0.016845559958625626
0.018073749357784163
-0.02134900322374161
0.02132907412711949
0.059620282575782946
0.01759251642434087
-0.005170219205607028
0.019395126716287795
0.06667077729904197
0.038275045947438496
0.02852161837539126
-0.1592752612178352
-0.14993429261048533
-0.056453227445079385
-0.0388593719847251
-0.05729005340788188
-0.009236228616089385
-0.013982277386107632
0.08841876373305345
0.03823973591055605
-0.017494710316148576
-0.008183452129167632
-0.01590736147921775
-0.0009171820132699126
0.021527451147747123
0.007413766925426133
-0.008443128472361373
0.011442543588207158
0.0005942439650476432
0.001393008191565045
-0.008973724250300519
0.0012561569953956284
-0.02556128225504754
-0.0009747456488081856
0.05750213158768831
0.03869491286993211
0.06361423771363578
0.04227347004650815
-0.05235263587391771
0.005507658307256871
0.004001311277810118
-0.014631688181908829
0.026960087036950478
-0.020339679103550955
0.07103707330470477
0.009987252541903342
-0.016988176652505547
0.06550003194198262
0.03977985639294205
-0.030093615279384346
-0.16464570025471956
0.0014854475191023648
-0.06869170853146031
-0.0653673256433116
0.040752893644019926
0.10562578119200283
0.0938173014682667
-0.062073340789550145
-0.029644923822417263
-0.029233959608858672
-0.001319410458772037
-0.010197057053712768
0.0097981070849605
-0.056326314460235456
-0.03853071782917898
0.013705040756063524
-0.03179508822348605
0.04021584986187233
0.025818460223542783
0.04884503222687315
0.04507351293561759
0.013544358674106098
0.007368196365787085
-0.025113041911009208
0.03936686029495181
0.04758474185220272
0.09005011031992526
0.06327679916854588
-0.011260484553974022
0.0036288738103082536
-0.026941046497801463
-0.03129111247172792
0.022866476034755313
-0.05745291340960612
-0.09961386445861617
0.005529070662811107
0.02548349844665552
-0.025769220768976815
0.007673931800853261
-0.012498059199570272
-0.0023232165136370594
-0.1490198158416303
-0.09243429378546085
0.030753487570827163
-0.09883781081482369
0.029668562975719667
0.1279456821861044
0.0329003446055749
-0.046470729004782045
-0.06600219550118994
-0.024123896224569112
-0.04500904378058896
0.10116834408140782
0.1824466802561482
-0.009450496222457933
0.05965368864018039
-0.016746238318736596
0.01707947366829422
-0.013408337691247559
0.0008866759308595096
-0.030273950299933274
-0.022315584556929564
-0.04013106046754476
0.036915324170152294
-0.016039853535911804
-0.03172385900730178
-0.005836317643235154
-0.002079577671776615
-0.00182962741133902
0.035739605678725056
0.02722447792660608
0.02467420418815771
-0.011368959720768552
0.00617629254812029
-0.05519760999573345
-0.04171615881187801
-0.00981573414921778
-0.004356366656903652
0.000683416541000168
0.008212154134756226
-0.02958201649696592
0.03479774796799899
0.09080577817005443
-0.019693474694753722
-0.0030961384315035955
0.03773712576435658
0.03699250535504593
0.009002456331742159
0.06424340014450772
-0.04696184544132941
-0.04674024303893995
0.009035278261777127
-0.010132641923826092
-0.060472096227300765
0.04425979352596624
0.06437751949462632
-0.13658095598586423
-0.01839233641775232
-0.008007733797389572
-0.0036201868875107533
-0.003388944897655141
0.016772379410284914
0.030545410116260798
0.027556190384420216
-0.05027523001773847
-0.039551690407678544
-0.02152850618382599
-0.04047999952542214
0.04084720610811099
0.033537270024508965
0.02642544179331697
-0.007634542838771692
-0.018054709778767577
0.04850311956516774
-0.0004309874380365801
-0.018862465022569476
0.005574158462433019
-0.0023347014174303162
0.014504586653039926
0.025501840764141914
-0.001954863067701499
0.03039649180862218
0.028157262581437397
-0.018023578467133747
0.01800796982837149
-0.008149690919403749
0.008528830840049123
-0.020762604312731525
-0.04531603640026389
-0.054295662896087046
0.04551281963706351
-0.08619467614316043
-0.028928519167536196
0.011139384688227496
0.02534357477468822
-0.04070376510264385
-0.018171321371570924
0.04029453601831029
-0.014293640248950901
-0.016013590571361355
0.05644267193124409
0.06927298339738966
-0.0852729836427421
0.009045940017289651
0.009237120794384868
0.027563273408231632
-0.01168467103099003
0.02666449678567055
-0.0061370072772567955
0.05713418341169198
-0.008398519529601415
0.08976747112448956
0.14457750650669043
-0.008253955707935594
-0.01858626203383739
-0.04573009612922161
0.05227171798605977
-0.04150310351249601
0.00430324621912927
0.034588106759756855
-0.07270697143657204
0.025446010940095402
-0.012606084730577926
-0.0373860636408968
0.02722425752820801
0.007927853766832119
0.007891922569706564
-0.022112283872106613
-0.12539932167490137
-0.040413752205301356
-0.06360536155536477
-0.021784736091704004
0.013404596053697506
-0.04637191525151321
-0.04453797972578302
0.05889868707241344
0.04265985007051455
0.006049047649421286
-0.026700562650980423
-0.008438676048919094
0.0008278419313448586
-0.009513792512130938
0.016381050955075024
0.03619742137308642
0.015182369621946289
-0.03556632356667536
-0.028281008905203426
0.04828057778752862
-0.05397530292628246
-0.042704012091112145
-0.009058849490035083
-0.02523648438958469
0.014641127503075384
0.02610281074109752
-0.013847446068696824
0.004253073767423347
0.02531535016071311
-0.00987750427242321
0.009058489675685394
-0.011331420522259088
-0.00503614731877702
0.0008409449428729263
0.03241945395892152
-0.006673889900114318
-0.01666231481566304
0.057587496161453436
0.027864636817660524
0.012106654244635643
-0.026914836357469975
0.05194940953299752
0.007586972176689484
0.022021865505294343
0.04310242985263428
-0.015019636672700409
0.07877637238355942
0.03869135677352246
-0.039234299505472726
-0.01835927187667532
-0.028761669234756825
0.04413273860223252
0.014802927365744118
-0.015251665279468894
0.042260060803903134
0.004868481878169244
-0.005708990832983318
-0.04148067590821401
-0.0033439927610988836
0.08127893932402448
-0.03770508574469835
-0.04214026831625189
-0.07094103104160895
-0.11602234816878905
0.009915885865950425
0.01034011125502032
-0.014486383209626289
-0.011874670964715575
0.06149495197857314
0.16883218547176915
0.006357377564201727
0.019770833519261084
-0.012660305864079444
0.01859916704855798
-0.1404037137729861
-0.13741902811027856
0.06514663311038817
-0.03963406287735863
0.02983195466725136
0.040997716178280366
0.011942371410511979
0.01855375923863652
0.004548314951417515
0.0262720168061684
0.09320556191748246
0.014849330775462658
-0.011715833647629438
0.023070652248331693
0.03867283010338509
-0.03927734388373176
-0.13726877588827743
-0.03178698650613453
-0.0015340509321360182
0.013766086437170793
0.047088778074083674
0.026196553497033887
0.0584221417446447
-0.16060009777248047
-0.059463116894565814
0.06002815655281508
-0.038481783201612545
-0.0008635280624780385
0.0039016527388082323
-0.02960375875541738
-0.015925118132727897
0.02180209543208558
-0.00759131309561194
-0.01830431016714004
-0.0006716115192976565
-0.0013871369615897971
0.024329423974287497
-0.0035582502187555334
-0.018165933213748226
-0.007320384585993511
0.003009554994919717
0.0025596525042307886
0.015806640339392684
-0.010076622880062194
0.012178798410638784
-0.02759873223801642
-0.039595391858553916
-0.008695664629402185
0.0010332419060761918
0.011705690388167647
0.01287863022329949
0.050817603007589585
0.024342603746339196
0.008055885297891639
-0.0028860444063057095
-0.018824695635407562
0.01561618457556066
0.03465246717643866
-0.03596241215350869
0.02558395440809932
-0.004834315742014465
0.0033315361464476938
0.006912923702637565
-0.03691543594490663
0.035647082042883006
0.004781923359341144
-0.04596711896772533
0.019284839651872974
0.02553899776237468
0.00036351374281726553
-0.0609125710425187
0.016088849637639686
0.08117128971904553
0.028291391727494244
-0.02311275786811326
-0.01221182622229095
-0.006806866397913264
0.00696851640016456
0.0019391501306603909
0.04711639164277931
0.02758823259484255
0.012998121374699365
-0.03597821618375013
-0.00894371926343734
0.000984745558494717
-0.00603497717758218
-0.02835014360858633
0.017481006385232183
0.017649932786181963
0.04392089568600071
-0.041400387322502355
-0.0418731013951935
0.013408622637209865
0.02625297723277358
-0.05454007047218607
0.06525782693256589
0.0702464514640324
-0.03572633396660545
0.01998742649558977
0.005948896205240557
-0.019829146475715848
-0.02673310184145648
-0.026154496909808277
-0.004694994973473094
0.016137862156938323
-0.02126839451798057
-0.008426263488309724
-0.00422572650031481
-0.0007987220457516432
0.003868950279540348
0.014747261894416809
-0.020931866817198674
-0.03932709172162193
-0.04332284631783062
0.003859250876049293
0.005846847371705537
-0.0365405173551387
-0.089173457919786
-0.024133998515621313
0.0051409953521015
-0.05796581813982929
-0.01284787250774587
0.07942275155839423
0.017276426305317706
-0.050852408538458835
-0.0017313790079596114
-0.06778086869572464
0.1127727031728845
0.0858683114466212
-0.05926218078756174
0.09085829052396653
0.037944193343412085
0.010767567184496288
0.00043090291821274454
0.00046210459127664474
-0.028383620018196953
-0.008489792150258264
0.051313613941208085
-0.04715712986501513
0.001465510674357925
0.09256110929749509
0.05491948449802239
0.02274676862895763
0.007074819275335899
-0.0005967036790560474
0.038070422316606414
0.017844623549543977
0.01225937694516859
-0.003926465084048631
0.01067240073624912
-0.01380159903821502
0.028489471261621876
0.03296169228562019
-0.023177222241912068
-0.02095849578209799
0.027606443794639623
-0.16355337158862004
-0.10766987368719177
0.04221670278811235
0.0185529432291737
-0.0219215023095276
-0.04059065838698651
-0.09995664156064743
-0.027621229567786048
0.0189349051908477
-0.03314105209625087
0.0011175668434480767
-0.0012774725753523456
-0.00807649311760192
-0.03753441802531899
0.026794889053102264
0.0038445820665178893
0.036213120712619576
0.02411432381249494
0.10841372296076521
-0.04180204026534627
-0.035396811109015255
0.03373797920320725
0.011362118596584899
-0.002822237770016674
-0.002218467380167935
-0.012209480089401722
0.03805117948933601
0.04787651299733124
0.0006723361588655451
0.02521848077943867
0.017222572939525997
-0.012085418318505613
-0.04881184836501813
0.007457196383093515
-0.0020076521076362644
0.0208934755863075
0.005006649060015763
0.008260757695737718
0.005847105927513287
-0.01693582001009805
0.016391463154449493
0.01902433798703609
0.005158368013075619
0.001796408887912454
0.005741040828340909
-0.045158517881646335
-0.04220526652132784
-0.002054350641989925
-0.027410310516295187
0.0023025081308474266
0.027197165426170528
-0.026392947737466633
0.00023904875176461094
0.005545651426688075
0.011901720831319892
-0.028794532344965144
-0.018478025920731892
-0.0021366162381898086
0.04101786830402754
-0.008736990888611545
0.03465315864058313
0.06654969338518706
0.017297265136076028
-0.0556083108838991
-0.013850943700410855
-0.030454285102629847
0.008223946694310726
-0.0023720336006644413
-0.005135587242206803
-0.03603987857089328
-0.005367561020373024
0.02867932646168895
-0.012601508031168294
0.0048999826259231525
0.002840832431186112
0.0009286270674295068
0.06373047225588165
0.03836835858374951
-0.08209506083130949
-0.039719599389815875
0.026490600343244856
0.05299577204068164
0.019434795000585342
-0.040888214784401924
-0.03488410319158244
-0.025102934445692334
0.02002911212075852
-0.005682043716807182
-0.02683905825494001
-0.013168358510831708
-0.020517091546659736
-0.02310044551592282
-0.07026557086698774
-0.025882640192155474
-0.007913932651818828
0.03184699363114618
-0.03213216258777117
0.11520442995667889
0.18932661442714688
-0.019292716770467785
-0.002226419876344769
-0.02838153383426549
-0.021087772347704606
-0.019817977475395612
-0.003913735814278699
0.034980130769844915
0.03021104449510461
0.0009088036306935449
-0.03601547012725426
-0.02127037843561864
0.011829684934388917
0.005116085458474511
-0.008141723695279908
-0.005263335636875209
0.039997551107843095
0.04372759131357446
-0.027629918383878887
-0.025526398167494777
0.10696970206351934
-0.014029006310714168
-0.02451766828814905
0.014152783529784482
0.03270632072023024
-0.026808497971874318
-0.006553785685777343
-0.04260044954650911
-0.023888862433326843
0.02373498392125364
-0.0022429648742813817
-0.033759514053874215
-0.03231472084473828
0.011106680453214016
0.006288258957061399
-0.059556059275473604
-0.0013506511332005357
0.08163132418623058
-0.004214431426723933
0.019884026640376157
-0.00111432790683659
0.03016290070876688
0.012395846710283567
0.012635110561531505
-0.027256774827622877
-0.05676360128867286
0.030153499843676882
-0.045680479508820586
-0.15141091858600833
-0.05533397872107371
0.009540497117935795
-0.06287187556428056
0.1265900639810495
0.08343664048628074
-0.0022995129508568374
0.008584317034734454
-0.01878089136620776
0.0007242895344079319
-0.0023588223715465925
0.04363824691674035
-0.04916864714134851
-0.02308172229127685
-0.017532655711793976
0.03502831101595745
-0.004227281049709241
0.0009531379621885986
0.014220839168760121
0.01302796828390331
0.026761507058720612
-0.05104819665729741
-0.05361356479322447
0.00629171309817296
-0.011769381966006874
0.024854106724641303
-0.011279940528032441
0.017369116104133362
0.034850293987241446
0.020101848768515007
-0.020610881318456436
0.01522403484576085
-0.012628930270435762
-0.03717290242913595
-0.006595010471355523
0.012275935137728849
0.007606304728593701
0.009012478723030636
-0.019514403676867537
0.16419550488450577
0.021929642648923917
-0.019314286705712832
-0.007810179882347402
-0.019697225601363257
0.009599672194345843
-0.04379341795763507
-0.026237313669548422
-0.0021754061460439963
0.07487941308734931
0.15558168330873723
-0.15541827919427512
0.023458465989231674
0.05880794375105964
-0.021501114989090818
-0.015728971478431632
-0.02808123073480982
0.0015224555460870955
0.00312067555632214
-0.016138543657863068
-0.028511055544710995
-0.0043145789349411726
0.025619978698439124
-0.009756273672026684
-0.007014525955195335
-0.04281119227290977
-0.017846334756565975
0.0027296069261297704
-0.02275724693048062
0.0061442087639582265
0.04002144971777017
0.0008183041123270031
0.03133118634889449
0.00675198096831262
-0.01278561137642687
0.018134867553238836
0.04520215869753601
0.06178204491754221
-0.01832367658956486
-0.12455204165941965
-0.011073474940912514
0.0583248004172401
0.019687201642097196
0.01407476392481926
0.030898738667607756
-0.03754957207626715
-0.015933132044451546
-0.011372523685795378
0.011662993754724316
-0.059574220770744646
-0.08275058020800682
0.05474584805658932
-0.03491376397430289
0.03271886024532561
-0.03261061240129063
-0.04980795730212437
0.06105348893520696
0.017300661520440554
0.009265100696613932
0.05133796915446567
-0.0036095244058919817
-0.11117064134254845
0.005956213942950388
-0.005236865829346222
0.04852439232952512
-0.007534848788366906
0.03403370482664481
-0.13168096033768337
-0.10723386371207727
0.03476570245374765
-0.011815106995576759
0.0028814897744245463
0.09485583044846031
0.03671226632257104
0.012864782878710214
-0.012241476579971215
0.00934793791765925
0.029150457304177518
-0.00020830137338762755
-0.0037482699361865587
0.01633347910808841
-0.010516365829322279
-0.01728241218907833
-0.007006896301648124
0.02977558894753362
0.01430805163878487
-0.006405615155681062
-0.01814696856019916
0.0029327403546147725
-0.009115581114842336
-0.04777730381687632
0.03987160443864683
0.024808058266487937
-0.024181925231863154
0.01858869700535154
-0.022898941950408067
-0.029047439183539005
-0.035366265392447166
0.09318657968558279
0.11362696500319322
-0.0641177384000342
0.04312764713153806
0.026008996708077856
-0.021405086891420785
0.005834406365630068
-0.03400369763199575
-0.013779659168534039
0.027240990232219188
0.010173625028718096
-0.0036286686959005714
-0.013314431084696217
-0.04987440253833283
-0.025840340506603415
0.020291048523335294
0.013244751085580528
0.07982153747290882
0.02788327178278857
-0.009232796925638984
-0.014771225886197123
0.06455073449313782
0.05307798883503081
-0.10941152616100938
0.02310208157194411
-0.007081880333485351
0.022575129599614233
-0.11406440509377232
-0.14138744971762512
0.037514312678930524
-0.0039067852051440305
0.008000821211577828
-0.01813592856278032
0.026386264624304077
-0.04355975150448581
0.015321985757893362
-0.00948205823709083
-0.0068913747694025074
0.00705414323256538
0.104024859583658
0.07509336757132076
-0.03758308823485569
-0.017979531376193778
-0.01655175577305249
-0.02872603182966506
0.06246553924045382
0.02609930748425646
-0.03761562986510049
0.01355891765165433
0.03656981471265927
0.016410153810947098
-0.02248711526511469
-0.029334908534929614
0.023181065154443656
0.010687972494881634
0.004967883892888115
0.01125162806654502
-0.01600169399920741
0.012663856757165508
0.009314746556912112
0.003017648493049387
0.014103931903039432
-0.019990111890169228
-0.04307445830205874
0.005986036229339947
0.026062311587012943
-0.002247900326344802
-0.0025651924440252844
0.016307967796317033
-0.06753835860490248
-0.06961449403574915
0.030976104786538037
-0.037282686519630875
0.030722300675044757
0.030720835597873843
0.06284999849515488
-0.004304778464776044
0.04390556978660745
-0.06045067133395103
-0.12084301562014244
0.0188435342952121
0.0017533522711341806
0.017680847204076318
0.005481494068070402
-0.05934404970977283
-0.007830499233303367
-0.08755890755432051
-0.08179990488372646
0.004294859449550445
-0.026727136275347726
0.24622422505284078
0.05662955593414508
-0.06410462404867683
-0.027437686060074143
0.026325895874280955
-0.02222652843898732
-0.005388513065348467
0.041692935935399016
0.014303058041983185
-0.005970840977805704
0.01705217244944815
-0.008870778335147487
-0.025075296696126275
-0.02360624466585178
0.005320903656223363
-0.020745226471037048
-0.006039763787399862
-0.013774658082267981
0.02874792427153266
-0.013890403812392245
0.017504761347367944
0.005244566529313522
-0.004331289141086185
-0.043569167503205226
0.006091213320022922
-0.016909198674083404
0.08506954974915315
0.12417223659609672
-0.020487816379880123
-0.017096136592772322
0.03186736795088144
0.046334741587073076
-0.024252947136346265
-0.0692773864509216
-0.004616231943315392
0.10015064209443726
-0.00974701074959778
-0.032177854805609474
-0.0362252718738194
0.011773909998918959
0.007611788074695454
-0.0013163500734493748
0.009521145496504863
0.015199353976129048
0.008327084917191653
-0.012143298862507151
-0.07143487090308645
-0.09368990807424189
0.0021473689721733837
0.04431143171458252
0.11281393586787891
0.058162049651299286
0.02653051482131733
-0.10869133564279397
-0.07922146627944482
-0.042317623429309614
-0.033530368731094946
-0.01359547354545799
-0.006444345861879039
0.0004325265007560894
-0.04384698891014717
-0.03843031918659423
-0.045639616581976815
0.1246559707895963
0.15422910918972163
-0.017604255038686536
-0.03277308572364118
-0.012781511490373198
0.020216332650471285
0.0017301117840588008
-0.0011771660741807146
-0.045160209469994085
-0.03222237652710578
-0.018056519805153624
0.009608880903872505
-0.041733559703162094
-0.017136885887857712
-0.042857337498344625
0.011375055731044513
0.008507240220440937
-0.009411210426850369
0.052152774181279
0.16923618828582399
0.10160994923636969
-0.023419461253779816
0.14908151665084726
-0.010898996359543113
-0.02946676552330063
-0.0071010392899363995
-0.0002199883623732317
-0.019852812867059304
-0.011460529608381814
-0.015124530000022235
-0.005402467984330993
-0.08539784338508924
-0.07553508662184874
-0.0597263063181074
0.04139842655367293
0.03951854821665655
-0.03779992005678395
0.01619799551498829
0.006262292049311396
-0.02633227235483711
-0.0015726362932878557
0.031313266472891337
-0.003570906570350684
-0.015823816809765426
0.006094917182532823
0.05158389385778969
0.030915462613384532
0.003334199704669361
-0.002708685419428706
-0.01489604002610564
-0.023961194138686
-0.007828946394773854
-0.007658451017697487
-0.0024208448818514284
-0.011627350520251569
-0.01938367638066514
-0.0033063428541912684
-0.01250872158009493
-0.03619616294468277
-0.014297912728543864
-0.0003955758847104824
-0.0013676230378130245
0.02037297888888258
0.02420053543646626
-0.0196921859643589
-0.0288947311966279
-0.03762145642609902
-0.03313237140691656
-0.024516307324918468
0.05831248713262162
0.04226741452328857
-0.024900569241547814
0.014350017180843564
0.15266258408120897
-0.02492676205707406
-0.022668244473854376
0.005204862679923247
-0.002408443079511054
-0.023805325749066727
0.15020771038062689
0.0441129037398355
-0.059388284663760824
0.012791382412257806
0.03252121426184599
-0.0010227116944479169
-0.005360826294603281
-0.04555543868250409
-0.014780856498988863
-0.015592469461587644
0.007810535281031021
0.010719036791330475
-0.03281069946425081
-0.002237596811492713
-0.0015832149300226725
-0.01396672001768463
0.008508115140366111
-0.0014147432392850215
-0.006884817207059426
0.014998783554210037
0.06940012815008753
-0.013282248740406474
-0.13657195163767163
-0.09102700166783201
-0.03454138232302905
-0.00028848212932397786
0.007729912884425381
0.011047075623024346
0.025890231720135617
-0.043647319129549264
0.017713802047508515
0.022909635719333535
0.0056569720118988965
0.011510597290072326
-0.014564062414302045
0.024528258236901503
0.005402409777152747
-0.09561000305953851
0.010775000722980039
-0.015691036152580932
0.005846184660830758
-0.02033631564453491
-0.012666604306083021
-0.0005172545668764418
0.046634381347299074
-0.04100257332848941
-0.04223419810299639
-0.06261119629831252
-0.00811413380610739
0.02471601998826422
-0.049388631940688675
-0.07013172163310868
0.1920301805263484
0.14330802680747595
-0.03248761079131891
0.012784664380866614
0.00547443888066154
-0.033546770761832066
-0.0464869342961905
0.06599454050043145
0.047209036126438675
-0.010095152090227438
-0.012280559998846955
-0.050353657840968014
-0.027476749887239835
-0.01858808942215375
0.09721906796339329
0.062143081054133784
0.09430680567309632
0.12412523918285565
-0.0695790652832184
-0.015770066203411422
-0.00045096125976394874
-0.014500053853856665
0.03312764525281106
0.0038728379036117567
-0.025100143224111356
0.031240884461123847
-0.014248802110358833
0.03679723745567347
-0.02302078740916086
-0.04431836968574813
-0.04296897308746847
0.12566269140615058
0.09851361329185479
-0.039918140356628024
0.015757217961390645
-0.0550387875593251
-0.028712711176536114
0.04436658226248123
-0.18328527181116178
-0.12727991445593012
0.008786017276480663
0.0035621261348672477
0.0366716495251736
-0.002475418392593465
-0.011961638832592408
-0.03498091853975745
-0.05163411284562523
-0.019129857568064648
0.05218458236642395
0.03490343767797048
0.015269347197914923
-0.013608329193103919
-0.002152502776134399
-0.01424855817325614
0.01089492275286893
-0.007028645077999465
0.023353699955249597
0.0025969700996761793
0.010132605848688128
0.010330695518133268
0.002291965827422994
0.0038535432269861396
0.009686744330000805
0.00741555408160541
0.023279200826787465
0.00926341089113693
0.061704915018825204
0.034670043738724524
-0.0014929136610887705
-0.13377262053875583
0.010512800076925604
0.0056917746394458705
0.02367260133694535
-0.011759127018204139
0.0008908461560641958
-0.0050423966037998254
-0.014425387190343407
0.0010337348097736224
0.058814157732705256
0.015807549915616784
-0.002805815345036397
-0.03100040253785937
0.007024730196498176
0.04141834826345714
-0.0031400462227107366
-0.09878304462533989
-0.06228075427793609
0.017167905498952345
0.02416373749862132
-0.0558759043988351
-0.0683959790965913
0.10031881706311552
-0.06254270668323225
0.03492397192809973
-0.04375812392816894
0.06651981699587695
-0.03513463142458554
-0.12567076271307212
-0.020315763896776223
0.06346471377979744
0.051562731854239624
0.04780661951768169
0.08615236729598873
0.011189742186007469
-0.05329636195107027
-0.05780623488917703
0.009368244885703904
0.016545573964684552
0.07102074075795996
-0.011649635469378299
-0.04244323527163075
0.025307277728690895
0.004989407048588511
0.018447283310550483
-0.028210140072541648
-0.04189948356740537
-0.014751440989108754
0.051981233659875406
0.00696275473319856
-0.01153587041668867
-0.011166818776447644
0.017789839427734908
0.007895376332859558
-0.042492727320666626
