0
-0.029927032101847953
-0.028606028686657188
-0.019712658733174564
-0.027329159829012243
0.00039551867592811234
0.03493764107951116
0.06808295208839557
-0.005636043277431385
0.005589943738800581
0.03252385527154157
0.052123154229296205
-0.002147500400953603
0.001160538496986611
0.03837354077731307
0.06580524648873722
0.004486778509928518
0.026915815219308917
-0.05206961629337415
-0.014889523848649847
-0.034069105574495086
0.02975794697926425
-0.027003175208489785
-0.06192865159722059
-0.0768107698020343
-0.05843737836835892
-0.00195829540464342
-0.0004576203877939438
-0.004390329468526669
-0.07345996011252418
-0.03169510746414494
0.005259243871371428
0.03553511447880803
0.005691497593318448
0.012848244757075437
0.0067535836938069855
-0.004003321926665252
-0.007582577336341897
0.010135101249003103
0.00666589902072122
0.00946478923755935
0.02871823269974214
0.037015878859091966
-0.05295186684580007
-0.047951356373618914
0.017642490266346827
0.04427513557121235
-0.013371077698790342
0.0007027278195105358
0.0682091282002389
-0.007167941512555075
-0.047099799623148995
-0.012202913246162874
0.0055243507294391765
0.0063964297872899185
-0.04664202778923417
-0.03194031328110242
-0.0005453396986310801
0.09081461874003227
0.048471541591498385
0.0024067957719123797
0.013147757510595708
-0.02245475927519534
-0.02102544143637403
0.01945061731154269
-0.0022523179142156834
-0.016633744277329086
0.016352141929469714
-0.017970589195230036
0.03704299136499129
0.008317071342012605
0.012943240298358472
0.05236996835243391
-0.013485084394879042
0.10335192750735106
0.06163275541164074
-0.021406229131766655
0.02013345197326026
0.003319496372306583
0.05118726675015164
-0.06010407773234431
-0.16920446452167606
-0.05266712340442089
-0.004903503828984256
0.006395617170325513
-0.024056206901815598
-0.037388399773875654
0.03354119091059113
-0.006573919825726152
-0.0005601919888576711
0.010752689035382245
0.01602230482106664
-0.016834035807886234
-0.05028829293763302
0.01775171243137903
-0.005177787648744492
-0.011532060062724989
-0.051913804744519496
-0.036810912864783135
-0.0022802697805913894
-0.027432103122806847
0.004612623977836937
-0.03439050308616347
0.018454955754043916
0.03190773896790629
-0.02959189314518022
0.06726560071141283
-0.015388913520083555
-0.013645164475821701
-0.049992068949882965
0.12231196278413373
0.1014240042419008
-0.01727159040842697
0.10711992727022276
-0.016467042738006154
-0.02874549537745086
-0.0255893216397336
0.060542172455806606
0.05386012028695747
0.01781737390502706
-0.036524159350705555
-0.04511600708071808
-0.019616379063591472
-0.020026404927713033
0.009239511819564719
-0.02760626705950636
-0.0045260817115212685
-0.006070700439162741
-0.02531758836125465
0.03247867467292068
-0.0397780684010711
-0.10183222819310032
0.01648499462887115
0.02133607738093846
-0.014776881746821185
0.026260122212033093
-0.03190416747324603
-0.05618132546525176
-0.012993279165723999
0.02558218582740719
0.04922635782431639
0.03025953085934878
-0.03214235597930653
-0.029747926081635668
-0.006703765636455346
0.08943190794813266
0.10373609766875487
-0.01676725008785441
-0.01708857275710537
-0.030804839445123626
-0.0013643979417900293
-0.02493888897242316
-0.06717847575990851
-0.020532786055639435
0.03243249248126117
0.011978616773606118
-0.012256290825964513
0.08433177470955025
0.009647953233058075
-0.050049399640449715
0.008545403351106309
0.07187119587403029
-0.05471732004373594
-0.029816043382714864
0.04271617676549382
-0.008635962886258173
-0.023556278602581537
-0.0720517179466354
-0.028031784242202495
0.06667462893327052
0.06358057069721566
-0.038047896048757766
-0.0180278002837201
-0.0015347977495092887
-0.024144063479902753
-0.0036825581097336066
0.028670399632300034
0.03515367544934149
0.03808922876500749
0.016318386151706107
-0.03301237436123272
-0.02501823737545599
0.03821022888598671
0.09586280635206679
-0.032780067000659156
0.03408032258459643
0.023164577015685476
-0.016846539174652203
-0.019148512496150072
0.030737927713683916
0.03739651242622677
-0.01082467593823803
0.02434869598941264
0.016590024337756207
-0.002413344539551549
0.0030934187776589348
-0.028178370871053928
-0.015943960740578245
-0.01489124392048552
-0.04919825271899864
-0.02023513889907808
0.004625453389544428
-0.010366123141309469
0.06493403790683566
-0.21524319216531065
-0.010960492135531312
0.052581936537025586
-0.016315773564844437
0.03582207037667174
-0.026883192453283238
0.040036956042647516
0.009455651971391118
0.02887768481562437
-0.026485388198556274
0.06082885755254026
-0.046651818528611666
-0.03741133000354059
0.02480013038081594
0.01667882410788388
-0.013223776059410204
-0.041068394781106
0.003569160720971973
-0.07774270070001575
0.01616969447591773
0.02378262992619357
-0.05118098668988168
-0.05017692859492036
0.02020418083562358
-0.017999563748063444
-0.004041994112370832
-0.08063120858809895
0.004317181125954363
0.06686778704754848
0.018305522889955402
0.015245255044687813
0.011041395499914012
0.030065243607891715
-0.006266006123837846
0.06647319442391522
0.12433976574316041
0.01848139662598961
0.08866654261545165
-0.06764265596839145
8.053803316657386e-05
-0.03284440615455271
0.051513839150633754
-0.0998437673641395
-0.04676845302379661
-0.005987568645541439
-0.023811985132146676
-0.006658212844922221
0.03092074745785677
-0.0161677336168475
0.04567924636732072
0.05453933568036347
-0.01473765345895829
-0.06558126194307999
-0.02032843237533438
-0.003015825017769765
-0.003533478622256253
-0.017289931194236146
-0.0031091456930610376
0.011821411949402059
0.011227486946944228
0.0027740469117479463
0.022450910576978574
-0.07360184026750122
-0.07628291133554813
0.019611253500316922
0.005313224936601974
0.10436730586782256
0.0048741472816838365
-0.002320510494328257
0.027044907655551797
-0.007618617424987172
-0.08198209045219211
-0.02309191085522358
-0.0034268090806207135
0.014926298257255955
0.03500723903167308
0.03324063391274905
0.005850327240518961
0.001394236055550286
0.02010226858808235
0.0025210846309539057
0.010229803187365757
-0.03217788046265169
-0.017615683583145785
0.031315986937403915
0.022039724724561543
-0.003282881864327848
0.018518370608936564
-0.042589061861416894
0.00979546738615473
0.007789570337560991
0.10132273900850278
0.015670948557414247
-0.007500168709300969
0.04497308142329871
-0.002118788984403378
0.03267367799562391
0.029945645742377226
-0.0012480463094891045
-0.018279688319395904
-0.03346247523653866
-0.00437277210896915
0.01603116660232075
-0.02019891670718665
-0.0012486985159686614
0.019202983619153995
-0.14190680504704745
-0.04502503065952783
0.04623627962547081
0.029829586181796583
-0.014104197310324335
-0.046497914435301706
0.02781124880977327
0.024195964629787254
0.032448289122481995
-0.09991719701627756
-0.03321001425283565
-0.007746911095928702
-0.002503379413601888
0.017413465873257417
-0.004933018423982465
-0.04307669812662748
-0.013195246692161882
0.021861546968755512
0.00039857460855219107
-0.05647227880666063
-0.02181450412106838
0.047394872091218
-0.028198315102571998
-0.06879514238852902
0.033671472917382234
0.01787861118789501
-0.0029583789373630177
-0.008039379406814035
-0.011419213554370594
0.0356661831456643
0.03850296383559909
0.014757409710899208
-0.0030403273253089415
-0.04675715832846898
0.05999165978778071
0.07916632501740024
0.03155870376099716
0.007349442653282983
-0.0012998225837307495
-0.05415678824336888
0.0007352757779827232
-0.02279638846081979
-0.08585121385263363
0.01404711906796433
0.01575016007231736
0.021122241167789126
-0.004677821344928332
0.06523544632351666
0.040396807954454814
-0.006700359828399208
0.025377736011678
0.022696136233663677
0.05323047329860089
0.017830020129375596
0.010685310636385571
0.019487285082926024
0.010268313895099709
-0.035260400955136675
-0.00622821441174616
0.037190214986041435
-0.031203833925659938
0.10985993756843784
-0.012278087135249744
-0.19696331103689946
-0.02176928689388612
0.02711472719947073
-0.0163874115082094
-0.001826540964392737
0.004932777077326737
0.0015336757177977077
-0.058287059781339016
-0.00881000815745955
0.009831104028876882
-0.011730777490375863
0.010364702497390762
-0.035961023802723875
0.010939134636150979
-0.037480586592279055
0.031115158036552397
0.023732527501852067
-0.037945943865731496
-0.0208994427227543
0.01907656010981528
0.04095114357176704
-0.014446783741028944
-0.01440468538295765
-0.01443703748169467
-0.015844864024808482
-0.009691270240390213
0.053556648622228746
-0.012922871244719778
0.004011284982010081
-0.009623636373468929
0.0019825600510538785
-0.021947004468471122
-0.016590284207892617
0.001573030573948248
0.03762222300719995
0.03996908807211144
-0.015886848212153328
0.015229510919998543
0.00537662864226647
0.0187397920263203
-0.050140871391835845
-0.10292447324612022
0.17631957878827392
0.08272560179075523
-0.08286791766018996
0.028880007870323146
0.03108618996394837
-0.020871053935680273
-0.011507257914209564
-0.008214979050241641
-0.00709989206776392
-0.016548896532278302
-0.0024661042636102185
0.021962718157150715
-0.029823744385051976
-0.022712991121069507
-0.00150384964898833
0.00137857653871357
0.0066015839226029075
-0.007354872667561778
0.007594958892315714
0.0057045331885426384
-0.019101251689027078
-0.020014190013002215
-0.01089804649776568
-0.034050306380377975
0.047224472813481765
0.02262055211652616
-0.06335759864888706
0.024835714905694372
-0.02064259147941652
-0.026084867223136896
0.00873543486124271
-0.005733288241130004
-0.023083801918380612
0.027111956762223045
-0.0027596274783156516
0.060597181916449146
0.018308689763485715
0.006520095801206018
0.022142797153000233
-0.035023621012294906
-0.02949819076361605
0.032957624659502825
-0.03792922199799251
-0.022012570027695508
-0.03301508426922872
0.010713858777197601
0.20497954036871505
0.03884912847847582
0.00283695346303369
0.035345392144144894
-0.12072366422897804
-0.05320006502281377
0.021546270977205267
-0.03341679175272308
0.008056120890462683
-0.02422230002826525
0.003510736314358629
0.023514156088766818
-0.04653428841695278
-0.0826388273505333
0.01884333820290702
0.007300818452250157
0.03181996144023631
0.03401761688476531
0.018119731983702224
0.04875783845359985
-0.014138851887385426
0.003251467834769142
-0.062431327764345956
0.010449895762528713
0.05272109161279956
0.02308130301247662
0.009037931006446053
-0.022033184344327
0.023320276573492546
0.0017254493014142616
-0.03196452235190994
-0.003993748215841858
0.1463700578490263
0.012121337289508871
-0.046392559971049886
-0.03665507893468159
-0.006202923495405248
-0.009514432426677027
-0.029770671692432152
-0.00817819981335218
-0.02478201895174234
0.007553376070487821
-0.010211826091094575
0.04917423427469989
0.017954671546497325
-0.05391862258342744
-0.019391019365423635
0.030145768370174027
-0.029991357064760908
0.050170471577950314
-0.003357343019902991
-0.07456134107784494
-0.001686128170521739
0.023540218369069443
-0.023039411433832993
-0.0074861815456919644
0.005129143484976156
0.047071122593214144
-0.02758622041780493
-0.08359433652899938
-0.010017139022061108
-0.016295290963240585
0.039059613546627084
0.030123834241071176
-0.0021492857526439584
-0.04685744456630349
0.03373797837063398
0.004568660477433294
-0.07437494660092607
-0.008705320238024119
-0.016419607939755134
-0.01263504786836773
0.016667446035054555
0.025582550872680045
-0.019310098115720774
-0.009031070764297228
0.000887240543923003
-0.011362785052359442
0.04095786066185716
0.01650336041588626
-0.013482967137136306
-0.01505508944932464
-0.07368850686253388
0.1643444649361257
0.07289424465822847
0.009568527145035583
0.018515321848076475
-0.010264566694734096
-0.03549068253813764
0.1068958257914135
0.11564562678732532
-0.031505633542236434
0.04555443737085691
-0.02386209982923107
0.03772512549024744
0.005491862328280158
-0.04746738381577754
-0.04685755570668268
0.001529869776885839
-0.12273678413831288
-0.07950394024490731
0.030192820517509072
0.018306315779947378
-0.04439569503272366
0.025172018542806658
0.015345484672519704
-0.008658560641884945
-0.020573683139827964
-0.022157692451585383
-0.05137813456344638
0.022048993820990594
-0.16627712690372348
-0.05047465269359989
0.04568985247003468
0.10450773969023051
0.11140241995880266
-0.019136139533555696
-0.05778918171360126
-0.02220534555640045
-0.00664400573691534
-0.012362753812812346
0.015030842515010755
0.09946813624272627
-0.0024924053624502526
-0.04896407085578294
0.0004189471689449299
0.015490842844189045
-0.00828854567688202
-0.014098615053316325
-0.03141578853293675
0.044758489272293374
-0.0553579480888999
-0.047979561040229914
-0.03201396628399873
-0.020504959221559836
-0.03254079591480065
-0.039925594027757486
-0.025169232931550857
0.024338677183643225
0.016820234245058702
-0.027110230565627003
0.0919797243291234
-0.02632034530902787
-0.01822488772186615
0.03799737897319257
0.006915947512078008
-0.042308903141143855
0.16471964290109334
0.23483789944527939
-0.047130333510389893
0.11767043246948351
0.09339809471238367
-0.03697287711262464
0.047068533854673134
0.03394442068906454
-0.006910876863449038
-0.013406882218114737
0.023743510909663576
-0.042884092196230385
-0.049134039945394135
-0.00088694686094497
-0.04584909414866199
-0.04319399658966948
-0.009361354222561348
0.003595821566186605
-0.011156891968883663
-0.023980660421030902
-0.009168930873626734
0.0019350550984656174
-0.04914731556343363
-0.05605352271606807
-0.03052302492210565
-0.026563976114783422
0.024760069651621294
0.04502192812994153
0.007328720624264892
0.037890650885710454
0.01983883366128741
-0.013487258004162611
-0.02232779294449867
-0.005631086543508995
-0.04278679079621139
0.00045591530812084496
0.023742566566648148
0.01550316887402841
-0.027732209683223263
-0.005267754646258579
-0.12264394110297694
-0.0773952935525841
0.0014792593761054286
-0.004383686279974905
0.021759479667057016
0.02297773079081792
-0.0065497664322188755
-0.10160086543864837
0.03598069115251442
0.005673415647286936
0.09924424370663114
0.035303208319169624
-0.036212312478889556
-0.004333588962519178
0.012508641997412584
0.009370074318862763
0.0028369630161483366
0.01730594981252444
0.03139078698904996
0.009561161200531888
0.0030279938718999633
-0.003789264096589876
0.037355964259975206
0.058038059922871525
0.0210441405991427
-0.01752446063922493
0.009007735894535492
0.0029695585753599257
-0.034927651659980984
-0.012706789611526768
0.02884029561952981
-0.0785273890119767
0.009083573795566752
0.025651129636356847
-0.03111827699636401
0.018667774541161183
0.011101876837083996
0.009826477079664492
0.0474217477017713
0.03219159017480725
0.025558295602599135
0.04430163298403325
-0.043812328541864065
-0.004205965456056665
-0.000777464070389491
-0.017659287942361226
0.011253361156814055
-0.07229924041665617
-0.1033668733717333
-0.01532874267853162
-0.011255636523618268
0.001719456764691278
-0.018756365763963802
-0.012762274617597952
-0.01851994624156837
0.014765076328528873
-0.00754100449357631
0.0007578442553933365
0.00856820948992113
-0.001042699228466829
0.05010118645062218
0.0686535883877898
-0.02289046844993088
-0.028900715799670577
-0.013917919825835439
0.014882840352048878
-0.0614690201273344
-0.020680724904278473
0.026722221273700046
0.027574709537785652
0.010808990996755863
0.07703701345277959
-0.015465118751096022
-0.02443108778597537
-0.017993857186119695
0.03141562466292129
-0.022440255450744778
-0.04379497001268363
0.007143148098382066
-0.0842148505136467
-0.09209489839952754
0.08910262665724392
0.13050953716027583
0.015515739338856463
-0.0023339065431699124
0.015161646823352914
-0.016576357850743944
-0.030419352723905103
-0.0203700019775795
0.07897269015525658
0.026118990803399966
-0.04289384658956309
-0.02944567213153105
-0.009515656117943729
0.006954364110283437
-0.07697252688512424
0.026335444624432564
0.02097294833525846
-0.004309062705398032
0.0025138229834604808
0.039613255318200105
0.002438348699722394
0.005724387409971166
0.03906891157157092
0.015479703424726316
-0.036428397904342914
-0.05596860433995285
-0.026706646480055773
0.01805535849879473
0.022806163303984515
0.041712539453787834
-0.06072440193247871
0.11556624866948705
0.011901826203253757
-0.0692685029012388
0.037579727578720246
-0.036894587097573844
0.018296287486256464
-0.010405273973873906
0.005191949478583626
0.007767893570876199
-0.02865253143095539
-0.01046491960837976
0.048937762680818155
0.004114138244725563
-0.02676381423993113
-0.030105637148659194
-0.0066914644299678715
-0.014199535023926027
-0.034596206058498474
-0.01031388985443265
0.05857228609639542
0.08440524802071075
0.07508635282478221
-0.04638370318945842
-0.02573659082075799
0.008559005682690234
0.028143227146545654
-0.032539705943804606
0.0009916816585240093
-0.005242893102491571
-0.032191501312017284
0.004508222792535771
0.018235781037471296
-0.01563599074776865
-0.006831515182224301
-0.0023943369318813663
0.0038817332373384168
0.01335120804262875
0.004199789804567002
-0.03359912300388539
0.03767017648760271
0.024174299973530024
0.03384346854789189
0.07710487145845693
-0.08852085523493396
-0.029476081511215866
0.03665568668757532
-0.024100072565813487
-0.04083821179882524
-0.02728985322884539
-0.046299881293133144
-0.03517917040985471
0.01939048197771224
0.0006883602267405013
-0.01177397564872913
-0.0034926364627597
0.0035055317927996993
-0.09533090552625557
0.06417368340421738
0.11406923651330655
-0.005800289959539914
-0.06491275969863382
0.007257048223378761
0.014368461126562787
0.004652854305066398
-0.021995350869956975
0.09058924913910157
0.07960993346943288
-0.055990004320084275
-0.008633874296837386
-0.07635972166690506
-0.0648333951902925
0.003313767429611694
-0.011585849017693967
0.02774095003312529
0.020049237593056695
0.030419529249334845
-0.047335739248268865
-0.043624050661756
0.011596579499093491
-0.006274603135511733
0.017401540662815924
-0.01513681241668861
0.03299024445266346
-0.07560466570823925
-0.04746133430840111
0.037714243244270744
-0.02749117291454051
0.01903764943266474
0.00762216828812824
0.03751301256837743
0.0018176970036039217
0.008989120227997879
-0.009705626939777666
-0.000879531743972976
0.002605401134345584
-0.02173480083268433
-0.008154186537465098
0.059973226175781234
0.05907267368817174
0.1694339177609879
0.032414790849165064
-0.02214338191851241
-0.022446425564875278
0.012627930588066126
-0.07896155715241596
0.007843466984931389
-0.012419166910155944
0.03233052184212371
0.049733486629305185
0.03241907245288214
-0.02488326415243108
-0.023889729552320868
-0.01644222595963492
-0.02422317717839782
0.019024456561354475
0.03967767353808903
0.022140262492924962
0.0016197837121946846
-0.013805236895234515
-0.05775604191567731
-0.05879707025512501
-0.13176184038432795
-0.0029950900744115613
-0.02287940472192398
-0.13699059582674672
-0.040711469077142175
0.03488973484421826
0.024249292573475863
-0.027251319919107196
0.04317704511395204
-0.013010941011816256
0.06592983312886265
0.04240647798502272
-0.01868189522313198
-0.03984257492052872
0.10499680630051131
0.05901646590729364
0.006517410236775578
0.04077641138346515
0.033033752815552514
-0.047208491412717046
-0.019344921266831103
-0.08507998623203686
0.0949223644479154
0.07605756181535504
-0.002992892455147824
0.023626110185607983
-0.026573249149441737
-0.00045440519538785825
0.008861371944168372
0.030127963164813972
0.015599114130664294
0.023086533891958024
-0.055599776548464874
-0.019811742838628688
-0.011046414831565496
0.010119763727476977
-0.05438313970201242
-0.014399774831810278
-0.01859081738803664
-0.007582823090019357
0.01742932631012926
-0.002749183385454791
-0.02804125106838612
-0.02266961066756278
-0.011377368427607162
0.046132325880100744
0.05770485111361897
-0.009328992885292313
-0.0039039517421081984
-0.03954656774336012
-0.05413037589484349
0.010666383491332351
0.01282420819351651
-0.03862946923446264
0.009309005604989923
-0.004596693407190751
0.034974789572259773
0.06246009619054788
-0.13405710280724886
6.258022902604513e-05
-0.003123326999227298
-0.01096413243609346
-0.004656890178079334
0.1361014487905094
0.041439510911444044
-0.0801725425789633
0.0035386919023669104
0.016645783813777532
0.0427568470040464
0.022019593753221472
-0.024920490274818304
0.017840090487954284
-0.02206617281488366
-0.011370934059725083
-0.010441267127808108
-0.021561379706080797
-0.002089059182899958
0.022036354134619365
0.028622389148160145
-0.00543136173226099
-0.03374228963042463
-0.017561790417039525
0.01803438812246595
0.005312669346707302
-0.003045892704595812
-0.02919896734479527
0.0014309093060709771
0.018677651327236814
0.01601118546607638
0.033648006411613605
0.029056589246246517
-0.025630567738859474
0.0036575371915416165
-0.01774319327015869
0.06944725130136283
-0.017713973624395335
-0.045520331839698475
0.026735422896663405
0.013049909412549137
-0.03305573946600163
-0.09990187894470749
0.07390909245874083
0.04953068993688756
-0.0606550606031501
-0.0071674363214792505
-0.013334185195941626
0.02132534521856566
-0.007114510671540393
0.001096075557618698
0.028018239139557827
0.007902017887924603
-0.018845193378211316
0.010147062295705646
-0.014172734389198598
0.06631362355418816
0.016943163271735243
0.007615680349782312
0.012793589090640869
-0.1623516312766539
-0.0028929157114652307
-0.0495951526055673
0.00036697035163287944
0.014366653299043252
-0.0026542359257792744
0.010450576908690978
-0.010338013717525463
-0.010804718411636808
0.023366091656569207
-0.044140602341142185
-0.010072820753765959
-0.00027723754756063713
0.014206273953800017
-0.023682505394758576
0.050108684219124074
0.05926945769197055
-0.03862782968804829
0.011970116101288683
-0.006208641574056152
0.05016880930991954
0.012844682566814277
0.012776960940146107
-0.004698721429300773
-0.018664454493547287
0.005761370999585171
0.013372706405169
0.006710892195795688
0.0066759354940858625
0.01747218716055202
0.0030170781149441613
0.06836246482440488
0.01571111567023113
0.014684435405288472
-0.00576762599344429
-0.011060641586592285
0.007436383001725589
0.01632171437869895
0.015445909985779575
-0.03114532133807635
-0.16354237967469756
-0.04298420182406888
-0.03294641049825934
-0.032956660770510515
0.060897369038687435
-0.015771184524075724
-0.03213398633068762
0.01948654501531948
0.006324344407744287
0.04119634090231588
0.04114396617828188
0.04766062723071271
0.05459878315546588
-0.07890567503511582
-0.07128406284430389
0.013905304521186492
-0.0172554622936006
0.01132615941648331
0.008855318038040523
-0.006241101366568371
0.00722246791190803
-0.005755366521444218
0.014615206776197641
0.00801046079229146
-0.006720006881192786
0.015880362437849082
0.05271383761651739
-0.01578430809398422
-0.022002694017008363
0.0045324953034347045
-0.005370600903750799
-0.019712290762868387
-0.035681008662228605
0.0277035437681964
0.0677561939523314
0.09613791132731866
0.0009165690351821644
0.012437541649500996
0.0021898623944141557
-0.023340395980487667
-0.20802602809923526
-0.04837417603860677
0.020934421711192676
-0.001741229802840708
0.03617489088383242
0.03971685069332984
0.0029087677856075886
-0.0019207621066567157
0.015678413389754845
0.06882827077269842
-0.05429632820201915
0.0005043863198681075
0.06508620322472851
0.008049271779322058
0.006542987065959123
0.008423292477865945
0.01617209095541076
0.012720692272084373
-0.004236844449824028
-0.005596595439656873
-0.012730612184444547
0.068996387963429
-0.009565999464208328
-0.036515793203429264
0.016782940455010106
0.0017575731008560164
-0.017254614019602196
-0.017023992930438384
-0.031654608395419025
-0.1117334480623429
-0.03401166009331675
-0.07774851055510298
0.03149139757984662
0.13738699194292964
0.025304629979892714
-0.07928388693255464
-0.007348287690219404
-0.015688176685663007
0.015220641429709608
0.01152122507647644
0.022350734900702326
0.014565534177452667
-0.019517653318756427
0.008316644846839359
-0.006017094521207086
-0.038855665410544686
0.019164804791586044
0.004886168123160488
-0.030963731277108063
-0.0042520436484801225
-0.023634840767547863
3.0076847606667774e-05
0.00498332085770966
0.00802212392150214
-0.027785786659014305
0.013281566278421622
-0.014612533344785973
-0.01796831438801646
0.04351608568869198
0.02465729063177141
-0.03572865342695139
-0.01620148440168308
0.07315572570840109
0.01984596916731121
-0.0022749541141498723
0.002443609530891917
-0.020507695705107618
-0.008277807291148149
0.05190652928759292
0.006012337724189138
-0.006753335063270416
0.012502788252607117
0.00850013428220727
-0.011539667679359693
-0.011104314936519935
0.005358868427441312
0.034946188857049185
0.009249280141164357
0.011483373407388364
0.011454996243794697
0.04554435996378515
0.04805741961185768
0.006946933710225386
-0.08300525275426694
0.009454455874451264
-0.025008112582954493
0.0976110614030519
-0.11470680670029243
-0.10770564899786776
0.043321917723412394
0.014364210417521572
-0.012461821110568958
-0.0202903828883836
-0.014340984781197112
0.03893390401918896
0.10912443449541742
-0.0474498562378168
-0.010352427424514924
0.0017371316291950416
0.003891711597793211
-0.14999514022527155
-0.035971739789627664
0.04905043442874352
0.010883962302625344
0.060938348759297906
0.02027184105366215
-0.016319255161782346
-0.01158143998385649
0.025744372392632314
-0.02402747505280851
0.00011027446518916999
0.018852796820109135
-2.8435140604912134e-05
-0.009500878928622588
0.004410610328166298
-0.019308509364057744
-0.01841999696293851
-0.04123054090643821
-0.023813738615506293
0.03324051236532752
-0.01252353586600225
0.06491427497330919
0.0715773391331767
-0.08010244510886301
0.017162102397270014
-0.019037879092526612
0.012016131023986687
0.04699078169844674
-0.007291518821238941
-0.042448014931539234
-0.013962769166008656
-0.005951624537626631
-0.010389132657627122
-0.007293603469816122
0.02966980364692845
0.1235053989580705
-0.08195443132129134
0.03338699212355978
0.026363724669643346
0.016726294682742032
0.02216175124981321
-0.03568463986668827
-0.0064202754270124675
0.0038718204262226576
0.03935073520210445
0.020300524179228948
-0.004071872975593608
0.008621316459795022
-0.03671189693491499
0.005923715080853348
-0.0016234725670415642
-0.023449281536573333
-0.127932719687623
-0.08043746134847779
0.08155443663261693
0.013235530916917811
-0.045824823177369634
0.014314665174139724
0.050996542180533976
-0.020385616559295525
-0.017335355505677382
-0.03880381090353568
0.021243408138640667
0.005800726678922855
0.008426030925019212
-0.005896263546112601
0.022607438663007347
0.017211207743954036
-0.0032257697676552513
-0.030361678310066014
0.03213718128461424
-0.06780020149697193
-0.12425067627922909
0.009758623731606483
-0.009255088286639785
0.006500063670340125
0.16921685316613289
0.05451365851855355
0.06372923137152314
0.025051207571545466
-0.021503059953663518
-0.0033146260700202762
-0.01146621127008501
0.026253134252908043
0.024912668061267008
-0.01625303224856114
-0.032334059075069345
-0.006893696888327556
0.009443724870669147
-0.02514936311338447
0.0298232319978767
0.0878183450879805
-0.009601470496966382
-0.005910540465513397
-0.014455884100832888
-0.03649434657111597
-0.024197148463192895
-0.06480897454451974
-0.03213734540388859
0.0023962965049690965
0.04241640622589788
-0.028797443958295643
-0.04294654882647725
0.030578316236915617
-0.0038769012891093128
-0.033955266293803875
0.03770956389213348
-0.039415045031649734
-0.029649888884343036
-0.06351747253284062
-0.10914340866437051
0.014037718424530993
-0.021190863564496978
-0.01573970695034501
-0.023498817811982625
-0.010777887907982609
0.04668883681188499
-0.01837085466755236
0.10622270650021581
0.059278053243567864
-0.05084707565549668
-0.03203285617726712
0.04061017585657911
0.20526396506489644
0.19067843935138856
-0.007033055000339979
-0.08345620167058704
-0.046268522570615825
-0.03999677452999926
0.029012864594260494
-0.03255822056352623
0.014452537159734652
0.0182436592086637
0.049607484344906014
0.09265447947294712
-0.01449603890649054
-0.017495995300178063
0.0020540043516891157
-0.013573231537359117
-0.020220843071700655
-0.02073641914576957
-0.010360111299315862
-0.0032261612782014627
-0.02282565001127851
-0.05004618121997872
-0.002406706699756943
0.05236982828139109
-0.006127176914462486
-0.015598364229198603
-0.018794988830849697
-0.035597040612680736
0.0057499844926655825
-0.05645877080842705
0.012765317199269495
0.065987252101133
0.00262073438553455
-0.03325249785566808
-0.030414167131234786
-0.015875482259691202
0.021975691357573063
-0.023273351413816753
0.026210183394972802
-0.11800896021282871
-0.05441348657708153
0.0006780667542751233
-0.028540025035690864
0.004116742304384062
-0.03126244181539073
-0.007444354511833259
-0.02056025611775334
-0.025864462872369345
0.09815321878185776
0.09824632812861592
-0.00122562637930168
0.03863571293537759
-0.03179392116598565
0.01769617942776525
0.05193135342431896
0.023476649880955932
-0.021442292507668693
-0.009305537187163615
-0.02647859525619357
-0.016303257174059144
0.06018315450706425
0.004126060920223653
0.01552179994436386
-0.024935838793588464
-0.03200607190501925
0.009151156628857083
-0.03646121034204278
-0.011151810836184252
-0.027944572137354493
0.013487099039588833
0.05478053456642175
-0.0424914151474089
0.12947635262703064
0.039054229000492234
-0.10029801965698382
0.09571026220010134
0.06665141552541895
0.038199475423353495
-0.021027040971053713
-0.03311273709333966
-0.04316047300924386
0.033632097716917164
-0.015770046192125863
-0.03280682826041058
-0.007764436560223915
-0.047591640252003256
-0.018747827997645433
-0.01305458579278414
-0.010962518564331438
-0.026549473571074962
-0.09837268276636862
-0.0005593519694295228
-0.02441778497515048
0.010627730665049632
0.031947722843257885
0.027099054180223837
-0.056114599345973834
0.053308949068032886
0.057327863662439096
-0.00047273853627152117
0.05882256276092901
-0.013521400026352914
-0.012273645650939443
0.047647587869956994
0.008166598292183518
0.059402852625031255
0.10070609781588438
-0.01856550449774303
0.001800398574316383
0.018554255008764387
0.016716600586470225
0.009249547636823233
-0.02069110276714926
-0.05377717569961441
-0.0127045517523567
-0.023629046839376663
0.020275265538562168
0.006639745406600912
0.008156429102898925
-0.03416419054801071
-0.02998148210512035
0.027540627700197225
-0.11483920560244731
-0.09116341338204255
0.02690170991874462
-0.18723282245935122
0.040783238078061904
0.003801278193300407
-0.00701696043413659
-0.024222313211593603
-0.03315637786137404
0.017265424883981712
0.025414473335816878
0.024274343735752994
0.016786428696983203
-0.009613037643166423
0.020403155860520054
-0.010414604160007026
-0.0024185625958307857
-0.019958167975040297
0.0898486218356611
0.03255530114225563
0.021263273161968636
0.027657270983763017
0.04474835022467363
0.046261403143863115
0.009708717042944497
0.015460967668034356
0.026383033303384082
0.012682365548733508
-0.0039608021303472905
-0.005859875287963182
0.010270200848196543
0.007878242016120312
-0.005925999757047119
-0.003166308649241606
-0.024862204222235715
-0.09831047523038969
-0.03445261321549264
0.025261317597323987
-0.09459876791240866
-0.046112796264681656
0.10700327420300702
0.11158910803087738
0.033869137933918346
0.02880825251483492
-0.01224117080950376
0.010792474110722377
-0.005283648646272469
0.018677925925643993
-0.01814903422925135
0.022406419294423736
-0.02116764526041807
0.03403412800684393
-0.021062636565581872
-0.022358131269213363
-0.05027968625492346
-0.054460706185017534
-0.0025953852149375803
-0.012921299263175944
-0.009524583771480298
-0.09998604533601074
-0.03566884801224854
-0.04662648136933498
0.025225728634735236
0.017287671301211175
-0.0067063106870498
-0.005336264902568628
-0.004853027987483525
0.2527524631643152
0.05014770247695614
-0.026065585570267315
0.008744104136656283
-0.03627800029122605
-0.06171229220291143
0.0015270237045393964
0.030216909814217225
-0.014994371802537295
-0.11353187075961894
