0
0.004861057653865368
-0.0027250791457750488
-0.004493089159086101
-0.05385054233747929
-0.018166640500495806
0.02260904248332879
-0.0792425794872888
0.10890717903256832
0.193859807263654
-0.09959608086619848
-0.034974620147090234
-0.013129387690704743
-0.004144440113923362
0.013964077872188469
-0.038329815319550396
0.011927027090323866
-0.008615967063387664
-0.010434209233423452
0.04032003298213549
0.006019241858473013
-0.04835642437819874
-0.0011504419001100552
-0.05945885544015342
0.06534049573493318
0.06774680192612242
-0.027958133973044204
-0.0051202073330193255
0.037833241267940826
-0.015638137914707487
-0.05011644582912633
0.058887598990347456
-0.019911178345950017
-0.04813537385614758
-0.00792337873039868
-0.01335666956724761
-1.3640631844135265e-05
-0.012706628680491057
0.015001108455158382
0.031468680831890555
0.006788369477728851
0.09278444118545233
-0.0012347961064911057
-0.03602309392568816
0.04564279725994604
0.024343395448583466
-0.01109676913398185
-0.027830664701617144
-0.007835133721809795
-0.01140311147989473
-0.009304838188707669
0.010536086596209663
-0.009508406465882368
0.01109309428090282
0.019282635871352958
0.009842315694833516
-0.000762286538550065
0.010154120902494358
-0.0023954875672484136
0.03391632905193185
0.02838461769013756
-0.018232437882225738
-0.011619737188164362
0.008300193537543403
0.07403711413756955
0.04894261527742481
0.008691918449080844
-0.012308586043360839
-0.02568597341471685
0.035692213794727215
-0.11486143585534964
-0.23827692018465108
0.030889351015037824
0.0006771044678561881
-0.0021716767430579706
-0.004077609275443251
0.02658229777472231
-0.006986739564322749
-0.0005176350085038688
0.005185000002747406
-0.013591625228632883
-0.03386731703532517
0.026977107245995485
0.04596293024901815
-0.007277967339931437
-0.04227456831909123
-0.04198897970039656
-0.0029217751309429346
0.023189480659620065
0.02357693652179938
0.0096151236550454
0.005357727084575779
-0.015358804445746374
0.057647552659928235
-0.044088859245834215
-0.09004192974158869
0.043295213388145265
0.018011172230123444
0.01952925197619125
0.005078431209842277
-0.07272533048200383
-0.020215800914211646
0.1674114270816967
-0.01581143550165611
-0.011788866076930561
-0.0037759656993952427
-0.006046247031526935
-0.03925332458810589
0.011917769373315738
-0.00821072422141233
-0.022225909032791587
0.0009773877388877911
0.04177909880205112
0.07664114143802946
-0.037099542913340236
-0.026326963009752683
-0.011680816819847745
0.009168116384721743
0.016522496953859787
0.03687254968166667
-0.0011335736218034368
0.025375378754696903
0.01735115896230824
0.0009764045236350244
0.03409313382964955
0.09662498086649607
0.0013972266845967312
-0.028508855261882078
-0.06221238865443126
-0.09769404240075077
0.0009802184338528449
-0.020946990809000445
0.10682122919856427
0.0460949569783499
-0.003013228216750511
0.015104207004206829
-0.10436765210085437
0.017564384567507575
0.04207791148095355
0.01663090327365592
0.006810578782931463
0.012614101178452061
0.023415054999473946
0.03990776332632444
-0.005573713541802685
-0.03024890857638481
-0.0012874111171231658
0.01507575315997069
0.028453114563513796
0.026711290159627376
-0.025479319597376534
-0.080168909727912
-0.006338814808530711
-0.0034974105335230186
0.010893415526533709
0.0006689834400254091
-0.006771092575193302
0.018045933822372923
-0.0731761939844617
-0.11483115811622
0.051234897788229844
-0.034536960513801104
0.025808966956615564
-0.06041207855741307
-0.04570154887991159
-0.015220926943063331
0.032042445257003456
-0.04819966583525948
-0.03664028328262075
-0.02913006780260974
0.00043988665574306896
0.004645874723352034
-0.008549413630006063
0.02666292560712522
0.010437022866916938
-0.00733025673664051
-0.018684195602673734
-0.00924889995560679
-0.04162201259793754
0.023249958548880748
0.06118835059963027
-0.01651926678545805
-0.004695335005112026
-0.002813651995832448
0.0006368303683601649
-0.02122914313816149
-0.011068212667211868
0.015143059462752592
0.007921605837182401
-0.051310554820525926
-0.005648015484476674
-0.015466341458619538
0.014415366501426524
-0.04707472616368806
0.018558122355432756
0.08202816966745238
0.05548348992104406
0.08716408434369366
0.13114612505528117
-0.012192846518533708
0.05528474139148424
0.04554389799377022
0.11566881009803057
0.027806266485029978
-0.04131135231713301
0.0012883578271117658
-0.0015531329536641735
-0.0025455902109734903
-0.010910277044610879
0.0027456539039479775
-0.008268916186363088
-0.02246189357330172
-0.0004279103083431721
-0.020987817853356655
-0.12163541969733546
-0.024522956378150145
0.015272577774531289
-0.0012845651974465512
-0.020430601848155747
-0.004582545475807639
-0.016591322265246945
-0.0015821067813700474
0.019094779771652744
0.020538441855499856
-0.00408568146032793
-0.01371540469376981
-0.012317877493695225
-0.013158972989143416
0.007458004550418045
0.019418485798231386
0.013134217801749677
0.010776339114235277
0.011291082362864963
0.010903176258894545
0.010498464587869584
0.0013330585640413597
0.00527858264487466
0.06572164571323523
-0.017884989565602992
-0.02700255553045296
-0.0038409441936905725
0.027282013958334236
-0.012050777721378159
-0.04251317270015273
-0.05870914440300545
-0.046747092028941825
-0.006919349818295545
0.002325823056580933
0.034158876951074155
0.0011050611392778868
-0.009340998029335298
-0.011238344593311392
0.011469768973230631
-0.08606159638193245
0.005529437691361544
0.0037404634390654687
0.01769544031340047
-0.012326549465718388
-0.03249829754152045
-0.032318422989721936
0.004576688071036687
0.026899388920175477
0.021664549538357225
-0.022790057571781437
0.012470881237141802
0.02214885262452474
0.03991701759106393
0.0015704783751905973
0.008721945319589608
-0.0070024610186598096
0.0055573734248568355
-0.0222896273503825
-0.0025609548074805645
0.03089659097870018
0.01624919858870009
0.009824923935897213
-0.006291664569448995
0.008950422989707286
0.017880247278243184
0.005522616318398703
-0.0035755441278151954
0.002323061001760535
0.021904370458742498
-0.023853611766365593
0.00852500647661612
-0.04433641201394852
-0.012301371614149943
0.012748726314843804
0.0032493963682207693
0.0034311441985866633
-0.01709900183085507
-0.13766557682592462
-0.0010045714948927929
0.03197108126507391
0.007926586207099436
0.004595471592228013
0.03254128003354051
0.014016402249995044
0.013635481542115918
0.10137998342093506
0.05050063597108511
-0.11577630873593223
-0.034488057313557814
0.014812651175894554
-0.010059066843020811
0.0320717705776748
0.007442489763002144
-0.018005505596117157
0.011198930261660038
-0.008664643732474532
-0.030833063903714483
-0.040402320698741286
-0.05345897246732465
-0.007614329011616854
0.03170091065922332
0.022530027419429714
0.025768858613037175
0.046103803898791026
0.002770809687390387
-0.014861244881179531
0.07269916317634534
-0.038212289976736695
-0.09437223196752366
0.04563019958756083
0.020951564593857643
-0.004808658134193037
0.022289629736289163
0.020565725716943036
0.022871675930722403
-0.007814379606337336
0.03193970634543924
0.015412763043773658
0.0004361205170908082
-0.057250432721375755
0.024577731076152343
0.03564684896912997
-0.026086697975509266
0.03959768937990927
0.08873426741665653
0.04427149055421705
0.008381704289282796
0.012340221714153957
0.04691042843450329
-0.024881172646493952
-0.012776275167663683
-0.11835582015087284
-0.11904912777689791
0.018676335582814955
0.00878842102210435
-0.0036425673900133213
-0.035781879582090816
-0.020452441836053
-0.03070715393093324
0.02049423947533085
0.0381855111665433
-0.0944581364873693
-0.07056777347095022
0.005108668467788163
-0.003485845759076209
0.06419860688942886
-0.019320287376629146
-0.10021053063587979
-0.015716686525898464
0.03282580126806468
-0.018745612454484233
-0.09890672418073691
0.003315048715455252
-0.029905214369496516
0.038793387705383015
0.09372051668289104
-0.004163335824534529
-0.03999080369948323
-0.011102662386460758
0.08094557580267822
0.07940211996762415
0.06147719789873893
-0.007065862213267614
-0.0020867733634688246
0.005275074367841378
0.0007896404533997871
-0.04384506030435378
0.12063191802433117
0.08242681797540682
-0.03842166858632298
0.01691971659809734
0.007029946435669872
-0.004376691646745828
-0.01131632112641521
-0.013991187188366982
-0.05367778249960877
-0.007989202398795381
-0.015672179804257252
-0.00429412614441896
-0.0011521912032013686
0.023678120239474812
-0.024775818428207634
0.014203796717838682
-0.02118442257055138
0.11916864205203198
0.10305469350064532
-0.03466746205214664
-0.00881058174013209
0.06216627073261302
-0.19409975215148
-0.1449999196746557
0.029595393237964156
-0.013102155072916889
0.13831407185634975
-0.0024520981730660873
0.024150177856197285
0.07070757706515807
0.07805733133130828
-0.0028125533229856393
-0.017910535655300874
-0.06131899809600983
-0.03601261896248318
-0.06377569101333395
-0.02522441169544788
-0.010198294225253413
-0.013044970404027995
-0.027970318402111335
0.007589997341403259
0.03284042819983746
0.015466993037838207
0.019481416245950227
0.003314316159841044
-0.005663890602003251
-0.030371493046726865
0.006735202152788073
0.026067481644697563
-0.005776470441078749
0.03112524203701747
-0.0016645327073042202
-0.06156816954872282
-0.04118024597026389
0.033399172078703555
-0.14991985787300838
-0.16180553736455378
0.09250047400728059
0.0702320128696725
0.013225854930462026
-0.0008179659851428194
0.03444997581568583
-0.036447898304892215
0.11164927564612577
0.13449011914711492
-0.05168774245922317
0.047074316836304426
0.06748269799953725
0.0018692015433755735
-0.021645200300679845
-0.05002992491342727
-0.04112096197787107
-0.037840320375751337
0.01563805423856665
-0.024171734876354718
-0.04622803317376885
-0.04717690302328485
0.0626603349586727
0.06558558347114064
-0.051746774309977754
0.0017290521511680757
0.04922431402708961
-0.03915801735268262
-0.04415300579944795
-0.007510917400759758
-0.02860220634454049
0.030277945732097522
0.017062355078919574
0.0015279188215885904
0.026769568238213803
-0.01948027204484644
-0.02530299972961211
0.005702330909938229
0.02085835029866438
-0.037871993582405734
-0.018417802799783972
0.008982459742634135
0.016061881373387564
-0.018515522008522155
-0.042028710202744055
0.0018240920015905567
0.0076100265218003275
-0.011455593699149119
0.007914639882451134
-0.0033130738010272508
-0.002855874031511858
-0.00699797024724729
-0.004942547193776883
0.08767653001304745
0.1100537080289502
-0.01596252414269481
0.008572298521302923
-0.030042686387617437
0.015516838058160148
-0.05148455269813167
0.012214295465010154
0.003885919569976964
0.061576618085631
0.09459886750279851
-0.022125001279931923
0.006821018637254189
-0.015296054886494857
-0.032595055720415544
-0.01626385659901827
-0.01232558865985573
-0.015095398642325978
-0.009694873043354464
-0.0067138198417598695
-0.0648505971284372
-0.05381005435272119
0.08102711159520187
0.08324196519450724
-0.016818825155442106
-0.01224767448061434
0.0037000784155729717
0.05077268474933392
0.025491632816872823
0.015386609279015657
-0.08180770037569705
0.010878733324079137
-0.06428848278213367
-0.06363411113686598
-0.014972873802783063
-0.0012915554581742316
0.03141470849762695
-0.0008612731414500261
-0.0322846198278567
-0.01067262414728839
-0.011823472081430024
-0.0430284890414737
0.02561086988253488
-0.020222832751005403
-0.01365957471456303
-0.03072140889452044
0.08507320361965331
0.07074572229410399
-0.051694761073732415
0.08520544366762925
0.043744417337103034
0.025039439697356742
0.05158654639850664
0.001303635782297651
-0.012895005666281012
-0.00020364397659766812
-0.02416652808418056
-0.0059003695875327
-0.06318813606963748
-0.05618490581748252
0.021437803441655252
0.012402061752118335
-0.02078435917911147
0.022505104417178644
0.01977042421870322
-0.0036019563456366832
-0.01641663716237819
-0.008272953791985801
-0.007081225462197843
0.0747254151379708
-0.1212287181841413
-0.20545527525524607
0.024886283715062116
0.05606387454058186
0.03928832709234537
-0.035200235517178206
0.03982065874846793
0.02668970207518923
0.0013178206868801256
-0.06562708851659266
0.04940727796550547
0.09247863190946429
5.486545707140895e-05
0.08821416845306147
0.0545728799585524
-0.024984882384557396
-0.009137696354907238
-0.016320815466799914
0.01313516382012427
0.04355607194577104
0.020891429205437132
-0.004782326017572318
-0.07507811777888891
-0.08232627933435978
0.0149884657504506
-0.019430080984962305
0.014731150334071378
-0.054403494189689976
0.02403382627539262
0.012483090834772049
0.01762833036744403
0.006613194472328121
-0.0451218753014808
0.0871885165495735
0.09919954598743275
-0.12216844908064538
-0.05006019057601767
-0.026899572848607237
-0.012056830110265659
-0.02070551116477288
0.004988737690242377
-0.04056317559696692
0.008790601289767547
-0.009403061899618783
0.005234955022038734
0.01434088393700216
-0.02042735280250991
0.01308953302449428
0.018275868612833156
-0.003107892711869584
-0.005730327112505385
-0.0075820793690733095
0.011724724252832058
-0.02850685293458073
0.02930770380774277
0.020000500355712766
-0.01769327883224913
-0.011272346258702833
0.049512708046847716
0.029745969377501933
-0.009230296593629136
0.02584666104890968
-0.02687584460603071
0.05470218058803587
0.021059099632124406
-0.019418836821497358
0.020784832238254333
-0.00745451313452789
0.021541930801964607
0.024199750170522834
0.018020105749669498
-0.0034482339459548377
0.00536359675414287
-0.026840916657038465
0.014338016916639853
-0.024246424134107984
-0.024729572625436007
-0.007611756859652743
0.06313687498111607
-0.0036467081572710298
-0.018049207428553777
0.005210250561875994
-0.016352615620752117
0.04905892240037373
0.045651034725514614
-0.0073640592818339885
-0.010772443189316106
-0.02109134809595391
0.02589582873233105
-0.016124178879597193
0.016168301979933568
-0.00962159251998135
0.012766291012104896
-0.12279809539578988
-0.0018051298059964752
-0.021004964968680484
-0.03973661056639983
0.0014755655397742152
-0.004845447545201359
-0.020275920659737497
0.03314064250662994
-0.027994669353536044
0.07188840381359865
0.09143831596342666
-0.036018228931862475
0.0346028369830382
-0.023668185181596517
0.012557672623514798
-0.007201680075746547
0.027846156463029577
-0.029492905394045168
-0.0823118956061526
-0.029302926334434563
-0.04246300287322881
-0.019041137878882314
-0.11138018068421761
0.012839054593449846
0.009864884042508236
0.006952658703364531
-0.017959379697263075
-0.008145909529518231
0.0131823641554732
0.008818184109232399
0.026859930399199906
0.027388844196864458
0.007018172705993897
-0.02940850238096244
0.007617248317262332
0.016399667136830488
-0.006385099571492352
0.00436591000706771
0.031108546556743187
0.07030771491400205
-0.016057525503711742
0.02524387456274157
-0.0034220582205634073
-0.0243145052239471
0.011249333651065606
0.0037589490926956564
-0.005158299393555122
-0.004274800392311865
-0.09548304051623262
0.08101540815436212
0.04896681799529091
-0.002925335757055501
0.00396219121684501
0.010440029509876991
0.03164709600518388
0.0015677838594126844
0.014342952800233875
0.01937772746106908
0.008640230241429207
0.01640206879954545
0.0043795466255218
0.006093973871091616
0.03447241627493827
0.021092872044312764
-0.015073699076976569
-0.031817238270757435
-0.08773843838742297
-0.0730016516323937
0.02234683301020731
0.06318689030298108
0.002735797224964604
0.034522820984638485
0.018784591800060712
0.006947554756591579
0.006964684062820501
0.0028242926869088882
-0.019363550998511603
-0.016373525870292973
0.01177608930814442
0.010445653527008951
-0.004579207421794398
-0.1197006005149384
0.027368413116371924
0.03087926083188451
-0.0341166256388315
0.045186444343359757
-0.02562339555669738
-0.03394044693930286
-0.026890188710369908
0.0868256389569446
0.02472127154947613
0.01961062218675043
-0.016530684333219636
-0.007766881629003238
-0.017676084616762136
-0.02825932486175218
-0.046445994016545464
-0.00024077170420971512
0.0025795537534367037
0.0010091395244560656
-0.0835188721001978
-0.03193411185879844
-0.004948189981546448
-0.0076569461753549905
0.0058186874998797985
-0.010720266923387947
0.03004845277778322
0.012970182257751843
-0.00876575165847389
0.0018988019159042137
-0.0037565024626580804
0.0432672805356507
-0.02943573477967793
0.1471602972746194
0.06366565395635533
-0.06974894482909194
0.04269475966382382
-0.09802500342508567
-0.056038231002352494
-0.01656869391606479
-0.023189671384946247
-0.026043098080849564
0.008272585525330585
0.015834916597301574
-0.0015226187166381573
-0.02212446564618455
-0.028402880143552328
-0.0011573144577971292
-0.009808761293846058
0.06363302720254917
0.05291084768353017
0.025571312067513192
0.005212399010270264
0.002571460796119565
-0.0011858987510010833
-0.01736167089204611
-0.003626703428353868
-0.003482856755544463
-0.02936303846349201
-0.038901554021714406
0.004406536976783765
-0.03584423270166147
-0.014784689611285366
0.02286836931088635
0.05357654895696463
0.0031106681222002066
0.025950187999746344
0.03110241646840787
0.005916161848801866
-0.016712204617616678
0.013611958703762113
-0.05266353536473267
0.003946295862122525
0.12966670756866985
0.040965286297700264
-0.042168471586107
0.08068292088252954
0.15714816968552164
-0.024938940784201724
-0.04132401014012317
0.015434547965186824
0.03548786432826643
-0.01999855137477847
-0.0031288492066130057
-0.04741832472761839
-0.023265416212909944
0.023484667544490908
-0.02098417678588005
-0.03048082861445937
0.02479010527777136
0.030288380986657024
0.015673146304353153
0.028138054020663255
-0.02391568397738506
-0.031064641816271187
-0.021650848147380587
-0.048814882755365954
-0.01170881513588699
0.07771175273993698
-0.16006417957772662
-0.1433010902437385
0.07224922227006794
-0.06315703282613133
-0.24383207170551344
-0.07072924760254766
-0.02835736303496145
0.02095762049637928
0.2240425707035556
0.07982038842702349
0.012571089866919237
0.005239842465512135
0.01500261744324623
0.03075204258478898
0.02282979431560514
0.0058455207632432645
0.020137801897727833
-0.0022172980111937754
0.03428186367168627
0.008913023084702114
-0.015275402359512885
0.012099230557646242
0.019126824888281664
-0.005294347089423203
-0.06749901728068963
-0.02666970748587345
0.011699381943642883
-0.02896862084844623
-0.01859011137703461
-0.013576961557449295
-0.01038073601808686
0.005472193082818995
-0.01828477992980539
0.05599061112006714
0.03234934127182418
-0.0038776599044186926
0.016394409877999474
0.015027394523883979
-0.006250571691502752
-0.018649039580993194
0.016225659272108624
-0.05916887619827074
0.13286543905058126
0.06697732962475242
-0.013813316542924966
0.01593553171277683
-0.0346284587547995
-0.0381399679974431
0.02416698731720384
-0.013167340942283341
-0.00925043093991221
-0.018468160606765087
-0.023585720033631335
-0.005157083645738192
0.0026349235005934477
-0.011060516399009079
-0.018459065520367218
-0.005611326546066882
0.010116546712671376
0.012275623338626777
-0.021693787522193465
-0.012797970524942543
0.029810711185890394
-0.0027132589455585417
-0.02505475601149166
0.003408572044224263
-0.031427545241845024
-0.008444558604353742
0.004117587560701543
0.03920253228137782
0.021064614805047368
0.022809987874208976
-0.027245392769447582
0.012472241172571081
0.004952081321804214
-0.04276295837901099
0.008028963246919034
0.012696734618931107
0.015713840595757072
-0.0014906294085567904
-0.01228189905171353
-0.012544637093726106
-0.007482426459124819
-0.02005999967855376
0.0039058317792679573
0.015973457545041727
0.045600431604470984
0.012156364014505601
0.01729264605144679
-0.02913744078465948
-0.04937575752157847
0.019189731655895704
0.029900497115404757
-0.07346531343792066
0.06224671777252216
-0.004896716540865122
-0.08893572013990235
0.05532691803464765
-0.02296217359159553
0.0073256534250587795
0.0030182807838379476
0.02342454328906332
0.011476778443435887
-0.09207393115045755
-0.051625237488243186
0.02743986879338276
-0.035871016127696616
0.07943544437547458
0.05797518139830934
0.11109959084432111
0.09858430286949085
0.0032797390631916163
0.015785606534050912
0.030353639776205844
-0.01076902684624553
0.004920774673688987
-0.018494076194610392
0.015295624583618677
0.025984988752282768
-0.013185776897646894
-0.0007057241432278796
0.024008844503332075
-0.0073100626442504455
0.021087321650009226
-0.17503238394027315
-0.16125128532677258
-0.052328895983834334
0.01181411448873772
0.018687003008351955
-0.03445853792014104
0.053091098307869164
0.01544756821602264
0.020955137534530797
0.021179643659755738
0.013116397155441693
-0.019799034940974018
0.013134477294535306
-0.026974231249505966
-0.019612624694033486
0.0008222504270151536
0.0017096798624104137
0.02362443207335125
-0.027274762931549592
-0.04829610318717731
-0.0010791402215788012
0.00810470974344859
0.020671233635445707
0.03685242715000025
0.006727125066931418
0.021228283663346885
0.02021722085181071
0.05618072917137335
0.03945249845595304
-0.025765115483728306
-0.0003909363431163461
-0.007809913197879386
0.0007177054292442116
0.009453148407841292
-0.02637709221055759
0.023917234325826178
-0.06323530969889958
-0.09176537095096671
0.0009924973459168975
-0.013023687972450465
-0.05658615284405566
-0.03640919061071555
0.05408404159265731
-0.009297069686457368
0.007345717851171877
-0.0055377612773368935
0.008418460391425417
-0.009214376705512327
-0.005966599756958638
-0.017090089090765176
-0.05538006221133273
-0.04892457180632376
0.01902871568578422
0.0007597432707221554
-0.006915125158520238
-0.01612329238901849
-0.040325877763109384
0.031047427515395857
0.13523609251374782
0.007122571572673901
-0.024136021828149175
0.01285758282138822
0.011220861150047253
0.03291640770643682
0.1958245246881322
0.023095981278628042
0.005739567465797957
-0.00174865105274713
0.07457128970377211
0.05079001886545069
-0.02286674911671326
-0.018663983883464602
-0.013902720676677905
0.02923438848339656
0.04389258174304446
-0.07448231880566716
-0.0027948110104021387
-0.03285352039990702
-0.04309246014876244
-0.030326211584087433
-0.0042163715933140064
0.019518405367105
0.03173513635725859
-0.014982206938334562
-0.03369773572322405
-0.032115464120883716
-0.016972893607229866
-0.0010780131394411588
0.02695689047049186
-0.008372828116245052
-0.017538593005503908
-0.004074403961019072
0.013232355900674208
-0.024825964160298284
0.01922106682328996
-0.01805338672885118
0.024787080555513395
-0.05606934615466407
-0.07449544707877381
-0.007668278980605268
-0.07759169066017883
0.03701333358974281
0.04836051243580609
-0.03840320225949983
0.048476763476658094
0.007996359365805825
0.004703148946723313
-0.014586648592978544
-0.0021630161159789055
0.0025445883061055202
-0.020286995007419536
-0.03028451978265637
-0.0014252600591314194
0.0057183876970426
0.004323321507902308
-0.02253138639965367
0.07196799107513444
0.0551113343478836
-0.008883681470998661
-0.013297611819220739
0.027325509654210996
-0.021509910124424932
-0.025583193064067273
0.014616849717877162
-2.4416643126974745e-05
0.0038421345453957256
0.04189484569485337
0.0034319700418376253
-0.011129096128363188
-0.02083102569582539
0.0316527007755221
-0.03267954918518182
0.14376390671533873
0.12413905276381226
-0.02847097379819104
0.019372423485176257
0.01727396683755316
-0.06302264198378332
-0.11035846419463256
0.02190565607090267
-0.0014354495938567321
0.002881813202478707
0.044158063302172805
0.02309826697540569
0.01401533106218516
0.014408212915667833
0.002048243902020534
-0.03950885014109578
0.016761888939782334
-0.0419900399541432
-0.05240343479445693
-0.009900890640512135
-0.03884950523804455
-0.012693833018335147
0.12462718602890113
0.07698308420649082
-0.24370733385041773
0.0010025888358375162
-0.014476987025345509
0.013917722582376939
0.008010944286439687
-0.0019337957845678348
-0.015902725060207856
0.01738738997886572
0.029617566976885043
0.022894179867621975
-0.021500638762387853
-0.018983658242644797
-0.00015437802096923854
0.011162083488791089
-0.09398813343480177
-0.017046163047367315
-0.0597036943218874
-0.007666660574497681
0.007974535636514528
0.004207057886545822
-0.023595256927444956
-0.008793668577622087
-0.016429216413936912
0.009642526207380236
0.016517766464956184
0.006127694966571872
-0.022242146511455452
-0.002138873139524725
0.044979931790005145
0.008836869300843988
-0.023534647299422572
-0.00010620273988594423
-0.06996591214557908
-0.024666393721859796
0.050788281448364954
0.03330669907926025
-0.02378010698596852
0.007896745460415492
-0.034733142698587724
0.06821928255751314
0.19482040597020842
0.04384259699239636
0.018971092830884405
-0.024211374472132004
-0.01614116772771422
0.01852539436793625
-0.03394103956275583
-0.011803890677675625
-0.026525632558305784
0.003787062471612478
0.015769615180656275
-0.0032705813323575523
0.026134162533115256
0.03907597984643052
-0.02802879938439033
-0.02218579444591573
-0.0073677274417196055
0.0906339665990114
-0.0025848891780552823
-0.06377198259333727
-0.0028107846678525235
0.036549647198883733
0.01023556693264792
-0.0324147336629106
0.0023573962967469307
-0.04059508923520853
-0.01833466138977585
0.021321451582687882
-0.068024507759369
-0.03335837942217056
0.020289259286674084
-0.00943526709372146
0.005465680943553309
0.01839513209749257
0.10342588085316196
0.02395913897686388
0.014511025761834663
-0.012239979844612465
-0.033372229357620395
-0.05385180598282614
-0.014802132617544352
-0.039820483954588565
0.018888300989022597
0.21640596328655626
-0.011137884860498737
-0.017770613420908674
0.010310884404671247
0.00024676059884864754
-0.14043003694584716
-0.05356870486398262
0.08938006903891005
-0.016642519372037128
-0.0014928800612953506
-0.016608270013803363
0.06190938182748506
0.05486782388856515
-0.027713034207423357
-0.0026945852114483556
-0.024620240499047517
0.024848726707257403
0.0027029695168548887
-0.0024679583645327075
-0.02984266598902628
-0.0015088907385109498
-0.01689989043796783
-0.0023830530229422197
-0.0019654585599301637
-0.02672767971181923
-0.039543375412829096
0.010586082018685746
0.002129675586157877
-0.1417775433461262
-0.05648530411249395
-0.00124882850768299
-0.005295219912396424
0.009134061984383286
-0.023247647118095818
0.0939440341870358
0.17198602591649806
0.06596725633921378
-0.02446680802871244
-0.06350640969402054
-0.017428925608378568
-0.01740347010599967
-0.006286687246304114
0.03503328666456323
-0.004122359656801866
-0.031977591270797585
-0.002506852200026276
0.0031173027346905295
0.0135058200443583
-0.018845794828939704
0.02301142485972914
0.024885597441923053
-0.03647681660346721
-0.08716128035977334
-0.027471439572122006
0.022086182048555694
0.012327893118359927
-0.008876841191560993
0.005189326651208521
0.02788005723870153
-0.014614107706198988
-0.01931351771363834
-0.0009013442615578643
0.001825994356741493
-0.005404377108467764
0.00727594715601947
-0.026487308630461587
-0.011566455777338414
0.008018025097443664
-0.015845698326906087
-0.0008512995711983363
0.037062341968887295
-0.016785357907220657
0.010632645947760054
-0.07321051156298833
0.015120171185337398
0.11000885456486094
0.017532365784472714
0.02739486079752401
-0.03867664761372428
0.008147152040339924
0.019887499100313087
0.020864501038167494
0.047937435038139374
-0.003796625539307795
0.011062983492371484
-0.035542602678590475
-0.05299449283914076
-0.007266594012064506
-0.006947626371960117
-0.009255890998380605
0.10939261207968363
0.1024417489648379
-0.0017544288725814083
0.028158021892697904
0.06564006283631527
0.04591741353869307
-0.028219502603108876
0.023015818449482212
-0.02494651667461186
0.010432877808519439
-0.02878780526805103
-0.07953438907567002
0.0392419774787203
-0.003664410048059598
0.02901605192537446
-0.10134512107501892
-0.2039722995995098
0.020604024698587655
-0.004290903805535482
0.022217953587895235
0.02014137321487233
0.01951716525038963
-0.0029317249260417738
-0.013060747810994791
0.04580426693058147
0.041961491084286255
0.034350793856183344
0.020464168256867147
-0.045093614710212684
-0.02069637271097042
-0.005358217965822955
0.012808614366013814
-0.01929260751944695
-0.1451785062007892
0.008332584506475617
0.012063396169476874
0.005984604993769352
-0.0015998264775295282
-0.026561857855398024
0.0013682515470439336
-0.015068879186638665
0.036766787801728006
-0.00463447973078305
0.03815121810131987
-0.0011542347882442564
-0.03052287775130668
0.010472047396170355
0.03300814206833668
0.025805481568145026
0.01759170372973877
-0.0061792746956044345
0.01011285701367488
0.019323877407854274
0.006596855561305373
0.001317860945779328
-6.4771156010913e-05
0.0005029871831932889
0.013059350182578809
-0.17166954186146896
-0.03915237962617913
0.020680281825324307
-0.012128460957773455
0.008190604886617603
-0.014088962341434376
-0.004278511643111156
0.004726082778278936
-0.014035745041615841
-0.02213985356611719
-0.0002121392628569819
-0.02512587798783749
0.03228460782123273
0.036645468918234454
0.002269491938327079
-0.0013723760790028162
0.006484582199519475
0.0018970861830441277
-0.0243457733838061
0.03677291778647226
0.18627029066000436
0.017606226047546372
-0.015243646986212613
0.026023077829805726
0.08369223950456937
0.07915205566001471
-0.06826597981058578
-0.14389010467368296
0.010609001187679391
-0.0056262396320227006
0.00424539632973438
-0.002663735142197069
0.003567501424083449
0.0016371349782373266
-0.012440547254041643
-0.02979711676007244
-0.018162242815342754
-0.005873206389228168
-0.02064028497991741
-0.03861439546344891
0.00820042052135174
-0.01468796823134345
0.004405659178103162
0.022841565080490678
0.010916486941896793
-0.030265289599228456
0.020337151532152892
0.06266515845304634
0.0064026187325009485
-0.01669718740077454
-0.013763875370965217
0.011793053143947983
-0.003650808218069028
-0.01614662724850159
-0.007704835857877873
0.01570209073637954
0.003709038695828241
-0.023551564451019934
0.037708932117059
0.01981752410643069
-0.02884948984820695
0.015724156597601138
0.059260004342383966
0.010338867804728083
0.003524765624585797
0.0038476531703079578
0.002635442555936706
-0.004398939938951521
-0.007083254673279172
-0.022391385618948226
0.024500147581268488
0.00682512736877502
0.0349088887065329
0.02161367392356502
-0.02606978758392347
-0.0004792886941360368
-0.01778963281873874
-0.03905320111280433
-0.0074045215121800265
-0.03351149671411831
-0.04269963779175508
-0.010818676491053473
-0.008353260991393574
-0.0027990351070699584
0.008880840366199872
-0.008012185383671063
-0.005157347411516232
0.01646122876781204
0.009545485316255419
-0.04320256019558373
-0.020560874367230666
0.07387439797817652
-0.01131508741740833
-0.01364551723596141
0.0014189429889284115
0.02632047863001753
0.03748048477255171
-0.003601668933156166
-0.015322584562908621
-0.025623902733540573
-0.02558601730676132
0.0596027752673511
0.021585208828521975
-0.04436595597144046
0.009701196839822287
-0.033276268763164724
-0.029328103255538102
-0.014642980914377232
0.029087644344970215
-0.1114000797931328
-0.07138439806566826
-0.0019215008800581165
0.008231384978712942
0.24002033445899618
0.020394494822836343
0.009450618212867069
0.023643960575605884
-0.08460102221958976
-0.1914414612027764
0.056824511544580375
-0.0072716620732898255
0.07817727830394364
0.04726039628549057
-0.010367344375064844
-0.016551870096366505
-0.012237643297908612
-0.00776936234772192
-0.013934625572351523
-0.017338913528938543
0.027905427272532392
0.013246772328386686
0.007052930096089704
-0.022263317069556258
0.0910785482444215
0.1516545331087953
-0.010023703927128999
-0.004921201868241411
-0.06590279186294556
0.0012878445159885644
0.003372841814814591
0.018353547558214545
-0.03635807838391542
-0.011087500490053812
0.009788321631133948
-0.008425875158912601
-0.004199661183648578
-0.02396766604204127
-0.02307719530701769
-0.04487413723037202
-0.030581065188341576
-0.02480103409395684
0.0020673839829157153
-0.03402143663920984
0.07152023147156365
0.05612187256882686
-0.058914151798376474
-0.022772396434610598
0.026761723062715202
0.0969425599106508
