0
-0.06396407234953698
-0.05195385084472838
-0.016765221136464045
0.01715047189477673
-0.04032317167180238
-0.01670966730472244
-0.05615206457794029
-0.06538251914774902
0.0007989004178274521
-0.02254253033866377
-0.08285541366068995
0.08993081148103997
0.045510499924340274
0.008691887358756908
0.023909182809690496
-0.04198365645883148
-0.04229662740449495
0.11762846066203153
0.12601690151851805
-0.001394491502714021
-0.014514835660106156
-0.023175216374801473
-0.02073816657296533
-0.02163589182211937
0.07593939558011138
0.04643021036728241
-0.0318169373134982
-0.01753136680780094
-0.02843734665326928
-0.013583179786317857
-0.02541191863999516
0.028537837160277572
-0.030552697924072798
-0.0026517331294043187
-0.009024501048732078
0.017420367012311543
0.06464532626141578
-0.01009376370279979
-0.0099255976529807
-0.0017417505912481097
0.0058108558414842115
-0.022038831387364354
0.09333653013126751
0.09414577580135106
-0.013700562144681292
-0.010437989648736077
-0.04406442712127654
-0.017107146532659382
-0.01534106243265746
0.01913149588955626
0.04377947336638891
0.023641086848069023
-0.005715155969090617
-0.024189578183235524
-0.028873081759535926
-0.03709635745058766
0.01640880067536637
0.03964755856768318
0.06604677869302095
0.04826924219848726
-0.07094936996756465
-0.015403260956180859
-0.03627199363812534
-0.05574871962037376
-0.018637000618640282
-0.00990217180032984
-0.04015084748903617
-0.025166551871355452
0.04469840125917065
0.03834120013916406
0.007123902241398569
0.02746982945625759
-0.0409036668479802
-0.022122190804735542
0.026647085893756896
0.0191807236839297
-0.0026599124516468817
-0.023383544909943106
0.010420589384288642
-0.004844132259448092
0.002190812275462832
0.01970243170760905
0.0015828999332545767
-0.010111220875297115
-0.009736348385676646
0.010924192920446886
-0.01124790087637648
0.020740079061063028
-0.027864330553486798
-0.027002772687821537
-0.013426620629803777
0.01864765101640865
-0.010341030030046862
-0.009692353073894796
-0.024675683550304438
0.024474069629656287
0.04020472466206437
-0.011439447992658232
0.007351631447618116
-0.006976195950901552
0.011068776349965963
-0.015817079814154568
0.02979050903462184
0.018876910850436017
0.011014929157728275
-0.017646406870374637
-0.005029475214176155
-0.00048963170770128
0.06408402499959956
0.11288295675224838
-0.036089702057440526
-0.1297419571104348
-0.0263858537314424
0.03934810644269777
0.016321711033616564
0.03899020314688362
-0.011208887703083788
0.031442940058217524
-0.05796015001398496
-0.020685983075805384
-0.025625221337537373
0.06947487905138565
0.04045939185349647
-0.0015935286037798962
-0.019179138662266285
0.020534828520230267
-0.16021839809293226
0.004016108823229158
0.02778727943527004
-0.04500964111905907
-0.007396785723110297
-0.004107502718091539
-0.021648406191256762
0.02763535480353819
-0.00361012248964345
0.019168054690463364
0.026766112327155867
-0.0007121656827748699
-0.02341500706887643
-0.00044797390395564493
-0.030686986281288527
-0.1256364654606565
-0.009841049163932573
0.00039868821617507016
0.019345821586640187
0.03388101817918397
-0.03238837031654089
0.013151223406256022
0.04407610291042339
0.025401603166571293
0.03249074325659474
-0.00890533277445944
0.026170115204900896
0.02547061202788792
0.013203674941635435
-0.007437692766591454
0.04268111169775103
0.05882113693748026
-0.012761343270099926
-0.018468445340049697
-0.004604868592876509
-0.020286342433231068
-0.00825550171426797
-0.023908684734083866
-0.028452781178748252
-0.00621978481349071
-0.039165757012853096
-0.0471521682633895
-0.017470192672429167
-0.009236328111225092
-0.009914034876808631
0.22113075878499264
0.0010865734592251386
-0.015364842640885657
0.044068888900459895
-0.04359890385790339
0.04783748022415907
-0.04048198949822739
-0.05871132147425317
-0.012045125320024682
0.012786190394051324
-0.04082361380658124
0.0018803676317704376
-0.02347659727484142
-0.003721155017685655
-0.021120591900946287
0.1118189984889752
0.08689802541368774
-0.04232128298238266
0.05808936589398901
0.07295671865152986
0.02081660729846664
-0.025349561719543293
-0.0114827534633263
-0.012030049811507255
0.03569276680450037
0.028497203118510735
-0.021808153213256368
-0.03503990817879701
0.019368234736343037
0.017117211094446794
-0.016687637050195922
0.006354059676169149
-0.005588396102789965
-0.09258694539741663
-0.014874935455825002
-0.039622389370057305
-0.01690367621933551
-0.026920773680078686
-0.010372785175265367
-0.04568905057035383
0.025158022632902358
-0.26535662043719344
-0.17265451153352387
-0.017794483063167527
0.10545948861313766
0.07381420577695216
-0.020256229651288475
-0.003792919574264812
-0.023179782663346013
-0.021086508051754257
-0.012808315348290243
0.011497728183549352
0.004762208472310515
0.039325241635250294
0.023258286459694345
0.2366798240573778
0.011538536081977776
0.024538346002195927
0.0584905669393281
-0.03820847827214224
0.005272061743129479
-0.05425564975923306
0.16150698707206226
0.24999925887145164
-0.03880753651309023
-0.07619681646869972
-0.042277146986915176
-0.05149590925070653
0.05222429123105334
0.14294003844403128
-0.0660673825431329
-0.03576148524528511
-0.06194545616418296
-0.0371483578487215
-0.019425552186933016
0.024652447581103906
-0.030657115128116738
-0.003015536329782471
-0.013232773633471048
-0.01507759329971928
-0.03049483924633591
-0.0010676256803984526
-0.017496252439378447
-0.02349656528229644
-0.01599635262221574
-0.02134122543734227
0.04047407838367854
0.07673569876451194
-0.1227432463458949
-0.10534865692251667
-0.00698823989961951
-0.00400427417999092
0.01974710414016884
0.17494067409554617
-0.005077704438474453
-0.057916143017666094
0.01383515796172154
-0.018489573817961433
0.04146514127449264
0.027341599309134733
0.017745838101173358
-0.004436683116594043
-0.0013978288837711453
0.01951334129594546
0.0344278417359521
0.01008971294695523
-0.027000836287985386
-0.0042362633256304814
-0.009692027855883705
-0.03663397484877943
-0.033248280106592795
-0.0039443783246138385
0.006066141105145344
-0.007402908176878004
-0.022821636796828672
0.005742228809662222
0.01703729397913208
-0.004778329188198889
-0.0026738169177488677
-0.015347693323805906
-0.020531155113688235
0.011109457632655924
0.03911133808840944
0.009115530124594868
0.0206952765531487
0.016225172174180055
-0.014891411603493684
-0.0026668214024478457
0.009420692680141047
0.03208123437347862
-0.008251973154419038
0.0069251193315286175
-0.014936341146707423
0.0469275946888216
0.24569933167387084
-0.24352470616090013
-0.12009225450434763
0.03886407158618032
-0.00619824017630236
0.02166105135433808
-0.10597462777102198
-0.040791265641898854
0.0335292925826512
-0.08451009943093965
-0.06813202353383568
0.03618105271803876
-0.00033821219714413273
0.015986905981583914
-0.008003414655054839
0.013399465237821397
-0.03279628782966034
0.005095868169621062
-0.03880907262887501
-0.035050988407362926
0.028787861410769347
0.09952672356065512
0.03585935715822196
-0.0007873910238322707
-0.000876345393335614
0.1739898720267933
0.04965901183244145
-0.028191815135134628
0.011663180001232079
-0.02446568252688662
0.025796257463957507
-0.026287443709135546
-0.022981912389894395
-0.0005244500291843896
-0.007414595398771714
-0.07840066564485602
0.01592780996373752
0.05452742332185121
-0.15423985294655268
0.02391853385831314
0.13195367608849798
-0.03148664399372175
-0.023473931068760372
0.015526389034644717
0.002565570238708427
-0.004125656821564997
-0.007390543260322655
0.0015001742329517438
-0.00106226312709957
0.018172644717269173
-0.026190664860502384
0.004074074073253317
0.009628168815073234
0.042655661018698
-0.008947276237654256
0.06907983645865394
-0.01658781178385224
0.015000268534253486
-0.07061244803561864
-0.06025153021310577
-0.0021542374965831806
0.018852702549144697
0.12481015254228299
-0.025328867796197994
0.03321374331004691
0.05129418657728297
-0.08376171576107362
-0.03702622085293162
0.023487244649994608
0.007866764890708523
0.020541076155491028
-0.00939152724118079
-0.009267966955372445
-0.012912433444084138
0.016565569077301563
-0.006669095145556494
-0.00013150145729304776
-0.04218852363864463
-0.01592473187485161
-0.020535580918743357
-0.009143270101795702
0.015567425173852234
-0.018023331652548564
-0.03254329849420747
-0.10008112813340346
-0.03868132491109228
0.045434471344121694
0.014920757061202206
-0.012036238210895417
0.0025970646808136555
0.012817887933826438
-0.006750699565587073
0.011508846411210603
-0.011405505923208116
0.0981164706610373
-0.02918883422139997
-0.0005987050974726001
-0.007766437827676415
-0.019475039871917614
0.03500304841731276
0.04787767844879894
-0.029177850602669603
0.012899241213241227
0.03599254278563114
0.03571917126903553
0.010518944774094078
0.001062218459076616
0.01911702412875422
0.03362553763212786
-0.023306400592724288
-0.04778822140894341
-0.010245168693092877
-0.006569753560936527
-0.00831982850220103
-0.001289851173735053
0.01874988864498807
0.1150957459608316
-0.030223015663033512
-0.2496851799145862
-0.059592040889295435
0.0344401736940867
-0.004527367140504526
0.02035875321710006
-0.012279541768928069
0.03314520027941852
0.0304010737046492
0.011462587998683238
0.007296864710082548
0.016594202246540783
-0.018676893475699643
0.010522354140059326
0.07768418956008663
0.028594157600948314
0.027341484552559837
0.015892855965014968
-0.017373339365664677
-0.026592753213633382
0.0034706577999590905
0.019634880503843443
0.006532025705623721
-0.0009572017281775821
-0.019420308992295552
-0.007459216093694445
0.027815508044802477
0.0020786407449059447
-0.026516014804249616
-0.003979365622781881
-0.010923647254118539
0.011539638886352064
0.008949970280171523
0.014205900960576886
-0.08328591665407815
0.012292428184455471
0.013378792751233427
-0.02876718591616272
0.033263282777998365
0.04556325966973346
-0.020782459950646127
0.013388880345795913
0.0028364205948145276
0.032347241853990474
-0.006219068985612123
0.048883315861648374
0.06485729982221015
0.0010622324036713199
-0.2529676217418867
-0.011259974539887427
0.014778785564701465
0.01879672705708171
-0.047533579962443874
-0.08191732660238381
0.03271946490988524
-0.005742183215828007
-0.07848622248234904
-0.06403031844171186
0.0026915355303594587
0.02161927850547723
0.05114680805019147
0.01647604392931779
0.05140494464277364
0.042773354346393955
0.008407933168950232
0.026011614671160047
0.0034660509667975366
0.005565187188427862
0.05880433194562185
-0.0236075181991488
0.012505207595422644
0.038254832581443125
0.03192812456732313
0.014017744866386097
0.027983505742548563
-0.013377694439956414
-0.02336172896825062
-0.020910010417490115
-0.0913498787889279
0.05192666711745354
0.02531308143498499
-0.009309561773296917
-0.02494764219631594
-0.006352756706720673
0.02376102153887042
0.025150221978648444
0.020772176238490026
0.010449086732184585
0.002042520758816411
0.010371491254025393
0.012106373626839188
0.034383315041436595
-0.023335741661148542
-0.030169060906008658
-0.06116719247463727
0.043839534404307635
-0.04489035347239597
-0.029341883078800667
-0.0004617769575328209
-0.024778176358872892
0.037208187176740556
0.0350952804600451
0.02650412134015942
0.011426304301568699
0.014862246976527221
-0.007662842040445085
0.014234222896108754
0.00889696480511746
0.0472578942355921
-0.04074160535067853
-0.09923651503689461
0.016994960631349535
-0.011696108967961635
-0.022224044865495007
-0.02087693583953784
-0.005287070884983652
-0.2009214658007553
-0.03742561897202997
0.016457695764686725
-0.0016016958446397442
0.018004307858025318
0.02696432993919053
0.02397644581809899
0.04515713455314122
0.051035869989714655
-0.023835802545633392
0.008457719645405605
0.06167725697856627
-0.021861737048388903
0.00308353803111676
0.02764153938337268
0.008305205090300955
-0.018128874128325017
-0.03900631557225575
0.05186092299696177
-0.0055254072992827
-0.027484991002142738
0.01131363807666967
-0.03157319178447591
0.09731326499924071
0.06573600383620852
-0.024420531693394434
-0.07595806147068365
-0.012465153023432422
0.012798501010462478
-0.03027136658901031
-0.006390348480896274
0.03852532445469433
0.03269698434898981
0.053625162246327934
0.0055435513411987835
-0.017206764822975614
0.026792536007231096
0.014025919013251361
0.004358378358824938
-0.002917276235496422
-0.04638674587095385
0.0015929878098315487
-0.00044231529742852726
-0.044690216214502566
0.03641279451327066
-0.007883599225978501
-0.02011809502396962
0.009320095878064257
-0.03663590318324713
-0.07521592645994614
-0.00501055456875531
0.0030682396019657493
-0.02211431311841722
0.004318852193830053
0.020670890326385527
-0.020812182354170657
0.02717850733263
0.010917978082194616
0.014154411491571596
-0.0044039834126084875
-0.004679113379234083
0.06520909180832168
-0.008050134588833104
-0.013245910314097137
-0.023393614988471232
-0.00954472254974218
0.009818970736734737
0.04504416067036262
0.03180523503910495
-0.009067350603806127
-0.02660418520597781
0.04126032874768976
-0.015625656491769724
-0.06635778335832791
-0.007743671211471822
0.06614706614459018
0.01128899524353721
-0.03131874939147798
-0.006610128800739057
0.0005660014419232328
-0.011642974702328042
0.07366126680201661
0.014306556217314057
-0.07612577604048101
0.03569473692483576
0.0059032598068274695
-0.01660582611358931
-0.009446233698905286
0.009582050777841867
-0.01682387741970715
0.011305414640368027
0.0068318799493846125
0.01857192428787983
-0.008705056394809011
-0.00999143931448999
-0.025104699973165293
-0.016301027198668615
-0.004156333960243511
-0.014079887936230039
-0.009545994917005673
-0.08928544434097264
0.10201866055152331
0.10793967524435835
-0.04061369965507805
0.018093164213949905
0.02960354500517382
0.03350830505819047
-0.02971816318124182
-0.0015252447198996779
-0.036309272608710995
0.01994879267484702
-0.0061246252157029024
-0.0059262184855724065
0.026784616400553934
0.019015872155472516
-0.028768746268400314
0.03014439124941484
-0.01720960718176725
0.07572487855480127
-0.1391025114339077
-0.1948860757108195
0.030036923026396278
-0.06813389023106238
-0.012589236866118361
0.0729876844447508
0.10685344868421778
-0.032379172298485935
0.02703962127891679
-0.04996548914110475
-0.01346427662377015
0.004564973336079632
0.005016872904399823
0.025320723846043655
-0.004285041666872766
0.029409249419329608
0.02648442877188746
-0.03314602868575001
-0.0014252054706550843
-0.01665389115596974
-0.002507033596474594
-0.01040385875210633
0.04397115347937987
0.03353003488366303
0.015585578362430026
-0.015166177217812235
-0.0389766039457599
0.033455218280355054
0.026496097626295578
-0.04408361479290461
0.01113901798633291
0.08061318861843192
0.0027500308910572606
0.02386642652574635
0.006728785255264943
-0.011112220280530051
0.0009610209323081244
-0.01917064438426003
-0.016187524616441115
0.0537034628133268
-0.022045033994665484
-0.03488056368018462
-0.019695240447788608
0.029738617954971045
-0.031134622153709785
-0.02625858406548523
0.013426240777167251
0.0004403301450375612
0.0012600550613118503
-0.024588309280398207
0.005841093700882421
0.02231641229420407
-0.005103976136569702
0.006442620970674452
0.02365363222434329
0.013659001625128024
0.036365620283715004
0.06100478192443065
0.012065406659078532
0.03950103612064323
-0.017667325887692112
-0.015355664696435727
-0.018480612016777115
-0.03638843616591098
-0.043402091126631126
-0.044652877223363786
-0.009317309997255304
-0.017555509000820962
0.015961614714159
0.014952024338347043
0.0027527331049831166
0.03627553093153628
-0.07722321961899521
-0.14591633211865648
-0.11355028496672297
-0.017129237006524314
0.0467294147260197
0.05857599588684983
-0.010207111897414392
0.008896031236988847
0.02469007917396762
-0.035569749170065106
0.0031034930253078024
0.009933656821221687
0.0759070264231158
0.061364499988622735
-0.01891392881447925
0.0008087209270477119
-0.0016505026476751014
-0.002295188281630145
0.01725042323685918
0.043860383842452756
-0.011431731207272826
-0.003802634719218837
0.022497178476244245
0.019546935826354066
-0.03127004627200933
-0.0021211217668687496
0.03460235258274998
0.023057743057503518
0.07103272295664806
-0.00277417030206196
-0.05281935985152546
0.0038632756027752566
-0.0009550347798591763
-0.02516410682393866
-0.02944875205359042
-0.031308721827870575
0.03982338138259765
0.0288383872177772
-0.0028275449259682647
0.008021389388795354
-0.00300923407075911
0.021041617189833658
-0.015121247097835227
-0.014412499984198628
0.01991565645456881
-0.004244206908954337
0.011056794001316471
0.0076109833232916105
-0.016127452277593834
-0.07950925589676838
-0.008423316285304435
0.019254246461733068
0.023229191524783744
-0.005411490853726987
-0.02747181820085133
0.04801440169171481
0.013119135762315425
-0.009420871672801697
-0.039330495252660386
0.009073343675912119
-0.012858486651120937
-0.007890832026315547
-0.03473616010399503
-0.005571653128582932
-0.08960180772972987
-0.08883690794563032
0.02467349644791033
-0.03310570394945168
0.11828189038218798
0.09673314842716535
-0.04611326729777143
0.008382979414140068
0.058631940142512703
-0.029165301497984006
-0.025384427559641518
0.03526242806308916
0.13329952936527265
-0.03150749556650866
0.013822934000567737
-0.03191329791270584
-0.053546126033107405
-0.040723094501483516
-0.017552094466854476
-0.016126344285154505
-0.015343036543402513
0.007633526397302787
0.023211566799796333
-0.02514429521041627
0.030683020625704997
-0.004250244086427018
0.006748146270910552
-0.015606177798887653
0.004476389240937427
0.0004665921921566679
-0.004345589878716429
0.06400416617679419
0.013114497616737565
-0.01609882112884133
-0.001900029290070353
-0.019258228476550086
-0.008813273711933372
0.012511158648670816
0.02064394562320014
-0.02401896793420857
-0.006037233221424042
-0.0053049132684750725
0.018732881366662183
0.018541235645448392
-0.016543889792333434
-0.013017025965570363
0.03177673443734971
0.0779399758707254
0.10548375859901934
0.04435345376854681
-0.01346038257135171
-0.020801030846982576
-0.01803212452704938
-0.014896405688103236
-0.0034850489239124393
-0.022027709500933648
0.01778951665700791
-0.00035114373799358264
-0.01102781950653114
-0.0683563620076646
-0.006513389481153187
-0.009638611947309523
0.011647558388878484
0.024796188910963107
-0.014775316894459125
-0.02690854172767645
-0.02574522599457236
-0.017935538908918313
-0.002409758575669633
0.007376929902177272
0.07045078977994722
-0.08144811757022376
-0.07479255226731132
0.03682358782078476
0.027962974895394583
-0.008921181522647011
0.05840941752048687
-0.04210694026416338
-0.21360396712015312
0.05073109072666374
-0.002126936950206888
0.0314946299337277
-0.03780084422776868
-0.01027473133254962
0.009178503417515166
0.008449324211604775
0.008669716546876392
0.07862958252579982
0.003597825925186888
0.023170991299298144
0.121514271229342
-0.005546114594634624
0.046352669993581
-0.01803829104907868
-0.05386284564400244
0.009816259147961857
0.036509481690158385
-0.0019180586431787488
0.07415211412659856
-0.17798182217135466
-0.19560902212881834
0.11338350398013824
0.06518141781867219
0.029515633944387866
0.005852266145500744
0.014875170344339066
-0.0035376594771941864
0.009069777313457183
-0.010061366949610077
0.01904360098624165
0.02142203578954249
0.02145097209339564
0.013397429620004918
0.026587948668898347
0.030591725228500434
0.013332217182812968
-0.2206235150118804
-0.04521414109868475
0.017228103251174697
0.03605212699982751
0.021875237669095222
-0.007320111828049397
-0.01005441207622559
0.048885521433252664
-0.00561714086180525
-0.029502572296078205
-0.02716850880766893
0.06356345989739025
-0.1626136989568054
-0.09215162862789064
0.03983858188915969
0.020823936501813745
0.020806079251040548
0.01641492714603542
0.02862140281119701
0.004312098429380561
0.00878583861186479
-0.009166211817408065
0.04218118712564802
0.05542684989529102
0.012155844607092616
0.027191323110502548
-0.009853181409428376
0.012750934962141901
0.0073562267295753155
-0.03329638788705825
0.01685221085281005
0.04811034940399641
-0.018211618040588923
0.018248350640938205
0.005690555797616275
-0.001160752557925681
-0.06620068851598324
0.08551247363134035
0.14407985456686967
-0.014539765946331046
-0.018165553562464923
-0.04349648914763872
-0.013965960735175814
-0.009496100425549952
-0.010613544405943887
0.020987542930315205
-0.08836884411598964
-0.07860975460620186
0.025342178374865534
0.030370851353835448
0.040618990918636334
0.0034303029253951937
-0.005109157720644575
0.03614336739008636
0.06400524669293138
0.032099471677575944
-0.12041027708730244
-0.15559553125013711
0.0291244848664227
-0.07640102432044331
0.010385741631649376
0.02772220197200265
0.030354705211944177
-0.022401852564730027
0.00546065636286404
0.011175081387602327
0.030579848277893878
-0.07572783358387618
-0.07057125028535104
-0.0027369482765815926
9.119202427331978e-05
0.005523148443105173
0.005105632594143575
-0.005133385434515089
0.02258559012566952
-0.005577989441900498
0.007977075156208798
0.07521780596538995
0.031046307478328587
-0.011170250690665755
0.017882488303245868
-0.03152459921709124
-0.031133998890811497
-0.01662245852448205
-0.04402750590101054
0.033434376663545
0.07912111465109527
-0.03591422690038512
0.0611939907765641
0.06983418461259149
0.005761060562327563
-0.0006856227340647511
-0.0226193154904201
-0.008860852001021942
0.05949067048453681
0.12737566123690458
-0.018976957774204568
-0.014648537319378364
0.026017966495161624
0.009711565778165739
0.007484399853079362
-0.03336044499498463
-0.04630084806041107
-0.0308278011024448
-0.016101088935709967
-0.0029661729602275594
-0.002517876693536838
0.017728311487973877
-0.012298781941728183
-0.01884258383465363
-0.008536851234708506
0.009852035134505974
-0.023011828903154116
-0.021134147734788743
0.0047515193782548155
-0.031232595231445663
-0.00534872675257193
-0.018620982495664837
-0.12718221000392507
-0.04202226682168573
-0.018791605434473852
-0.010917896203174923
0.16848044896969314
0.06291936361557192
-0.01268459210675957
0.007235012485693067
-0.012882931274028928
-0.008328140622611191
-0.04297850332143843
-0.030572314987356984
0.02021576538231545
0.05837012434087361
-0.04584753257013212
-0.015619029865781842
-0.008175592183729454
-0.028441399504927953
-0.025123751246811384
-0.022243464100604425
-0.03985228304323529
0.02096109790404898
-0.003297752907538446
-0.008918032891015145
-0.02037768481312069
0.056924664412277774
0.07737919191872125
-0.01709928177597852
0.05393719658105331
-0.023572985599256975
0.18248495298642967
0.1934720149770703
-0.07845046710248671
-0.02128829073039494
-0.025056300227646894
0.026772956444879113
-0.001190491793494768
0.006448920560207368
-0.00020194472150874006
-0.007366393250570343
-0.12443669421618775
-0.11996694983699538
-0.0026011225590688723
-0.012846209145032622
-0.02119675114713088
-0.058356613252434415
-0.034744570554449246
-0.011786954853971448
-0.01688826570802823
-0.008285333754322962
0.013577594145074735
-0.014097499787334648
-0.0043493314851446585
-0.02308665199901857
0.23440719380421654
0.06807922219730769
-0.035371077232762387
0.035301214431535624
0.003723007126580296
0.014530057119905515
0.0132287334796508
0.024318343559586765
-0.0001392559724111689
0.018211958204455
0.0023371271241924745
-0.0024604247678592954
-0.00339978480163881
0.016794656009590885
-0.028506808020197654
-0.012938328510251803
-0.026684115227088637
-0.006841334730734603
0.03178124215209305
0.008315679993652401
0.017840148851402306
0.006083634375358773
-0.03610555707321726
0.0234346789242791
-0.002079972399681862
-0.022628087974599448
-0.0008684644071109307
-0.014468047080713458
-0.008480098301419584
-0.05940773802315165
-0.01863846697727984
-0.0029291091316583392
-0.030622257153542092
-0.03467371181254703
-0.0996315279437236
-0.050940683372336204
-0.0007785087661981334
-0.011335984239562839
0.019091297901793397
-0.009313336400141273
0.005075747269614169
0.04369428456995259
0.019001434502182574
-0.011887634893925386
0.019607118004797034
-0.0034001880500203717
0.06801497372031033
0.0029539531786726197
-0.006112260605850705
0.007401813337169508
-0.009078705884011107
-0.01870394185464317
0.0295701001957177
0.026235629847981407
0.02088227003568123
0.002039033856240931
0.01375537273611537
0.041302784476098635
-0.014412381670861028
-0.041788584860043984
-0.041252919512187174
-0.010445982699778708
-0.0011082814088968248
-0.02862379294972238
0.09584007804973219
-0.07557358561273061
-0.05812443228811139
0.022332104559392846
0.00928348454532798
0.020458984495603422
-0.006705417213935083
0.02088512950921585
0.10543413684894272
0.0024358800962502826
-0.03877004650564842
0.030491135374443774
-0.022283002756658055
0.0037336828597305666
-0.046423076481695955
-0.11967498033503864
0.06376619883686008
0.1975271903195029
-0.04001377346402281
0.009956863040118034
0.07718026872340121
0.04042930051841199
0.024783473709447574
-0.01241365142264424
0.008802047241226867
0.0002450037948704727
-0.007012092349196312
0.0015133207680145533
-0.03952925754358832
0.004889019833641976
-0.029092889735830952
-0.031378124426138625
-0.003783741697515371
-0.0026266258549490036
0.01118565637054832
-0.005272669551064807
-0.012390809894098765
-0.017276892137540113
-0.01825264876404153
-0.002197844025080282
-0.12941299820934066
-0.0209346491161151
0.02409052008552061
0.016150215664860502
0.005852514586290605
0.01910280174953783
0.016721885950698876
0.020784186170766158
0.0015407902969969667
-0.007613207372332843
-0.00788726296750637
0.011592103256634083
0.022185716308421272
0.052094483670437335
-0.14972015695261415
-0.05492130464601941
0.04958137999791438
0.027551941564997948
0.008308607222881825
-0.12237465137517786
0.00023727863105327138
0.013944761388501939
-0.014512041373827006
-0.013695486800259093
0.026871629118677316
0.017342162305075154
0.013257032128822713
-0.015043115829306774
-0.019502618770571325
0.006410628633149562
0.004826633884405437
0.03248949045742005
0.002933951004258883
0.005192874489618031
-0.029126724780444802
-0.014676974146540366
0.00047638148939234577
-0.022410107307079076
0.01944150475220558
0.01054215871522048
-0.0025102267999726597
-0.011187686732810353
-0.015446886522622234
-0.0033323293995017726
-0.005020595471151166
0.0690367589727323
0.001239229600956912
-0.05168362787176846
0.010317755952305167
-0.0696284756658482
-0.0518734779604886
0.1858566814699043
0.20697911702488844
0.061385083940736634
0.0002841700613269873
-0.03480100651227803
-0.021400664628153272
9.740932486834107e-05
-0.0026342171947319787
-0.012822081641767612
0.0041045846690705365
0.019620300204339285
-0.014579051675216422
-0.013847699645006843
-0.021269689810457643
-0.005625346438413853
0.09541269885917487
0.021749898187779098
-0.02105887421056815
-0.020667611852993813
0.026809194086351067
-0.04116111288655708
-0.05336823724306835
0.03692942269381519
0.1004654446222011
-0.00929886124723135
0.037651022615599855
-0.025117557096423243
-0.27949971128810436
-0.04893859148774484
-0.0009258255314102364
-0.007919084796245198
0.033957769244258675
-0.0018327479352624008
0.0041682255151614025
-0.0024872509521534367
0.022694966646540977
0.03341107008533611
0.015249776954091422
-0.02887493941387297
0.03234717138128727
0.023264411100262512
-0.041550296779154644
-0.019447372504669425
-0.011145294395400547
0.004900053993727523
-0.02549984967033428
-0.0018233605991489089
0.11626739562838583
-0.05750719550994532
-0.05439690681489532
-0.018879795534507398
-0.0034777712741172833
-0.004283502569787412
0.015292516620580914
-0.004381547144392483
0.009327134309050156
0.009783662213256796
-0.04924933606853625
-0.026310040341801403
0.007804201216525079
-0.007375098151083282
0.007800231610334802
0.0012014718691144516
-0.10907824188203476
0.02934721471022471
-0.027215966158663833
0.011553600833977691
-0.030049120230533192
0.02932849959558736
0.0897641124909696
0.03838915144643054
0.03932672109889392
-0.06743039955439202
0.05643672492828008
0.12662948700230173
-0.0014369660130787315
-0.005187296437840789
-0.005346456030129187
-0.006480811468284124
-0.045502151170326036
-0.006260256572961158
0.015957627517783523
-0.0150198648444477
0.07197620556537805
0.00593221070676215
-0.021412269502324194
-0.03858173532980813
0.0006136212785266676
0.12631412821704757
-0.0064624843305402776
-0.011626049728496582
0.02778745170986626
0.034656351429299743
-0.020360836967327038
-0.008053082318411686
0.0022299987432915377
-0.006549956051488052
0.00037577900010953355
-0.0062541540651853
-0.11502129672849547
-0.043842937428394506
0.004172206367261621
-0.027462866732154666
0.011644656397831687
-0.02881892185357015
0.04138458130508835
-0.0038441628309639326
-0.033682547365502157
-0.029096403895788114
-0.010897774143983846
-0.04224971947038045
0.011093854495087728
-0.0007626170804003428
0.05179359138573993
0.0024632622284782965
0.04701374664391407
0.04326176073462678
0.04706446614186349
-0.06457358776883647
-0.008411222263567207
-0.07885772255990738
0.010334587085300906
-0.004556855776630141
0.004288165437098713
0.23049546663461848
0.08033586435130007
-0.17935247799380713
-0.12895785003881113
0.09106428972619979
0.07180862859565267
-0.03878449977089962
0.029810082983187224
0.010991916972892748
0.0011599201179619998
-0.009870609424261687
-0.016887966582336145
-0.15134879312629312
-0.055185407486045425
-0.00600283916068831
-0.034846315580939244
-0.03232701840862357
0.03947167372639305
0.020804346623395614
-0.0006488345814958347
0.003099653907700456
-0.013878278502235128
0.0820624559829227
-0.011210931930276022
-0.058530002502087765
0.04013935074964255
0.04241261356385891
-0.04841311021492987
-0.014156979775007298
-0.007934704394950887
-0.006144694442204378
0.008537367782430694
0.010720480728946468
-0.019941002818390594
-0.011010863525557416
-0.025986686327136035
-0.01683360738977119
0.01875301717482936
-0.04206505454847149
0.07608952481789144
-0.022866520175676888
0.020016382319274557
-0.0009626459130844403
0.1035152377704686
0.07650965715473076
0.026642606601501976
0.041823023717439345
0.03481877830194695
0.014669883695862805
0.0006972559934879989
-0.017707155663938802
0.039422605810113885
0.03211548982490353
-0.03362399501606509
-0.010223110045391401
-0.023424735657900934
0.017072399172153523
-1.8506049772822937e-05
-0.005523957508750611
0.01973423750108485
0.017404407649453925
-0.02051041287597193
-0.007895401102623541
0.013710613419148397
0.007367316523861134
0.005260163558012602
0.00887793868342378
-0.0024543668509829746
-0.012074854917895218
-0.1773978013729364
-0.046938162341037815
0.01775889222019279
-0.00858287009991886
-0.013379816674367037
0.022269439723577995
0.01626805149247008
-0.005195448046579198
0.005954631955730132
-0.012915773787826509
-0.030415594502742657
0.032913330308861254
0.019898356761417827
0.0025209268274827765
0.03707847439305421
-0.0149549834127558
-0.010521171127556607
-0.00259377930221674
-0.023161979304315843
0.0008288242203882439
0.028778327875652376
0.015921224728353833
-0.055996165467328204
-0.021688164568952874
0.020971536696669135
0.02126653411452178
0.009751219610445346
-0.00742235132142828
0.013211152379854846
0.00958231739655962
0.01084526035098861
-0.027535093867509474
0.022524744780082095
-0.017958787542853558
-0.09015782870319682
0.019631019099607346
0.004430512990195464
0.00633727845650374
0.02930622264681127
-0.046947839328445144
-0.013837177054006625
0.008862677940947208
0.03705806983119256
0.026098308571184378
0.0339419107720068
-0.057711506009760785
-0.20200626430987575
0.04807548034991071
0.02719865806602472
-0.05930367232898306
0.006887590928920059
0.02041517187916209
-0.006955469247382802
0.009833522252883291
-0.03720166364571414
0.013253529087790296
0.07456949849615589
0.06453676248890995
0.011620675666019356
0.018264860978568217
0.020305026681228744
0.008847078838054186
0.016794270309688938
0.05768739102263178
0.010296638906721377
0.008782410009272833
-0.0044200007805762585
-0.01039875759985457
-0.012557720427618485
0.030644128677356778
0.02006654108719217
