0
0.00363552461798444
-0.030017802240435834
-0.00664799569397071
0.032367672879254676
-0.01350537802366047
-0.0015105675214582759
0.09692340174428259
0.02142799214275909
-0.04187388123979624
-0.011390001123623641
-0.01588537736843286
0.018565561299713942
0.01656270832113325
-0.03261608214127378
-0.030907401200013295
0.08583870333794806
0.041782024815554396
-0.08508050771302449
0.02723636189965302
0.008275575151726066
-0.0009842512434741556
0.009674327207107404
-0.01300958267097408
-0.027733546846961363
-0.022885092246452694
0.02218484754210838
0.0350827211725037
0.0005529941287355214
0.045785648835235636
0.016166285091195182
-0.005245593106511953
-0.016060781099806316
-0.07393232997678542
0.011000542344179609
-0.003449779752681299
-0.02125567118041053
0.013334988250268933
-0.012651028392319354
0.008436426263004834
-0.006966184931507503
0.0010024659933211752
0.008503484029203942
0.03858211782408609
0.07713349068050493
-0.024337302305887248
0.020826568401236308
0.07471656805489786
0.004496890926394838
0.04939713622745946
-0.2647678295500118
-0.1077243624101284
0.05097746821777435
-0.023740234247078544
0.00040574120064550687
-0.006124293143647412
-0.016804816246505497
-0.004159035968346662
-0.005025751941585235
-0.0006229398179410966
0.0015747193569180893
0.07168007705988995
0.09143071671080287
0.06672839423898046
0.0604167171205479
-0.07785239952658947
0.022152843541920292
-0.00570118032939896
0.011506485555253866
0.04677327713581119
0.04550564469437052
-0.029986566058986534
-0.0676335953774827
-0.003411771861743638
0.0034025182737133885
-0.032893271847007056
-0.00466217625939402
-0.01245516160651827
0.04260492804180006
0.009649281770806666
0.028307301263835866
0.06418968441715228
0.009189217845636113
-0.0015206266833013217
0.004850917391490399
-0.021954997540645362
0.012028063226029846
0.006008647842346611
-0.003164921004462522
0.006735697469526689
0.015039935491318969
-0.00455855516229755
-0.004000052548821111
-0.11571367130096881
-0.2400093308914247
0.05243441013097384
0.010732728601339527
0.010998005003365233
0.03672984675243669
-0.05776249625558443
0.02653493662886289
0.02730888824666953
-0.019998588553642765
0.0043734187308112765
0.008088304288700674
0.01949019161860158
0.012501184186419607
0.06408946593674607
-0.00459827150895376
0.006631201480867897
-0.047972261885160725
-0.019418718332379313
0.02840167257735843
-0.048471438263751394
-0.004133411051050868
0.011348843192587634
-0.01886970598332939
0.010448227469396984
-0.014081333104455675
0.02160615786115424
-0.003619988043228087
0.006087643202474145
-0.04732716768519315
0.027278866327345618
0.01222747549674248
-0.010096997962905217
-0.01500814397503468
0.017029228036880888
0.007480405523343268
0.0035284036044677244
-0.0013411735853803661
-0.02516115426978463
0.006491183016828572
-0.003101870754863489
0.011900886338991865
-0.007908863059065454
-0.013198987063346858
0.032388713616989244
0.03378919537036872
-0.028769680962009485
-0.01199266079169858
-0.011491981187489989
-0.003704840951707753
-0.009068338400495281
-0.0029296855228177826
0.07312512894524811
0.001925541172770611
-0.02987160453671982
0.025501901411723104
-0.005628274854320545
-0.0059306765363520385
-0.015051610901877933
0.020633001955388725
0.016709866457804978
0.04170959046017671
-0.02068255433700809
-0.036961919607126165
-0.01657727648223591
-0.022169351430153916
-0.025522664118800928
0.0837410194903492
0.04553834155447003
-0.06248364286911806
0.005320407135084972
0.018528808362042282
-0.033337674435339346
-0.02366815957135523
0.001348630372110444
-0.0463851682188777
0.0980527853663028
0.20897381244781368
-0.056537626797548715
-0.029221256981599723
-0.028663445622981856
-0.058478913749536114
0.06631361407762347
0.1043170492068035
-0.02550106715173459
-0.009335594024043586
-0.01503954374695076
-0.0013599488851882896
-0.0548420108851455
-0.0014093060062472993
0.014888064899951252
-0.015891106706956475
-0.02539200712343801
-0.030731541652632605
-0.02315957890498845
-0.007329649202664114
-0.018681816757967946
-0.014001279919106843
0.010695249214423969
0.01050695005805444
0.019710903596793783
-0.02838544719883367
-0.08931809342901989
0.04383658937529571
-0.008551468560244281
0.06122356719396645
-0.012937899257281105
-0.09310478189223095
0.04883122527849114
0.03576791727334792
-0.0686533216552567
-0.14569960865117196
0.0440899962904793
0.23889010960393514
-0.01714238133453392
0.13544336754993258
-0.021846606421150428
0.024224207050451436
-0.029811539115257572
0.05430034849427312
-0.20656827104171266
-0.141524644268379
0.03549206501103543
-0.021139497104033646
0.07405331787409783
-0.03291108507415214
-0.012859937367642835
0.011674159376898125
0.027616941929959386
0.0001236773363088978
0.08431240669743846
0.00646814747357829
-0.006855621246084659
-0.05157263119018162
-0.09449167041244062
-0.011975373691880778
-0.019527012207805915
0.008887851457377737
0.0192686423208692
0.009557976972266078
-0.006370978613596387
0.03224803124988844
0.058857144056944366
-0.02651304395943904
-0.005151856559143156
0.00424565764228368
0.09274350614999183
0.047592332692038254
-0.037575111941085586
0.01809623668632094
0.01789328078411239
0.007209969007513281
0.009614986394828185
-0.006448134928376629
-0.022438197840823213
0.047954274507946
0.0874847877410883
-0.02377278285891272
-0.02445698586675351
0.0035390968533228727
-0.020519706868169695
0.013407014364630107
-0.01986208120581201
-0.017506080504331244
-0.016006447565960452
-0.025479430911076278
-0.01323057846610529
0.012746681262026183
-0.01751644246578208
-0.015157609429242075
-0.0012232939354959232
-0.005972960709174665
0.057807854370988426
-0.003307947252209739
0.04064118935186766
0.015741898541841676
-0.05269082850726933
-0.014453897453180986
-0.013930912801150974
-0.005103995322316159
0.06424411720264439
0.004706095873120996
-0.03719799767018416
-0.02649886830914794
-0.031037453903333193
-0.035675626362465525
-0.004590777907137338
-0.059922263064051046
0.02754948838613911
0.054651743267705326
-0.08092512741308645
-0.03513164417364333
0.015168018806643029
0.0003323835429073764
-0.03233921564891587
-0.01048131454897265
-0.01801605790482817
0.13425889914621622
0.06539703389177132
-0.07779895424717416
-0.01625979281835389
0.019508480780914522
0.010816486239320897
-0.021329775490027212
0.04627978735508756
-0.05012015026615614
0.03613384125858029
0.06786021922364517
-0.035226183268693693
0.047902848617647945
-0.08998527388891746
-0.02611186970271672
0.010077168520667213
0.00014134110180218524
-0.0533291149231263
-0.019684650143019636
-0.01690395107084371
-0.004267534211955116
0.0038572915800009705
0.01312896408884459
-0.0006237998209172837
0.018000202522706687
-0.013294630929085435
0.022768141499527685
0.015527171707604728
0.10405109117697948
0.009891455913093938
-0.03131484910103357
0.06909876715640213
0.17616915809640912
0.06176413070100558
0.08084385374385653
-0.0326321405871679
-0.22406017893449576
-0.0036817279348727657
0.01028575874729669
-0.019097409871699226
0.04939136682048831
-0.008804479130769607
0.005713795273047101
0.0005575048955615328
-0.016115641251284625
-0.0024998170405663507
-0.0715197818573204
-0.02001284680331377
0.0010664958212572542
-0.011258165664600086
0.00023018598673163427
-0.01599935319970458
-0.001723231946686256
-0.11173591037655126
-0.03712404468122808
0.04888671630256346
0.02444576516776809
0.03432792456202048
-0.16554172627836403
0.001002423307274631
0.07930085080840771
0.011274152609855944
0.018187985577280734
-0.009653979430747639
0.02543548308381739
-0.02214441836181866
0.025012133777699983
-0.03414055063791135
-0.11068887668499125
0.008629005480737757
0.08452685615775804
0.008987460811750943
-0.01579809542747455
-0.04844869400692857
0.04699573342585494
0.0035695735615947507
0.020050011422070406
0.11446912837021617
-0.020517831642002927
-0.0068542803323786965
0.024208326180968142
-0.1283456546032493
-0.024778204039137282
-0.04990995857159908
-0.059450029956684705
0.02676107237988553
0.02928223253742087
-0.024634167785831752
0.06935182484447976
0.021326876406375803
-0.0013586171674827491
0.02598014368326829
-0.008713231985909255
-0.010171856648107264
-0.018024539542356666
-0.021083924315276507
0.06728018948023722
0.14882061210545933
-0.031017915099387464
-0.025189391442855483
-0.04787572439456129
-0.015177381687121301
0.16026106296762951
0.014326900148596798
-0.01664507633501913
0.011281035114815926
-0.020593469797512868
0.04202743088188491
-0.010212838404042255
0.006551207018130802
-0.013283835609888672
-0.0009858909223627108
-0.024138942030907776
-0.0025380446903034235
-0.014184891802746716
-0.006204478382970934
-0.0074666049275606845
0.028779284856596303
0.007852132072989685
0.002565744856489756
-0.04086391522022035
-0.0512417802986786
0.022412824978979725
-0.02243719672975615
-0.026040643313147722
0.00666115928562032
-0.04712679958714057
-0.00027160381266830037
-0.003996060770041905
0.01812184561323163
0.013074687376264582
0.0008373665259928901
-0.009165054400184397
0.0028253744806388007
0.01337106141709251
0.008654452956494097
-0.02200517325316854
-0.02220039346755938
0.013774333070391337
-0.008512770680040515
-0.018748040438351814
0.02170157375464918
-0.04139395709204289
-0.00749674686907591
0.004586628973473694
0.03797100732885673
-0.016154135906700208
0.06070302060106084
0.0668106552348835
-0.028202658030793235
0.05877597577845592
0.05067840838484249
-0.016473522230324708
-0.021632398012563756
-0.004811255257982729
0.009805736749050269
0.030390272970696356
-0.005543093900599665
-0.03280897500051974
0.03654806662832283
0.014506204154344357
-0.005716351697513242
-0.012533281345752642
-0.0023484394036428187
0.00426601066137139
0.010634785135400691
0.009337661860926251
0.0294359522110715
-0.07057582910347522
-0.1271526879374058
0.08337103217683538
-0.1839140572090223
-0.18082099752423367
0.2275740101726216
0.030873536090878125
0.017258551213869586
0.008786290211367584
-0.009301872954690465
0.006625228308035532
0.004939699752976125
-0.0021210255337603284
-0.0018185030403497161
-0.02963991238010781
0.014163569653499847
-0.091751917680531
-0.18732175358708067
0.019933703541162005
0.035296748015212764
0.0626779829928782
0.028028599428106777
0.00042797281342655364
-0.027903128857797308
-0.009060529954766446
0.04943870076361638
0.0017523709607289125
0.025037779791848066
0.0014622708755073497
0.03543295657707224
0.0007015269236237062
0.01800048898796287
0.031004823742084027
0.030859233249820893
-0.0018435724776565536
-0.06316937465470836
0.007450970220645033
-0.01758468251216194
0.032383071993114944
0.1345500549705926
0.029276340032016842
0.016062766040388327
0.020612870783384845
-0.02263858762008338
-0.007203054017972041
-0.015620051123356788
0.03015651112965216
0.006928826845029878
0.02170622226954071
0.00725814345071942
-0.07316565950609492
0.026878320128666245
-0.011115954734829786
-0.023831460449407954
0.016422842071223496
-0.02489261703527857
-0.004042474127582333
0.02425722411734513
0.01249169754526561
0.019549523324511615
-0.06729987314503502
-0.042165855540159135
0.007375921314088461
-0.03601682222786355
0.004667202799801276
-0.03569944342607604
0.03380025280218907
-0.12651318466367525
-0.1928358255488907
0.09050260766505998
0.026073004196104102
0.16860457333882312
0.03822886848799175
-0.0006802461303684187
-0.02746588799777788
0.03184723039882103
0.010618022661553338
0.015860067399522233
-0.05041094400808834
-0.10122494272574455
-0.009884736941587743
-0.0059989839376565456
-0.002344609138063544
0.005777556518459085
-0.03655477124891528
0.0637520271910186
0.04779632221971821
-0.010711846812716887
0.02484940431333621
0.033886402586767735
0.024278563901699923
-0.012934797735605942
0.031406745500247066
0.02632380093134093
-0.04908868377321211
-0.0961827958750205
0.006473563186001796
0.04517496886044121
0.043065940788209
-0.024859412202124294
-0.00026703821074721616
0.01123308638765895
0.07774125719637834
0.05815419647855971
-0.012833257456400076
-0.021742021706382897
0.022389141098667003
0.016087474683918968
-0.020057738256107856
-0.030865220280351758
-0.005607831094131533
-0.0006482910082574908
0.029554543634370052
-0.015258252371337494
0.014233067968846663
-0.08280108073210055
-0.05230134019187258
0.03482353288902571
-0.01584718006137879
-0.04140509530970139
-0.03070214560691563
-0.025832774545623067
0.01758832158473123
-0.009025094706318168
0.0005940304083421275
-0.008410613715793215
0.02267706022474095
0.06145693261806666
-0.0014263494345325026
-0.028157757102874326
-0.009949418581078244
-0.03398742413369358
-0.01656380424830257
-0.018632970964171873
0.008272141386513006
-0.026700411134125118
0.037678173150984755
0.0150628242102951
0.08249708079943249
0.03944454312616007
0.022458667184086564
-0.04503162113105741
-0.059971784865448005
0.034673304453388565
0.05702854949272926
0.016174063208387244
0.03655759491138569
0.08050118255783113
-0.03943437880793339
-0.009641891554569518
0.022272191474110734
-0.1248400189829127
-0.07246103559242326
-0.02143629576253853
0.0015261974232920594
0.019121438694211713
-0.11708050527222164
0.004901558442496699
0.03589642276840135
0.08135912204935274
0.0523566203373181
0.11559351932970666
-0.011408860058288927
-0.08083434929294195
0.009128879376133504
0.01848230212315216
-0.018473307561957596
-0.011689146683456726
0.025756003135374517
0.026186953620260127
-0.01416359737771468
-0.026347151565217677
-0.013226713290658915
-0.006049420926276515
-0.060827382649746124
-0.01549012849492662
0.004359154944816937
-0.0369535203222496
-0.028596647457360912
0.017839141026710567
0.03132751252785599
-0.03155068582290255
0.01091814588953871
-0.025835422472940843
0.0067149179326919
0.08125154048433415
0.028748100428604813
-0.013349854014103126
0.060897538468569774
-0.005249256502931796
0.009214021138379234
-0.053669189427830916
-0.173678351986292
0.01288868819838436
-0.02565009625354369
0.08455720141826725
0.11414517154677976
-0.035040029608715495
0.017717631005082758
-0.034813948831043065
0.10380209851109734
0.11660989271639259
-0.05513699462394853
-0.003388823948606097
-0.011160361821225775
-0.011068838380757345
-0.02083121997810883
0.03640686106829521
0.03413927009514186
-0.026848191977529273
0.006824170828963084
0.0006979425583600732
-0.03387483809310355
0.006902120238715926
0.0138599619583189
0.007857556986533015
-0.027724412266943964
0.004772721371785488
-0.005910492324189456
-0.03814120842346174
-0.001618567252355238
-0.05030850191284686
-0.06988436347525742
-0.00707846671383735
-0.011226276697932478
0.011639996265658106
-0.018619920535233404
0.012911868381049622
-0.017530544093241385
-0.05687465950714698
-0.011794205597170407
0.007777260609101865
-0.0029185943991784486
-0.007050306914609107
-0.010126623264003501
-0.02982703650185254
0.0060625913095358145
0.0001505251510153182
0.028541960766452417
0.0878641817970901
0.061917479233824055
0.08557542738143568
-0.05531798826178637
-0.03892728182671382
-0.04613353312900225
0.028546794405190836
-0.002428878301165274
0.015982268681697248
-0.005488529432968784
-0.0006017557621629697
0.1352989288416814
0.027829916745964498
-0.032195088137990435
0.0192808537129762
-0.06661748713324776
0.016412438192760444
-0.04533825022534827
0.09300829206590912
0.07700796041093534
-0.0274067529980677
0.0020184876324357164
-0.0169222225639989
-0.025953127163965924
0.0005783177035331491
-0.05961398628640846
-0.02797770842452244
0.07138337973128572
0.008444461330576853
-0.026128555378468983
-0.018107582645268513
0.004155700354404157
0.016777171859023415
0.013836639098857472
-0.039543531296951095
0.0038761527610784094
-0.04984299197516901
-0.055270282814297016
0.021631576793516485
-0.0004054198974854225
-0.0392550037832278
-0.0686655559121093
-0.022534988292755506
0.038098417567938685
0.013468331799920826
-0.007818413578089666
0.040035169842787224
0.014052235855701029
-0.008422758297155193
-0.009497902569177631
0.007846176409850839
-0.027894784733762636
-0.029142897228866663
-0.005085904732614078
0.0330169542248644
-0.0017701214371940173
0.015489344307719805
0.0490018785122473
0.00983613241787794
-0.0021572222887129467
-0.03439381640975242
-0.049326751463486106
0.03167833220335142
-0.0517850061066804
-0.01602569918227916
-0.03508408710694692
0.03899989241050464
0.10814156612789443
0.029218342833537202
-0.023150708984337496
-0.009563938215832318
-0.023207738630943647
0.02100369177628127
0.04986892538978611
-6.48253013939969e-05
-0.02212088644671655
0.017325915144414682
-0.013234788955593288
0.10036358207117937
0.005785883054348309
-0.04189325632697766
0.011591349758593742
0.04885048476447193
-0.06909696835821565
0.0941397797009863
0.0832342870117444
-0.04042618624127578
-0.005187557097708895
-0.04399638526854601
0.006152165145353552
-0.008215116809715713
-0.01844467005995958
0.0003173515276770763
-0.04602296198771157
-0.1308077302542854
-0.022233753265332626
0.005512346492351355
-0.0722342801919843
-0.09131574839547128
0.012821969795170684
-0.008778240664073296
-0.021348101758830805
0.2243124147015612
0.08121259945375468
-0.04107649722293406
0.023445538143055455
-0.0140785757676152
0.007999036429609536
-0.0265997207999658
0.03562160107651351
0.02222695949266236
0.011050034133691329
0.059989763047978206
-0.0371865515451045
-0.08388679465854813
0.02495125748865058
-0.03539423098269396
0.004869242555127493
0.01858687404388196
-0.03353559681917753
-0.036469485880996584
0.03289493343486099
0.03193378147246471
-0.006201024297450491
-0.018037317484559806
0.019598911273847764
-0.024125614850477466
0.0004500030574855521
0.013329946673067418
-0.026809237305754664
0.020112384568919662
0.05249420569147582
0.03977767426407265
0.08338507423283588
-0.013544796618503371
-0.007843787191564377
-0.0004511024475607073
-0.020175547108383443
-0.0056994483316554915
-0.0880078750910643
0.062096512151269
0.10699492036689146
-0.0287226799280911
-0.16963652164643436
0.012553422766388458
-0.09732496957127462
-0.1615186515334143
-0.007387184869438591
0.025987071856856614
0.1667922492488292
0.022787779159846953
-0.005319832548038374
-0.02139974923170073
0.0029434676887753744
0.005925735095385121
-0.015865004307614554
0.01684957360841763
-0.0008008737396602274
0.004827506574640337
-0.016140293983409375
-0.0004333543362478967
-0.005038124521031849
0.01917671351435355
0.011004614065089518
-0.027179030701183843
-0.016717690057837218
0.009917616452727745
-0.00015149408607289895
0.024445753416879948
0.052605760892850045
0.017448284585329675
0.009353650228274923
-0.012229694453642189
0.03272153607228174
-0.0003519307191242052
-0.021141128104967013
0.0024947969521597053
-0.037049851188689996
-0.01811630483276178
0.011629598072458837
-0.0057449025746828305
0.023932486740294735
0.01621565147777171
0.00720554141632741
0.01659276164334611
-0.002869973842088709
-0.004337097808831313
0.02168629734164558
0.03216755427516817
0.008895500554032048
-0.006623146922711179
-0.036812944147677704
-0.04302937887571587
-0.023553463684665987
-0.006672151172311669
0.034537018428789285
0.007891788821491195
0.02739156850863286
-0.009599764643847462
-0.004636795617764937
-0.00953394171891927
0.006742568583088709
-0.08257701361385111
-0.09836484762201506
0.05860338123588642
-0.022240620586379416
-0.0975527071314544
-0.013585741555557028
-0.0030486947726957123
0.013508123402316524
0.0851974897618912
-0.015787117158536288
-0.00937676537889401
0.022989623992764996
-0.0007692503016681917
-0.02078563285950758
-0.0018183731650383865
0.07472788800466826
0.03593299358775739
-0.028087816736893294
-0.015245319987605343
0.034688478669067144
0.002930570689066683
-0.020237806939375113
0.056067589315765255
0.01852700785247503
-0.006824580185100346
0.021603235443235707
-0.007047484460703358
0.040411772203693144
-0.1657151346326794
-0.06198668253037449
0.16185525320082322
0.04962238517723537
0.004279858467745383
0.00938081584517981
-0.012204447913591253
0.06355221037115988
0.07865409463405293
-0.022790278728344965
0.015487032290873278
-0.0009526873125274008
-0.030546344734209772
-0.010035444036672118
-0.006004593216300283
0.018882283388677118
0.01188657646389499
0.03412053563753155
-0.08161376556106521
-0.10752592872947048
0.0154450821401932
0.023663810763198703
0.007762290482907653
-0.0958649719851827
-0.010038996741483765
-0.03341242615333907
-0.018250495158884276
0.012166973790848449
-0.015512981009299704
0.05680666814470687
0.10667005878254139
-0.020734090369268158
0.061034724909287255
-0.016065740999151874
0.000913023452173992
-0.015751038542487453
0.013605353037512685
-0.10644279806288419
-0.022722515730728577
0.0030556780678285276
0.002458491499027568
-0.011592973524722903
0.013933693669207565
0.024685370611807866
-0.04500568601166821
-0.004826012338638192
0.061837182440943134
-0.0326504083649159
-0.05853816267109037
0.014347075408791769
0.03505220486906759
-0.014054012009611096
0.02813920395480815
0.005437778383003012
0.0384840477743035
0.02612377982569937
0.04773925299939797
-0.02213869669670067
0.006672873702423764
-0.017117273137706186
0.014697195805816972
0.004815446908085491
0.012066296229426517
-0.14740028529751942
-0.06549903738466444
0.012780977120345692
-0.009351321856521492
-0.003441768030172088
0.0023525647631887758
-0.030609523196032887
0.00872777996949931
0.013840060727383079
-0.003996657724203503
-0.018027149441545327
0.015956412094583483
0.026799383778908892
0.058899880632526845
0.02669843495394609
0.0056804046856884435
0.06022307259266759
-0.03205484802584039
-0.001788983692035487
-0.0026400602106803443
-0.01157915760281887
0.02072811410847167
0.013912971646883262
0.009725359798979451
8.904311210401453e-06
0.036545855475415494
0.025047482412783033
-0.0237381683698336
-0.011093002320477231
-0.00778341797916604
-0.02151438319501798
-0.004901844409089494
0.00022164681902616916
-0.005367658174290418
-0.026128995389350127
0.03290324998380827
0.019000819225953345
-0.010286618142676474
0.008728927642548635
-0.001919449219541564
-0.05087577982406193
0.004386647528946571
-0.009749805606701483
0.0488934391598824
-0.011003721261633074
-0.004277614305703658
0.005091697141531221
0.07223170574956797
0.12929305990321016
-0.02902332907518427
-0.018887692690856148
-0.010238525649194596
-0.06515793193766188
-0.10337923729079318
0.004403737456036913
-0.05046620815658644
-0.008660373864885792
0.025516491202478214
-0.02761299077616343
-0.0038927152586258644
-0.02610688427890455
-0.014677268782749915
-0.014042298375581626
0.03439084332308539
-0.011641592168632095
-0.026334441224418855
0.00939190080804164
0.0009585080521104603
0.013689201011158341
0.07720129875716955
-0.05586740513294994
0.032220853076925786
-0.016947056971385932
-0.037742546404672436
0.042250283741619495
-0.033391231651818995
-0.04362704685640418
0.023327073510391705
0.04329310307904272
-0.037060658625607396
-0.02029575765271215
-0.025865106055327096
-0.051558000183012896
-0.03436760099024732
0.006277380633112133
-0.029171421287867042
-0.0013459496692959647
-0.04332376920669674
-0.0356434717185879
-0.027159129350189572
0.05823538237291639
-0.025189705510018357
0.024248906752303068
0.3009047854634991
0.045983791000846125
-0.01824216401704548
-0.03596928798067966
0.20740757110618818
0.039163078095905975
-0.02479171209163003
0.007430901722966298
-0.046952091672475715
0.004238678574193812
0.06623554353268797
0.01569685143293711
-0.045705792065272595
-0.017516498222603937
-0.028028076656725173
0.009934032103024982
-0.03916552804542855
-0.006572261173751245
-0.0304823618871989
-0.02362452936837058
0.019708619050087764
-0.03402389638921071
-0.03015868269241222
0.003348844055089329
0.03252468089677618
0.059173951546096684
0.051051704000582655
0.10278027405499388
0.06575400217940998
0.034102240060278205
-0.01845636360482632
0.0423597082936594
-0.18788176070925866
-0.14929742899389364
0.03681292902165641
-0.21855076287953173
0.000994618490517755
-0.0013777200574016334
0.04779139552039375
0.04116729989816007
0.003186921413167826
-0.07044294052740112
-0.033776893434988665
-0.014509700878217307
-0.023691142348464204
0.030514049555155496
0.0947811871167785
-0.023046842758539247
-0.005797116752742155
0.030847008348567767
-0.012066269335201307
-0.05407260258539455
0.009969663414771738
0.005180676848623579
0.05520792788922988
-0.03244364295047365
-0.060049598394387255
-0.003272177550996366
0.017962041910630507
0.002610231948766735
-0.0033453367317345974
-0.0035961459893684507
0.017994525222808647
0.0003352108019123841
0.11075400904362019
0.18251680227393266
0.0335732841521219
-0.0044384886826175475
-0.03139680431665062
-0.026074502865761698
-0.0364798604578771
0.024507347234640826
-0.06777117015580861
-0.04891935071742886
0.032021991430797696
-0.0004127163686052901
0.08192760132838398
0.039062848773226945
-0.016504723966133887
0.04597025280205717
0.0004562881757425945
0.010287129004919076
-0.2007772620509143
-0.04464682273498592
-0.06692701608052208
-0.08053444449922012
-0.11598057843877192
0.14419450164489844
0.0060237398102773315
-0.14147252550435813
-0.022648325197736706
-0.034844580104008205
0.0636329224079384
-0.0003558847875001668
0.011228173869045248
0.017018859495164414
0.015732500262424357
0.04891904029715688
0.016770412836953477
0.05872564628727399
0.019855164560346514
0.012846556437511404
0.036700283030119046
0.025093934452859765
0.00873568288751951
0.022530034205896332
0.0026584464217468723
-0.004083908305800941
-0.055205737219977895
-0.013523381942508454
0.06711573288790887
-0.07100740539294989
-0.011031105273383553
-0.011823166619035434
0.005223959477970013
0.00544235866894044
0.018056556600585725
-0.05016579701089965
0.006361128081276721
0.02971354892081971
0.029825037763395894
-0.0018651474902189955
0.03965747230200373
0.007772492693993988
0.01793935758939053
-0.0035087518356517328
0.0022785660562658584
0.0427265797938862
0.013664961508470429
-0.014116506218038246
-0.08200981956453131
-0.03594438487356563
0.03643936446870713
0.04954301589015439
-0.0301119962612618
-0.013564337705413007
0.023410208592917002
-0.009264291663621147
-0.0062683966180079684
0.05296398295624822
0.05463896555855168
-0.01873896121309621
-0.015412004922489966
0.013003645679043111
0.011704885818348883
-0.004193550189552004
-0.027175834169559966
-0.2046509483106955
-0.028576555503067987
0.04003857544962054
-0.021819898630886438
0.06539057421285185
0.04047681737356938
0.03478728987743608
0.017739867705925564
0.009838256000941972
0.05328157783324888
-0.03344408996156815
-0.020803712759445578
0.013212510888569203
0.05159452895815907
-0.0025460012693112265
0.009695958696773057
0.011751231872442829
-0.002095781899454925
0.012170590630053926
-0.0035263442086738797
0.030081957381428277
-0.01994317791731921
0.0011893671429162363
0.012262888395573972
-0.0003073402550223713
-0.02188170785902757
0.01003335457145417
-0.020994888751125484
-0.007387066791415693
0.018826721503253766
-0.015020126404474988
-0.0636143063932157
-0.005989456075293209
0.014051229679725625
-0.002336433296551901
-0.015986092971620965
-0.011233846333415426
-0.06897380909964841
-0.22008237348350856
0.034211324165259335
0.03962699596249603
-0.0035693262669319516
0.012408673341955521
0.007499204631324266
-0.012399654250905322
-0.012470885993196042
0.006846738278786847
-0.011732150984280276
0.015503965161588367
0.00873082211790483
0.011228819393432898
-0.002698387013713845
-0.05780822539571376
-0.022273831968816774
0.029666886482352477
0.13812586983768613
0.0016361498193026714
-0.07040503261913224
-0.014697560361321431
0.0027950480914462586
0.032535377301610775
0.018999359478758936
0.00925166163384161
-0.019862489524827547
0.0005332970483843145
-0.008104736918259744
0.17464872914039106
0.06618478460813458
-0.05135263983055556
0.006890407026147617
-0.08585117630568478
0.050214653397056094
-0.04519182334141422
-0.014235144626043523
0.08163599614275024
0.0031153271493877728
0.014183331272285169
-0.005922965019482341
-0.0005148663015694597
-0.006586453947790808
-0.080794955011064
0.03799510758766397
0.1147013441610252
-0.053047115201102724
0.02267758467561387
-0.06992267361676902
-0.07916695822426076
0.006073775008306992
-0.0038798349849337587
-0.048655937219607294
0.0059598726047165
0.032733921278782385
0.0014210611191611327
0.020441522102602333
-0.014990340098236868
-0.04035551674066841
0.056073342146833946
0.03019063316926343
0.04312459714771207
0.07145145652234033
0.008930561315085935
0.015390161031825226
0.06980650066218927
-0.01431567619170649
-0.027198808632735647
-0.0006451385456219038
0.010861791277929578
-0.009128500023795078
-0.00019102463770071537
0.010144944674576325
-0.03716051315354675
-0.10054373008516919
-0.008217094108880866
-0.025431979386326364
-0.00202365485140631
-0.023044092434153667
-0.017712275027038066
0.0013181007378844946
0.09192461778665846
0.005416338240908336
-0.05917225320071753
-0.025238469287741323
-0.03335073865025194
-0.021280289533493733
0.002330829520856498
-0.0415698946535538
0.04763913615091325
0.04683733562437539
-0.006303513621631452
0.03228768936269822
-0.007937261253433924
-0.06671163146042529
0.015065715329796852
0.03836894743788885
0.011401971334163836
0.011916751813643904
-0.010895839941543606
0.013550722937311245
-0.03198235831144745
-0.004540401983012414
-0.008439841401189321
0.018378792003777004
-0.006828688872363686
-0.02012708705239526
-0.022315797228210508
-0.017016808498254134
0.009551078171232217
0.01785581595784146
-0.012764834899426182
0.0007132326626903278
-0.014296038234953925
-0.006700465302958429
0.000516089663413908
0.026226030634272986
0.022311084536883068
-0.0004225392026824271
-0.022474698961033036
0.013284219704034836
0.05474029012673322
0.15022135960498312
0.0251479732884359
-0.009343461987302787
-0.002346332970494532
-0.01849486416462391
0.01393175267248104
0.04760378468091163
-0.007568700733469267
-0.05749618244893717
-0.0008290710399165818
-0.020995831846083415
0.01292447013064509
0.017042692655632644
-0.019634432795318582
0.015385829547831726
-0.030450505304410163
0.0035914950150991113
-0.061643846243338386
-0.11313998391299845
-0.01678034766715199
0.040234809015038966
0.02117497551269097
-0.01583758380057675
-0.052777057254602876
-0.02501266781055392
-0.006955701039843387
-0.019147586213642712
0.018407478687986808
-0.020028856014106037
0.03563020289587325
0.07407393558205287
-0.021613612641538053
-0.005009468091791004
-0.018642940685493683
-0.021095096312494687
0.0021767486508713243
0.030873920534906098
0.0039593820986169774
0.008398524849834168
0.03563356112546459
-0.03305804850563529
0.00021579015928304784
0.029846237033883997
-0.02016379630737161
-0.017150112066276806
-0.0241920139070318
-0.01510401583173352
0.03868881222529148
0.002954442160787162
-0.02172976684713881
-0.013591726292373502
-0.027415757166084128
0.0001759680611586347
0.12890649790539369
0.002919309256515224
0.0028253940772422245
-0.0009589615276043277
-0.028877504338244847
-0.05155417270617766
-0.04010982875300789
0.0016199327458769292
-0.015893768375267035
-0.017772732061842197
-0.01603539136996538
0.015366562199991192
0.001462419669260277
-0.008199509967964192
-0.0376444486614752
-0.05728271643666794
0.01210689905242623
0.02993600175633043
-0.002371392778580694
-0.005839909396926106
0.053124634180144105
0.10302805209406286
0.028535079567480026
-0.0007917083356715556
-0.024755369627359768
0.03583031283205189
0.024658607023431287
0.03219229874017419
-0.00900349412060997
0.11866998580486562
0.09116700228060165
-0.025674169071638935
0.06735624401943736
-0.031164345373583573
-0.027719091704495595
-0.012179445265843
-0.006127522221369976
-0.003432263515471571
-0.02912386603626342
-0.020754740662192978
0.031707189939853275
0.008652019050683293
0.008138493398437655
-0.10244547906952989
-0.06496223933931704
-0.041325292610512945
-0.028726341941631747
0.02700245552490295
0.06285042133649607
-0.014155625032274572
-0.03334547945447986
0.0719790391344704
-0.09797330574732915
-0.14052928825753805
-0.024186951592291037
0.024598955972518804
0.042885791098086996
0.008548510119205896
-0.00014592946460826225
