0
-0.02402787039220418
0.03370999861284645
0.00022037955608776087
-0.01109233331565998
-0.005121110056014111
0.0003270244468845355
-0.019950772798906953
-0.028723294397599883
0.036498814939859195
0.0388525218424163
0.046583974849568485
0.024343447859475925
-0.01634141705291291
-0.03470508222542666
0.006769692171268498
0.018851264572791158
-0.012595067194492427
-7.061720535828094e-05
-0.006562090153583283
0.011836897973475147
-0.003504745100065492
0.044205016272551544
-0.030623138682712474
0.009036848414192509
0.011393702486646678
0.027800835260909436
-0.04314556006464056
0.08669010082901947
0.09818295733106089
-0.12267955148043444
0.01887872225750636
0.0035182368296631434
-0.0013032712350338567
-0.019295568734372024
0.0227204414320928
0.012404641119366901
-0.18579352944136293
-0.01420304068900225
0.02523439157950339
0.02991971781405437
0.010740242988702731
0.029466655771763297
-0.008905948971380827
0.06238958519522486
0.0425165709013831
-0.10087728980393242
0.029708408779422976
0.0208475057519299
-0.0013703213210313745
0.025218906260498573
0.045171846876062016
0.005554621816302637
0.012935187313681795
0.023933555509866936
0.005306694562486249
0.08529949926068602
0.09261921695351344
-0.03810074414639466
-0.007287439948737525
-0.12367934242949122
-0.014272045019026165
0.015027859570416028
0.015011608375566041
-0.0039575476174605485
-0.0033100750678705542
-0.03469129873339351
-0.013109052724486436
-0.2243939943731469
-0.11696945198330229
0.006835276387451783
0.0042478928751144545
0.005180366796679706
0.008041655208695484
0.050412910637855426
-0.11340006027782952
-0.011004898243352169
0.040674578933141865
-0.037975058531022565
0.005553241207992779
0.01161711365046917
-0.02051093706620568
0.02706655688640476
0.027350259276849982
0.016224265007927428
0.005273167867957523
-0.017096413596637647
-0.03426308634042245
0.04176572350044875
0.04241924433032846
0.022072764456552263
-0.018609447508465236
-0.014764658357546012
-0.007768976021130101
-0.010467297899553547
-0.008767929248910638
0.014415128136472898
0.05142711674938605
0.022250438942452915
-0.013910856465908165
0.024890648176503428
0.05798688234713886
0.01581518459899468
-0.019899985686172805
-0.1430607644983402
-0.0013827788343051069
0.01124878864850395
-0.019860893546126353
0.007007782076443204
0.071034504279709
0.06340325593857721
0.04051004884527115
0.011068171748324208
-0.00874116583093722
0.03505044632316349
0.05591558960096084
0.03793778685687873
-0.004610690493916213
-0.0076913444212347425
-0.008795971520330027
0.0031847080482212456
-0.005219566070211038
0.08439542262030685
-0.01971627324193488
-0.008000184303233385
-0.010802953252852314
-0.007461574916518412
0.07254733564224658
0.012919919605935526
-0.004578154856456226
-0.036223782977073876
-0.032947829166916236
0.02479890939178995
-0.02569556701888083
0.07600686884390317
0.015439283818686991
-0.015977000155809416
-0.01760614748356901
-0.008937854004014773
-0.04320162672727539
-0.1282529768255338
-0.06285195296598212
-0.0981073757582493
0.016130678925062317
-0.007283503297063625
0.029434668779396087
0.016109268860561635
-0.012929660957617033
0.012905982113396598
-0.03445293188985635
-0.14387083809774096
0.07791247105036436
-0.010516953009672281
-0.0022112713015526074
-0.005244072984967277
0.003973871919213421
-0.0185832968495172
0.01066161354613012
-0.021370645085316387
-0.010543523221912038
0.04468024182897746
0.07702138001061054
-0.06058312787533046
-0.013980500771843108
-0.015963022412595007
0.15347590181072016
0.10351727605036506
-0.06816236751100654
0.13377792655529522
0.02148351828128516
0.000560442235250229
0.011483365524164717
-0.029562727139657113
0.014480720295983318
0.006343264691174328
-0.019752401967294456
-0.018812696002522028
-0.003634022983908497
0.027592439569916107
-0.018049435293017935
-0.021239844055761292
-0.0181491079487607
-0.09119670812695638
0.0047365695074700455
-0.020911735370338143
-0.16379268516966014
-0.003908996200955729
0.001560804214168162
-0.03619724591938799
-0.040652185835809776
0.12825951156174062
0.06972806288467222
0.009152920619340402
0.00428915552491446
0.017707820785241687
0.037970646596038785
-0.02036160327775576
-0.01246198098770904
0.005201657091605827
-0.004593915355950172
0.04369141856595819
-0.00018559690120381283
0.04761474101828063
0.04682440453806346
-0.00040186401291733386
-0.013899620389985429
0.030177060854570458
0.0424891674947624
0.005808502891777724
0.004077363550643147
-0.0170073221494909
0.02921124739336202
0.13100109572095275
-0.014978053733891631
-0.08495392661869125
0.0020290383050720518
0.026617570423769443
-0.07642703413433029
-0.13532952959085176
0.031675242907545954
0.06320273024837739
-0.009532926134555631
0.0014526488420916542
-0.021067920096350928
-0.02355624134600086
-0.031750586298006936
-0.035949213592069804
-0.02017261604474349
0.020044332956405436
-0.012306505221063711
0.0025566595819564637
0.03302673203164516
-0.006223006265004516
-0.029923105063248887
0.04569771894193774
-0.19064072146732444
-0.12183707383653232
0.005059853913909306
-0.03281348660690041
0.009028031676031433
0.001162306272787384
0.011767194343334966
0.005024619781846412
-0.011511606542116542
-0.033389080806614284
0.012850398042005004
0.048550045715935325
-0.02070894116341575
-0.022658694747215345
-0.01796577414286232
0.11546690733396976
0.027991313379800938
-0.022339704805368753
-0.04050139514191825
0.0811062247935521
0.0978738880601848
-0.019504362169724083
-0.017710966889200295
0.007615669123547391
-0.010413219275395529
-0.01108622036616897
-0.0020516695009782553
0.011951652337334369
0.0029686452163649657
-0.024702130793489492
0.026713897924180253
0.08503873483789352
-0.02117977760869194
0.03908745401632446
0.031081735375039648
0.11165914742966228
-0.016761588721073067
-0.016235830641817054
-0.03986813620231356
-0.08310746168440157
0.038799424768951776
0.059088308571771185
-0.018889787743303976
0.008788392548061633
0.00018240852287343363
-0.016965019532021165
0.013109058561662898
0.10967356491526753
0.033122189060131514
-0.0405163676333675
-0.013762844643647801
0.045277159278245833
0.035361733838118914
0.00409413846139081
0.06062391227614905
0.01427834130962196
-0.0005706642932981066
0.021574386444574486
0.008146952557044902
0.0007765259842192711
0.014308569206486422
-0.015431021813704525
-0.05515025545257053
0.027380666580623356
-0.2422039931927711
-0.09109361986009144
0.015666031131788452
-0.0073269261687145815
-0.02094248916727232
-0.03669900530203002
0.011922422665379361
0.006487665900048455
-0.008983762406589713
0.014382430617749645
0.010192917496171527
-0.00872366242864483
-0.09333357586853025
-0.08112557100016722
0.03922685494955814
0.005663247617963483
0.01425165432578196
-0.028568784136777766
0.0005467506819359411
0.0061229729390609635
0.011353728497183883
-0.013417484479556704
0.00235942447164622
0.0007342968333296939
-0.00220187664784871
0.007674426610595778
-0.010921953403053151
-0.05628106400632429
-0.045345049174134115
0.015167300055069147
0.029194672056130466
0.01528741266078265
0.011657996525724584
0.0007010614923560468
-0.0065522134349710656
0.16077933839231381
0.12156653694851917
-0.011265255181063506
-0.028586224168373944
-0.03248634985318481
-0.013294358418715228
-0.06809866135131028
-0.013181995139517847
0.041104832605726574
0.0346809940867165
0.014887857357884381
0.014355261172329055
-0.04702533862957019
0.006900915996947319
-0.015065849184987873
0.01851288556337463
0.0515013414640218
-0.020045460488847384
-0.003911748152047759
-0.0032030010870938846
0.0085692872990493
-0.030424861188030734
-0.040644429188746216
-0.00809207472718907
0.0025056817594949184
0.0059265129420199535
-0.005343952291966999
0.03728365313728531
0.005212280663180831
-0.023157660768661707
0.06587324421070694
0.004388878168975236
0.024967869708950697
0.00022998538359306393
0.08358071121244927
-0.03166734351230339
-0.06426603246285832
0.013796714518005265
-0.009288046777857753
0.043661471701814974
-0.00228110803474971
0.058497258441821055
-0.010455118321903066
-0.007366457993751838
-0.00869744147483974
0.011869479268302775
-0.031002114835671273
0.01369832598154352
-0.002892351991389575
-0.03157009225439805
-0.02050250704609411
0.02175560116003911
-0.015287231515142953
-0.012056654730051455
-0.002743046796060165
0.005525512577676167
-0.009213959551807168
0.005016553623395109
-0.022167008746841712
0.006072045518349214
-0.0032588201589910178
0.01580659638834082
0.015184779393637665
0.03668566710734494
-0.21553223660278895
-0.09044380718456699
0.010738712489745558
0.014038526984640516
0.03557203223393705
0.029124861912116485
-0.004505126963313026
-0.005484173961604965
0.08381111052280434
0.036475394593404306
-0.0475596750117279
-0.008232619020116917
0.010720342401810114
0.00547905030512004
-0.01867662200776866
0.04428509614071716
-0.013681151911128111
0.0638995092548951
-0.012313468508334915
0.03524656151378937
0.0037254831390164255
0.016384871189623562
-0.019192357885417472
0.27790599258969806
0.00940135823859169
-0.20278319469650088
0.030876669704729284
-0.004677586832897519
-0.020118428877150964
-0.02510514492606726
-0.16969623433433134
-0.1309998372487939
0.10368459913172896
-0.03811143330030574
0.021494550194348386
-0.0031429969780082923
0.06914731472025205
-0.012270196707417108
0.13375654122894445
0.006371908436921531
0.023725883943429175
-0.03619543830742378
0.045878899967366334
0.0025848005811571688
-0.01536709228579428
0.013445797691032239
-0.06921670482586871
-0.025828852456492524
0.047242692306361585
0.008428726077902206
0.04542043498248739
-0.11763479173702135
-0.2063276258505744
0.049301033630397
0.07205181122080305
2.0450242480393656e-05
-0.006297369067521625
0.016490786516912694
0.01324411771991809
0.0321617335150551
-0.010959708191745977
-0.02324831530071974
0.04176532637700762
-0.014285908428831004
0.0005617910327001898
0.03325221959292203
-0.07791549518674253
-0.06890065986105191
-0.006498160666476331
0.0036466727983994816
0.03403192663313558
-0.01576776147116202
0.06586852345407947
-0.05423996982639575
0.09588227413395761
0.03477641451639997
0.036295818907079364
-0.15702768215861146
-0.1668437488937218
0.051342299412201704
-0.00239423407564593
0.06675448405164587
-0.001367170907635333
-0.024723996681940558
0.012647389593384377
-0.017495750427379612
0.029536070674888643
0.1345823901842829
0.002751563887921497
-0.02650978630790602
-0.006875059231877847
0.0021886710530839323
0.015090007332643152
-0.009683377407684348
0.016517139444214075
0.08560807047421935
-0.011499256893680766
0.003629255160620798
-0.03323804688312577
-0.01831759081289575
-0.012506667503674365
-0.019788891282234652
-0.02128794611810625
0.02611375954157867
-0.025865234803479215
-0.013931970249144507
-0.008188989278950136
0.030078402639177583
0.15895081227776692
0.0005126401924307887
-0.031179136904133
0.021481652017988132
-0.021577244077581676
-0.02445175799985345
-0.014646984152160645
-0.0037213956830220484
-0.015306562415387769
-0.009830753500964694
-0.013100919555550775
-0.05557660956169454
0.03350277078495698
0.014696897424562795
0.0016687695137171212
0.08713577517840616
0.02002865304671051
-0.031406972181095796
-0.0202891926064709
-0.11762624867108364
-0.015156633434569003
-0.0021034317464901273
-0.029449198550804006
0.01147294978363093
0.07793643218357435
-0.023148986193650876
0.04715178142931136
0.0002951338297817116
-0.018797639346966433
0.0016605699362514743
0.017804408774678388
-0.035038466656701
-0.02969942133780846
0.05182778362289052
0.05814410127819442
0.0002395800464308984
0.018152333028866374
-0.008537361007014353
0.0009713384798562455
-0.02262446366828142
-0.014433585796546529
0.020264775494501914
0.12311851005338553
0.01349196910359252
-0.043014168619508186
-0.021186196873792834
-0.026884217734764928
-0.012807216958796948
-0.058066834856056855
-0.03788283045146701
0.0033203790364410746
-0.029469758403456957
0.019813177602212108
-0.01173410096554256
-0.0021480195929618594
0.006237653986044177
-0.022355957449704852
-0.020266198318990743
0.030231110644520474
0.08645203955499076
-0.016367159249482732
0.008932357460328427
-0.003893646910975274
-0.005034893871667019
0.024832080848750538
0.02611797609547521
-0.0344683258301907
-0.03316094569046458
-0.06307114212123344
0.004305778686572111
-0.006286915361066118
-0.04579439266230273
0.01680974559284733
-0.010269129071864457
0.0036756396355042188
-0.038677101805247596
0.014207440687499002
-0.01857099881879138
0.06897582119811967
0.1090050643473851
-0.05798661376056312
0.008935630633186333
-0.005464811629545916
0.02439786245692736
0.020882014669386346
-0.02193435638077361
-0.035485186161674676
-0.0127848653117875
-0.052731177599979834
0.005050737888922781
-0.028430187721824585
0.06588296392279507
-0.006625022271211008
-0.029656229275703824
-0.03969320138809603
0.03713420176761179
-0.0012245761794006178
0.002810230886660332
-0.07140750983907074
-0.026636488163043415
0.004557223133580585
0.013196627340035268
0.11482393701121532
0.0041237146304198315
0.00342659844102346
-0.032598698729523576
0.0045971909049490394
-0.0036359603963420114
0.03405428990341732
-0.02136079049656499
0.07216529244207028
0.1265852782966772
-0.027405788974934432
0.004048674474412815
0.005860944246666726
-0.02993975716993826
-0.05904478098303307
-0.010712733950385236
-0.006837208614422998
0.09131736649484265
-0.027071416832213206
-0.00374947969041685
-0.0523294793641254
-0.059519776295094314
-0.011351374066804708
-0.010147770196146363
0.03522270748967242
0.008132218205791897
0.05562731109913549
0.026573727733001967
0.011887441938416711
-0.00908349939465934
0.0010571878049845556
0.02107291459363595
0.011081637471648696
0.019551167360812603
0.01522171582669927
-0.026204825113562986
-0.014926854575343889
-0.02516910850161601
-0.028019086544220785
-0.026079903619501237
-0.011054109985533602
-0.024996438609848556
-0.023921447937974637
-0.005005345162831527
-0.005461348073857333
-0.020116229908178945
-0.029473087544025174
0.010905103137020864
-0.012557170527567996
-0.016077850484197173
-0.007204039480873321
0.030403882758006134
-0.014230355584856642
0.01951198366579137
-0.02068210580623428
-0.059289633660277556
-0.007211218690807931
0.004004395365109292
0.012878954941703635
0.017866932970960713
-0.015840627216972155
0.0012558560166913986
-0.06495837184803828
0.16543855247253092
0.20755166665578587
-0.015129136935705376
0.048815394628994035
-0.05369915023610392
0.022570972579938932
0.0594044294439898
-0.028016957495861486
-0.02674317150179756
0.010414380562598
-0.017840246171791523
0.07647238194482693
0.032142392782301514
-0.04024049081185034
-0.06425849913470155
-0.008652363226106682
-0.02951960559291013
0.02304888625053685
-0.08590897936998734
-0.04523165402029989
0.019916316977569067
-0.00024475722021153874
-0.026040504394404564
-0.045024159251785975
-0.008044003058523673
-0.02367352086144256
0.0005882089145905332
0.013962214484175338
-0.013774909536870338
0.0007594384701467626
0.0027630002458718973
0.003565192992728888
0.003450389589055307
-0.0021034801477014015
-0.024516206259233012
-0.015663126710880975
-0.005134697746438677
0.03518013037610407
-0.007352589501139601
0.05122113313524296
0.03819531737881012
-0.022264585950766046
-0.014652651151393989
-0.017348146416689428
0.0028145883718240458
-0.011621790403502922
-0.022528705132969146
0.002076923192294874
0.020452862878091446
-0.00811687145978635
-0.01916508981881942
0.00834660816310417
-0.02048997088302752
-0.011288822861675554
-0.014142650487516359
-0.02326588191555249
-0.036931581899021994
-0.001049840559187332
-0.02312657700599995
0.06575044770418773
0.05333634821785287
-0.045199616999265044
0.03358202110780608
0.08941085733441151
-0.0217992942127365
-0.02606432789305245
0.11782831420392996
0.015246358225284952
-0.0023692181549830236
0.023538587336744257
0.014343374838247297
0.001294874968233745
0.011696089720091271
-0.014940140195209999
-0.01785968633954427
-0.02296228250837219
-0.03380722753321747
0.013000535182612615
-0.008822231717177685
0.014239272654752009
0.004860079654448139
-0.043291896582554536
-0.02492131292935252
0.0614386394322658
0.010124519689659729
-0.037061504368736134
0.01626972557793891
-0.04419100675507604
-0.009546098311874649
0.025503476495977142
0.04318382689257276
0.0017265051355803693
-0.011744554989968662
0.012656000905344614
0.015057377762108762
-0.05758241101953115
-0.01368693119883207
-0.002402933249368464
0.05677558079973428
-0.06877131833556424
-0.1065633068521635
0.04631263149674443
0.20099905636162402
0.07605009839679669
-0.05870218557060034
0.008380170378531006
-0.026896480736762877
0.006147993065843462
-0.05450628531572491
0.010116023748299065
-0.014852903908014617
-0.028854161276759542
-0.09833252854271773
-0.004952215534652911
0.015358783618783445
-0.021457562763616607
1.5511057388938234e-05
-0.003038183261917223
0.010248103721138439
0.011265813015548428
-0.022152996671278458
-0.01972310170618131
-0.01355005326412098
-0.008354013544041887
0.01940982100429313
-0.002534181447743282
0.04233394499141566
0.061416804433431955
0.017443267598170054
0.034668730707687875
-0.009227083641564533
0.0011894815217630876
0.0008324321213334783
0.0015240180617620458
-0.0034014747517073984
0.0384096164573253
-0.008940771255964219
0.0078436963662484
-0.01885103446505663
-0.07303300175220766
0.025425219149739622
0.03684047747101608
-0.005013071782751225
0.05162585793118521
-0.10875214485753647
-0.20411669094713855
0.024530028078056633
0.00014287717830068495
-0.007040750931394662
0.023652359091808996
-0.004274232957930995
-0.01823006323483664
-0.02206025318206716
0.02013707820844322
0.0013260845384888127
0.03177135096534592
-0.016134189993559107
0.1352421259090428
0.0415938082559833
-0.08966463025447553
0.04397935018977978
0.005225084021794573
0.0031627255789908396
-0.01852583972974967
0.0055120595993635255
0.03171604409209264
-0.009339179079118912
-0.02281421082411738
-0.02279992100799551
-0.017793151458576777
-0.007278952859695395
-0.020169881996173398
-0.028544958947599206
-0.01193149179265552
0.04258784551511308
0.023110656284271315
-0.022697640881089727
0.023000433769396592
0.11357933675669198
0.01644989164753259
-0.01206515192466258
0.01654251810434612
0.05097831338215416
-0.014508339012154226
-0.027680173165205674
0.03045774375403076
0.0039969006059583515
-0.024210196017269855
0.004365840815982951
-0.0311456541543255
0.014914369713726582
0.004494084121760708
0.03813478253927749
0.027699845664753545
-0.029047301322882742
0.028221754648896303
-0.011965366881543125
-0.0021005127488184067
-0.022284485812458375
-0.01355824589436056
-0.07742211529808557
-0.016926473417045035
0.01871723482950576
0.021467573237514595
-0.0035406623349217062
-0.013226767967534992
-0.02145404314424817
-0.006556915359166201
-0.0061577479372748895
0.04476171257396167
-0.002877084382884073
0.009271415719832544
-0.009694249765209292
-0.014458410002676796
-0.0016444666424924414
0.010317416846291453
0.01942935201205484
-0.049165994643285506
8.994560610620018e-05
7.105708120548667e-05
-0.02669540990999852
-0.011599554637790284
-0.020183353132438735
0.040393993433756284
0.14447693676568296
0.004926031826441413
0.023369197971799885
-0.046544380644671174
0.005965626384275594
0.0005233490681136078
-0.004266053095262277
-0.008408447494144693
0.000927100085029489
0.010090281111570286
-0.03061714987740739
-0.027055084075740605
-0.0036163868162299257
0.018952450956253853
-0.035693420246003096
-0.03349057223110436
-0.007743968707773318
-0.03694683187824438
-0.0074954941900075055
-0.04463139632580996
0.0593972729517885
0.015091030486869305
-0.013694141908012426
-0.0007965048555464463
-0.006533077635722564
-0.03645165850714134
0.0006851715236168967
0.013402550351181843
-0.013443717754805943
-0.026125821749291935
-0.039204654575564414
0.005988504395710361
0.009661982166399033
-0.00198432415546124
-0.017366626459132048
0.013338947110895023
-0.0013404143995768972
-0.04045070946524902
0.057653975439094146
0.043716703134398925
0.0065557009060616955
-0.012118558609209122
-0.02059290424742635
0.01036451554462141
-0.040344935055276455
0.005164043109780875
-0.030707990602549265
0.09685612040171547
0.07596826428546037
-0.0472803231267422
0.0854678292925113
-0.011211175159886093
0.024018310763345176
0.01433739253673362
-0.016813207211749084
0.015623514011892855
0.019663471409544477
-0.012415265602414705
-0.012951549825327641
0.0026964126781801765
0.021708576479099302
0.0031794875396314627
0.0033667873909131217
0.007691850949903399
0.010484823383409806
0.008734413818493936
0.026883599542779146
0.000950917193456779
-0.014141800594167763
-0.03878921455639521
0.004103973860307556
0.02215979462602506
-0.03338965368023666
-0.01566395059231731
-0.013085126895675573
-0.03829691714583658
0.054124036583613686
0.13152240974643123
-0.0013873609602868613
-0.013376487334195303
-0.08465021608196066
0.015687237067557782
-0.030354752163278126
-0.021726257792421023
-0.014802262249624868
-0.013658433353886987
-0.009248959853441005
0.06736477159913482
0.039279429480003875
-0.0032065940814776455
0.018190855442179577
-0.019981364182856336
0.01945123238438348
-0.02106604470956884
0.0056727889048656275
-0.046014033315122445
-0.05873108883666648
-0.08581639339008844
0.0442530744324624
0.12421663539061978
-0.0835829928775295
-0.06386827504605684
-0.011321283118188447
-0.029250130947898672
-0.09028427608294608
0.09937231817296922
-0.0002032868009386342
-0.008658069258914275
-0.03599311112063935
-0.007272623944001942
-0.025682596016001133
0.01524845841645497
-0.004140546085579812
-0.03765525062530612
-0.010334703684178369
-0.03373930010249524
-0.003800230921471819
0.0033475961062194707
0.00019777014065960956
0.025138945101036987
0.1262660813043191
-0.02129192101096459
0.12490694044305058
0.03922831350670107
-0.04300257751957281
-0.0063992103011586065
-0.027846007506919308
-0.011191903937377484
-0.02836335901322623
0.003254328862634761
0.03578830921812297
-0.05625117577799489
0.024972059655013666
0.05237221755145752
-0.0172746239897774
-0.02365245179819602
-0.015438835593172716
0.02520359066001083
0.008024387222859343
-0.014767973888495576
0.05569880212596053
0.016373939249927992
0.008395219330447064
0.003664930977433122
-0.017917544181513468
0.004070179542533655
0.0790905855281557
-0.11562627727394816
-0.06352917018214047
-0.03481555029002851
-0.04502562150547878
0.030335508023013425
0.003288217925656248
-0.044476021509139284
-0.02236922038454251
0.046115376414628886
0.0008422376304214664
0.006169374681829083
0.04039720934277723
-0.03036359492241475
0.05796741768194487
0.14412343674758088
-0.10382747021416147
-0.10357879274423827
0.023548354893869982
0.08288791530126
-0.0277311686559814
0.13567155709300607
0.06750411829837971
-0.11162183730466854
-0.06578867223234658
-0.010716058637679455
-0.023607188393749156
-0.030647446522838212
-0.049121853669904035
-0.00895664402728582
-0.025994969374524494
0.02356120899128858
-0.03628689939133015
-0.0029327759200348056
0.0029343423648746578
0.10915952150987093
0.006956616302268658
0.025349562434700143
0.052595860756082864
-0.03167004824917168
0.10353917479663152
-0.05265121901987443
0.003957581082045541
-0.10353773138082115
-0.03267363791576581
0.0527282230746094
-0.02078751615206319
0.0365179590100842
0.16715940504159404
-0.011227686229446681
-0.1163152013407791
0.055532457828277246
0.026604596167214525
-0.035399096440501196
0.05033439283185758
0.024329363803895745
-0.02060086325512079
-0.04058986227667443
0.036906100458148405
0.048730751264669296
-0.03994028882333824
0.004863408611832241
0.03172530289075908
0.00992130828057918
-0.03138786447650358
-0.032550046353511476
-0.008887925408309343
-0.017410973527924225
-0.014824276645413787
-0.04037335701615992
0.06868835450031605
-0.01565052481638748
0.007205536500943534
0.006500834237373409
-0.022132786648903963
0.005691558792197209
0.013350392528112936
-0.03249752309101479
0.02391117443749414
-0.025624342739211717
-0.004200522793402326
-0.028421782081386734
-0.06261155555634057
-0.033615473218548964
0.019119563425428844
-0.007178085627777145
0.006101274035334935
-0.025587161734170163
0.0011481020966281773
-0.001460824838724927
0.015380440973301013
-0.0881708516485794
0.07526178019953271
0.04006288538169781
-0.028936383334978107
0.00896549248203914
-0.007958158313907258
0.020759502899112027
0.010006366350388821
-0.023073084652060063
0.039248112470419594
0.03103550889883689
0.004104599644633913
0.018622705454943215
0.004824668442708518
-0.022065172856196136
0.005490510238502531
-0.10619343746804566
-0.09246459351364755
-0.03739946723776605
-0.046934832787813394
0.039984675886944335
0.09944348665721911
0.028337283513407537
-0.04005101228834128
-0.02939301033785784
0.05107085732342145
0.014308811191250787
0.007303669231394933
0.04061040618090302
-0.04485000895288895
0.11244946395601309
0.003000641690320532
-0.01432965974852807
0.016089242826721667
-0.03463340315729391
0.01568894524983619
-0.014799661624920588
-0.0020894259756574613
-0.019875567054442832
0.008975250258232733
-0.10367579792901406
-0.022479841545193502
0.061467333530295806
-0.026502853592686598
0.0005715361505582123
-0.003234782140673201
0.02710905797844587
-0.015851975943786196
0.0321221512062966
-0.0037829493065334244
-0.02227799907620483
0.011136683747125559
-0.017329869141346457
-0.029532868463681066
0.004411448474215043
0.002531770837743793
0.034788490239232715
0.03249859139213169
0.19010817512157074
0.09745564090276886
-0.02214710506379322
-0.016467614136513483
-0.016698159433975433
-0.02871430589684807
-0.010026043688692057
-0.017542747859279065
0.0026607592480082697
0.008111966919961069
-0.0008804624972410351
-0.026272330130136565
-0.00022224222974234054
9.11089182429818e-05
-0.02079984463378228
-0.019534749783663465
-0.005630238128540705
0.09206596006283049
0.027349066891696822
-0.024575554180115436
4.079110760496601e-05
-0.015288185908232568
-0.031037157800236984
-0.07266411801482689
-0.007832597196248006
0.017044141644049136
0.03127703681000169
-0.0786623868513182
-0.13800782894865354
0.03489954773341374
0.042156126381873216
0.024361654932829387
-0.015877286971333435
0.01790762899364863
0.001092013905430592
0.01545188674006272
-0.0017707730677272628
0.014291554574594464
-0.034184220904469785
-0.007180721480369116
0.02891928570880361
0.004792640778636307
0.0034238044661839
0.0379299935679101
0.018240234317569756
-0.0070580752328386264
-0.04205590166853132
-0.05578396164157555
-0.041001976217168334
0.05161697238479088
0.003225636747983535
-0.0009477500975017421
0.03623694389346203
-0.007525245771694935
-0.006743813462804902
0.007476993826904845
0.022965467834607668
0.02804261177089529
0.0042847088502678534
-0.014201330735913906
-0.021120763880477258
-0.066621920669425
-0.02200615826033214
0.022610730130217357
-0.12025325326536886
-0.0756580488754841
0.0211499003909615
-0.007207533520698598
0.011611024161216624
0.0031974279261400475
0.014531786490890472
0.0034619058854386034
0.0216518346290144
0.01692002030115175
-0.019374895335794708
-0.00579047827333172
-0.004793408689611013
-0.015522757616873871
0.044865337923449336
0.2616884483949586
0.03294945981299914
-0.040101684091701714
0.025286484484564165
-0.025363554085922987
0.03729648249149302
0.03568772915107282
-0.01412802442304723
-7.03332856198855e-05
-0.03011028947659458
-0.014772839565399883
0.016896451538698076
0.014786599675358468
-0.03883162247411229
-0.013604768122718366
6.61052618036482e-05
-0.017292020915641942
-0.02730363868680403
-0.007378567864955271
-0.00755118699932236
0.006726802595268622
-0.001469203051682906
-0.0062043798762052745
0.013496517601099827
-0.005551428442117362
0.013174616217420684
0.02804025125125183
0.04117700153188245
0.0027917760487867925
0.0020401576197943147
0.03235859804489554
-0.021002274238484293
-0.06135297761120872
0.10045390247442046
0.03144643025257698
-0.01135847482970422
-0.024345431562885336
0.011982426077481852
-0.0005534467608224575
-0.013821754717364616
-0.011306402233667284
-0.037588449482169
-0.1254443218540986
0.0008717089435682063
0.022456112901922953
0.024164609733740457
-0.008435660018846143
-0.023410333423728107
-0.009484046814786316
0.023469150252542873
-0.02471021579164091
0.05100842623881127
0.04942273294259308
0.007814660565856257
-0.18767964209816462
-0.12444916334042985
0.05306281572504655
0.020749321349331638
0.01200575768788941
0.012009508448584004
-0.003674810537751419
-0.02700304328424016
0.010106077492366061
0.01683492332781111
0.07342279289628627
0.03047422137202226
-0.06265002119206807
-0.029635742134407665
0.07269801260906923
-0.07118444746722191
0.023588291507546773
0.06686566102916029
-0.046740825810701485
-0.12900636027034254
0.015396346059727888
0.04280985742675129
0.0470849629327174
-0.08233372975863212
0.020656047704637463
0.1416404564603676
0.11390506611724842
0.01348980752525328
0.02118218498447869
0.006756769353969013
0.010598417889927597
0.051825537347487585
0.07985559361051457
-0.1790674870237045
-0.018225499446664222
0.03655948583122665
-0.009509749410017667
0.02983581697219563
-0.05018472682937774
-0.0300941961206617
0.007016840080374972
-0.006394629282588127
0.006310400121621218
-0.0237317642375274
0.030469857294887968
-0.007199886123038264
0.0037752411979356856
0.023135983590925106
-0.023015723621173427
-0.08605698553801173
-0.03796578938417563
-0.1440433673214958
-0.08818715198343705
-0.030125029268448778
-0.020880120116784914
-0.01364066962197327
0.058713277654177394
0.22380400499451594
0.012509027690222777
-0.017904317965595724
-0.004255254409343762
0.030762380944306673
-0.03213215759442886
-0.014801196270974388
0.012219293687649586
-0.02504555671137314
-0.021261261873961722
-0.012220202528573155
0.039620752334339496
0.0576001664466503
0.010532185437017937
0.02514909718526295
0.039760035376559796
0.01484761053473966
-0.004769596405723791
-0.018280534350628146
-0.019440040399909556
0.030145532996512202
0.013109755709878648
-0.015031947579881511
-0.014524587919958268
0.014513371331948877
-0.005936910432453302
0.01169529502083944
-0.011413933547055145
0.006426840152337671
-0.02066501734432863
-0.05858915247418903
-0.024180753327130933
0.0316044412619355
0.014357340367516836
-0.013502659666724787
0.034838250176282386
-0.0035426195006551062
-0.01649797409632919
0.012487738496793233
0.06606773193486004
-0.03634299912733487
0.02489974132275284
0.0362306523845582
-0.013342868409907026
-0.01745282142030631
-0.05980605759227014
-0.011835409545937712
-0.02376983331454835
-0.022240995027671347
0.026555042033665856
0.11005277910163466
0.030112486042480527
0.028725500182717145
-0.0021308594405558714
-0.03509685970672314
-0.009659710234234245
-0.02401146633812736
-0.007313856987152663
0.019309921537603573
0.03323347852765381
0.01368723905271056
0.0028369059675977695
0.013362820263136918
0.0030957987065638195
0.04479558339148135
-0.16459599287063156
-0.1266553867346732
0.048212103281621406
0.08055072268770887
0.0035637165729815
-0.022920005390198405
0.031760572378102266
-0.0253456861844987
-0.03591571693224181
0.005849006177436638
0.0024341289647229255
0.012095420067732017
0.029760314268941237
-0.0036020562691674953
0.019562765880921443
-0.022054738271017046
0.027671058196743623
-0.023716148119877215
-0.024484772978384247
-0.05739515546843505
-0.185702681706857
-0.043537198062938126
0.018670960871123573
0.024880096144572105
0.006200630741282477
-0.015761313825935635
0.14369575214675198
0.08184970821444437
0.02990714105039313
0.030009836830496336
-0.012890736172895628
0.006289812075008895
0.006030342350488752
0.03085559039520425
0.14810919133627315
-0.03958431795634213
-0.012386244626542487
0.023822808906603522
-0.017408768163406186
-0.0032628278312885573
-0.001376508525211274
-0.01821745097312636
0.03776419493624656
-0.17427879820149522
-0.16475946950660486
0.06568370834598068
-0.011476464154033215
0.03327883504867372
-0.021646441555768333
0.009854293186937767
-0.0008181443946868018
0.0354839663927008
0.02045537609278187
0.015114641695445285
-0.05857698366606365
-0.003776401049757884
