0
-0.18199040079664375
-0.02861685288133242
0.06211651991553723
0.008472546658393736
0.0068637874847577735
-0.01981535348269811
0.0010059009006409207
-0.005615440881544053
0.0140631933073727
-0.010973566600149288
-0.018238975616044952
-0.04297785789260034
0.03755663485232708
0.006475841825268425
0.006917464260088817
-0.0415181712027418
0.08800956962328033
-0.20035023983004638
-0.19407182499867645
0.03420673888479534
-0.030084527064917606
0.016066021215560364
0.04341929723399336
-0.05725788988451228
0.14784141208813026
0.23853438812985583
-0.03851330088900204
-0.018769334562586157
-0.016588007817414763
0.07781046002143067
0.02707082609254313
0.03116722068307174
-0.04424861846801607
-0.011522949042157173
-0.025195633393268826
-0.033399339099026204
0.05261107050228032
0.04282908234603177
-0.019502818559517854
0.019112118373537098
-0.03693759984050778
-0.006673607464839056
-0.014911387322082754
-0.014002920931807161
-0.019312077932383608
-0.019286039432329906
-0.0020944585091950208
-0.020355473369368226
-0.01575336122461222
0.022481985088095218
-0.01619234551009111
0.21038713828600816
0.018778912897502886
-0.03894701917001973
0.008104950905517544
-0.05640404553765574
-0.021455411522920555
0.0515614462205586
0.04629933141386197
0.06307575644144907
0.020200305138864144
-0.006485146387960717
-0.030117427799578707
-0.06819500701671515
-0.08691713382436242
-0.005706856925832091
-0.03413036678425718
-0.0047196482083246664
-0.030302760792372173
-0.031842723116017976
-0.04238485433297216
-0.027129383248900133
0.004194014935066101
0.006756219859357865
0.023511023940005746
0.03321979168629615
-0.09005679721710699
-0.06090603791793477
-0.045231095783826225
0.13217125800348284
0.19803157977473915
-0.04362633733228638
0.0077061017828688955
-0.043726903450092544
0.0390243742533724
-0.04153160394970364
0.031038193768252485
0.08530974375324547
0.07826560877509046
0.2587920042813092
-0.13353408337059067
-0.12873928363374368
0.015767783588655798
-0.017920120981015118
0.050270505040865776
0.007783637104180288
0.06151060598747476
-0.08918743150016585
-0.09772319427172899
0.009767304170902788
-0.038372888398307825
-0.029131604641397767
-0.0022989152162486066
0.04493758407005189
0.014720772275461699
-0.017833935267522937
0.05309549726408151
-0.036583698856725945
-0.20440221778610387
-0.014718050892044672
-0.00785443672822132
0.009577014064993243
0.010204255653272725
-0.026942711391200636
0.02467941164804841
-0.010126360077911012
-0.008310768880643315
0.008948475639494842
-0.0827725182549018
-0.008696282127188861
0.16874575669973016
0.0246263396656169
-0.004478660225943561
0.043721942756319895
-0.023805183943047772
0.006552369768427828
-0.006954590063768173
-0.02832943617255346
-0.018453296003149655
-0.0052362550817208735
-0.029476084896692643
0.005452607664886176
0.0034266173673718515
-0.0016058516454817845
-0.005380400296620666
-0.0007927644856416178
-0.054690949357764904
0.05085344492508511
0.0427626634588495
0.05330295356920266
0.028999059889009287
-0.017070663455475112
0.007533223170170307
-0.0029154464509469694
-0.004357885347291341
-0.0633178123083504
-0.014394736010496807
-0.012817520177482718
0.02122121461636793
0.01833793124436976
-0.023460248980214052
-0.012244223951320615
0.010436240666246889
0.13475496053706942
0.023923188287893925
0.017779762555801326
0.09137340915488497
-0.016029128187166793
-0.011778377897241094
-0.08465885076146605
0.013422463172983373
-0.053069365177553375
-0.09680490446771702
0.008878579219230163
-0.001015596240470857
0.030616478904684018
0.024426344158421515
0.023039927774402537
-0.0009338912287216204
-0.061304972063633986
-0.04089319150654505
0.021333468693255985
-0.01064616131429922
-0.005780955918346898
-0.00042373138017424034
-0.03146328549741351
0.006376028249543992
-0.05849645263064779
-0.05497823590142572
0.01463532349554105
0.055466840254100064
0.14990369751960983
-0.002700770893714304
0.002893088478486651
-0.026666724737279688
-0.03767758512170169
-0.013860576853786125
-0.0008598735738064657
0.0018792414499756308
-0.042334085613396785
0.003775175588340126
-0.03424008797950158
0.20124357419598737
0.13489806336435523
-0.0022971958366410383
0.028710112217010034
-0.03603821762087387
-0.02280522172980571
-0.02780315801278354
0.004061525840614576
-0.03156576835891861
-0.026285950367005786
0.00940141947084019
0.009183859272342226
-0.0353117501238136
-0.009272038489229193
0.018165385779695467
0.030444263583203394
-0.07529893584776692
-0.01939929387499315
-0.006732379468261571
-0.009662107119280996
0.012497727819196043
0.00987900212086487
0.027427393779113553
-0.012375203529493504
-0.06762735541142399
-0.019275355570637562
-0.035980251650825114
-0.000497624259031697
-0.04199017530223749
0.00572110099166817
-0.0038093530575678378
-0.0025964896081079767
-0.009654481342800982
-0.021463655994483858
-0.025673401212236272
0.019211236771269107
0.01426467046902681
0.002652312677835845
-0.03874273553452665
0.037119309656395684
-0.009610230634143195
-0.025492174170540303
0.05379949948021467
0.05153353214156587
0.015387819414720548
0.025197700675542608
0.007862042739173816
-0.021778825782062177
0.02573434697463391
0.0012027443561081737
0.03157404889756984
0.02304680995483591
0.010568452129932274
0.02078903552120285
-0.00021665145564028895
0.03749493524500556
-0.01289863903378459
-0.026179185719859405
-0.0019697937040885054
-0.002086484109390294
-0.05116012236162931
-0.03481688663695443
-0.0055957498241962856
-0.0017378823274090043
-0.053873663618353405
-0.029643602566525453
0.003082600068193565
-0.03686698041253638
-0.002740047034689468
-0.0369182132851951
0.1118310620936606
0.2584984080874688
-0.028010952556534897
0.0195680983213941
-0.029025011913222286
-0.006009479623659862
0.01611452672145987
-0.007343720585704929
-0.040010336634295894
-0.0007630835914972997
-0.00792716147995558
-0.013423344116522865
-0.0003351423759192523
0.04690738093911065
0.02092369490941155
-0.025752071830687326
-0.0021781266717501055
-0.03417366128140405
-0.008608747408684744
-0.0269287182805705
0.014199169124532047
0.05934315828770803
-0.035662755664390644
-0.02934299469611155
-0.024504229399193316
-0.03125673479093365
-0.019884011531354377
-0.01947501336535608
-0.002376099734312379
-0.006875372357125587
-0.008712330150506282
-0.02389196020715186
0.002190863812752085
-0.0009301410325785993
-0.01952298965978085
-0.06621056815778296
-0.033005190930268595
-0.07019172049933682
0.035158021602653
-0.005922639088522833
0.03344522717452252
-0.028257883321613265
0.08710218896322128
0.08602648186499216
-0.03246961968846465
-0.01639836065724337
0.01710428478221578
-0.005407881098392794
-0.007812585275235186
-0.0037839903161071228
-0.03083595741692784
0.030945861971462166
0.005792397240700938
-0.028972638719601613
0.15723231696498532
0.03136034197466908
0.017596537511652403
-0.10286254280346237
-0.10862658518482148
0.033351290258675385
-0.0460622601006454
0.015678878366574698
0.01983295550050101
-0.03191857260407522
-0.04989429864099037
0.030248757749494787
0.025785727167626577
-0.020774967976303772
-0.02494873157771525
0.08168855985083882
0.24430217948310076
0.06330057319721974
-0.04039968640362123
0.012441554648834105
-0.05807555486757979
0.01999363464979625
0.062414772717695126
0.025913302501657794
-0.07771451532602647
-0.02176686004168164
0.007150122381790285
0.009658241458150833
0.015118687834487563
0.012155466738689098
0.02210687201509233
-0.05236735296815783
-0.15223313353402934
0.04252129940871405
-0.01490429340809151
0.1292030560098428
0.09693388683483807
-0.009365222582054484
-0.05474663312961807
-0.014177572856994216
-0.025653732142493495
0.01282829332760988
0.012498094644813195
-0.10110427298291215
-0.08904280073990109
0.07506317132302241
0.05579962212876115
0.03372664329350434
0.03287177505548303
0.011174185751319366
-0.013609734924509115
-0.005223662832678329
0.003058953990915586
-0.05654121444859487
0.017833178809002623
-0.13896177492525424
-0.19604357479216303
0.04845750714595382
-0.027224341058758664
0.019737552239291276
-0.0045933261789615765
-0.007358419623203645
0.01144425572561905
0.031151921019907092
-0.024576797336615965
0.05246675198236568
0.018656359005645082
-0.004018005810413653
0.012276893064381797
0.04720014133246596
0.028500453544052066
-0.012232734210270569
-0.024179279232439746
-0.0009594234525648869
0.0056128629378467305
0.007417764841666461
0.0041070323460814075
0.023914510599219986
-0.008277468046133545
0.025717817450701688
-0.004327674962824169
-0.11883918639819892
-0.010830835385346219
-0.04839297826423844
-0.10831601314897478
-0.19769979185782674
-0.00991953272170555
0.21393898207389508
0.10968687818462027
-0.1278827397974033
0.2370807198057667
0.10809201993033853
-0.025531259248560065
0.06261259504740219
-0.024470922978672496
-0.003752676902641366
-0.010559837522733798
0.01120288707414433
0.010470243255438414
-0.054682583386887675
-0.10781949888683098
0.05096961154616521
-0.01607815675020213
0.024509864169721247
0.04233965663066801
-0.0014996949617373878
0.037425050610931064
0.0291551710426793
-0.006842343362038567
-0.012449784254488077
-0.015790934528414957
0.03776992787470502
0.009784371157843858
0.010428964917393294
-0.030724858881980247
-0.014581597621660006
-0.0137828806483786
0.05764193461957803
0.037024847513408836
-0.04931494166671548
-0.04600188800111106
-0.01100438942131479
-0.03740955514130034
-0.007096068153932273
0.008712812649649406
0.02885651186724272
0.024183920894452218
0.005019623094007961
-0.04806216074007494
-0.06365992441958372
0.03187610891520467
0.014786694528122042
-0.016143700863980412
-0.054784597060844605
-0.056316765467477777
-0.001691066003643927
0.029474230776334518
0.0045846306849928855
0.007865642876769469
0.02287404929908826
-0.008411237823888742
-0.02528451786730943
-0.051106699838217286
0.010131047668947948
0.017584267564762633
0.024901104709180315
0.0015966288768584616
0.0004486923498577054
0.014121160846817402
-0.018069639015701834
0.0035605430568781643
-0.011032752369578923
0.004162313392197826
0.030731953985001944
-0.016458734041086324
-0.013980340318637619
0.04028692964213559
0.06657038518424901
-0.02250515470646398
0.001491240662387695
-0.04025972597440666
0.015938182549896044
0.022006193910456582
0.0015466441980610892
0.11084758784915584
0.01659792689687146
-0.01682292024297561
0.05256103228029743
-0.05022298064295146
0.033910552231321237
0.01829040661048218
-0.028505282850287385
-0.003470548650694561
0.00524982788299506
-0.00983976688828528
-0.012616151573777148
-0.021586958532255313
0.034677091761150615
-0.009543565867191357
-0.033519162520666
-0.006699402790775251
0.0011960921234290582
0.0069581824122134425
-0.012296600109350719
-0.05657087646360268
-0.015144232699344428
-0.016589610836705147
0.020589837765027444
0.022679268726340907
0.012351432911550775
-0.01132077917987873
-0.020663211865032255
-0.011312679296544144
-0.020840846787849556
0.013362960618551722
0.08465508290702589
-0.0016422957189688235
0.028178885361785377
-0.02881353343738831
-0.007303200053094844
-0.020596631575709266
-0.019187646228905245
-0.09343904514233621
-0.03916876497504156
0.003139645343133876
0.050645143926222394
0.009427100317481089
-0.03259600323079224
-0.007579669001825238
0.05574170907722505
-0.10626052565773214
0.20580439033402104
0.07845046684061574
-0.09847845746578576
-0.016530632823349736
-0.026780836481312804
0.031152959608871697
-0.0192755057283077
-0.006973935499496116
-0.006690002518279546
0.0013547899777515467
-0.008521701882378756
0.006221140747963796
-0.011741859488444596
-0.009701705766958158
-0.011378320557525351
0.022929268481737985
0.017491932862700645
-0.009975567752664843
0.0007890795084443939
-0.01665165924831475
0.017430342360914272
-0.03905569796003912
-0.050071476220361566
-0.015130810287861046
-0.005891338226199653
0.010742901458379334
0.017590044155780908
-0.00030526161341508975
0.006916541206664443
-0.0445338337396959
0.09202700490139494
0.14438602544373005
-0.053902043017066234
0.011682181934402465
-0.06333398073417834
0.007988834968619737
-0.004571968469364494
-0.022009020108603772
-0.0034919946704179733
0.0007460263161935176
-0.01956971508700871
-0.0034757640265624824
-0.019796893609255812
-0.024985072840628585
0.023846731256232847
0.03041280577488185
-0.030137397632629997
0.0008807582512468044
0.004319821212781406
0.20216650761482752
0.007146109333035123
-0.07872137386418815
-0.019035219073605142
-0.004970576021552716
-0.0015944993928327788
-0.010113267732701036
0.013789102956056301
-0.05375804458694238
0.006919399726946236
-0.024344728010213704
0.0026031172575663865
-0.04643139721517669
-0.008279845982412146
0.10641658666429107
0.05411843570811782
-0.003921922255378318
0.03540334333525825
0.007087607062189225
0.004650298189169577
-0.078127383274627
-0.031682177828176866
0.0035377431550020332
-0.023256534512680376
0.008903895870991083
-0.015029225217505653
-0.017711256177454168
0.00620614658581855
0.07116553707168784
0.03891564491945409
-0.0013663909463242502
0.03155867318646504
-0.0011359257877401844
-0.0019467341656060238
-0.0016714021604548848
-0.0305404002778429
-0.00023766031243997222
-0.01168361887684249
-0.004826537872255947
0.0034290343173461065
-0.04982323835260523
-0.008619631474812648
0.009734289696730843
0.010352085363780112
0.010348202539401045
0.014138599769596335
0.004966904992435917
0.00024210500611010393
-0.05711550360192894
0.006473663563586297
0.002811164366255052
-0.0119505643165105
0.033448700879691186
-0.04828526600468359
-0.07449939017373747
-0.007812521135156838
0.06344378744485711
0.020239466647697307
-0.034818039325295036
-0.006890964058040918
-0.06138985758768339
-0.07657357580512734
0.011002340652216542
0.008585411459647602
0.007210977708937338
0.01194673019289374
0.01860356021854114
-0.010053930574674366
-0.01736473241163281
0.007353654868375983
0.012778461995225759
0.07969936428744621
-0.05066858171724255
-0.07404775660733856
0.035037026063381535
-0.015734712489551952
0.03176384920742459
0.013695456321787763
8.685571010262264e-05
-0.0481642221930616
0.10182424911394138
0.10404940937759047
-0.03741849449209704
0.04568955377269581
-0.023853326571501493
0.01909016883934704
-0.01209630489295608
0.004227547631604888
0.048919390358999774
0.012019793290607995
0.0021994183924862157
-0.017585345407850433
-0.017839765318781387
-0.04736252944126334
-0.0256901879198095
-0.00879336311065083
0.11259347295376831
-0.004891968488647532
-0.0049615322766127555
0.004141115549361689
0.0007693081935598615
-0.00516060995454482
-0.0028838918250937494
0.00786850114593676
0.005762591673177637
-0.0018411663675373603
0.006438284887181152
0.01893089355268799
-0.009819178291304229
0.023256754186246696
0.004035109497685599
-0.0044122015689538234
0.07051547029431184
0.007121864427440374
0.022218998056145526
-0.019840417511047176
-0.11744797307487685
0.007809082150587219
-0.050595038383554475
-0.29843213996705764
-0.045609342854043874
-0.0016654723970650684
-0.03382042522588267
0.008194023102215824
0.003507139449934424
0.022089188067226217
-0.012378815133918652
-0.012944479921876398
0.16255206769462313
0.07121279891493798
0.006945778046231821
0.06680267886211483
-0.06527170505784764
0.058597147478314175
0.05014884395796685
0.03558707584963047
-0.05345562691800374
0.16833044586920334
0.12262738551991184
-0.02914871429796261
-0.030682255297912735
-0.11211673766507446
-0.009011674618189785
-0.01616003556611949
-0.009360761378219866
-0.014864401317789181
-0.01744619272964021
-0.005569385753669965
0.016843540351350668
-0.0427831254429273
-0.007546257193927807
-0.03982994759081302
-0.014059947402755357
-0.02042715301207753
0.031825378614821195
-0.0986452463926275
0.0011255895807549409
0.008694203116840729
0.049264016394598015
0.05902953731677341
-0.007022322414674606
-0.008208367049307289
-0.027069264853467515
0.0003533334240027363
0.031990659192485345
-0.00728815677139117
-0.02472215642760005
-0.02647912780999344
-0.03578418415728024
-0.005339166359787061
-0.013647688816110556
-0.021809338777404916
-0.003834871017098143
-0.004774320168422145
-0.025767998450644074
0.03376186712003936
0.05354610130190331
-0.01142435047287348
-0.018189058465569247
0.0124052598860175
-0.009874543532982168
-0.024473947484105463
0.003720262349076981
0.008938193498937427
0.10397720602561158
0.21558642549225682
-0.01872360739125944
0.0006745773937208967
-0.025020728696542413
-0.006199091665531814
0.024283214431433733
-0.03650391309224943
0.006383840248426463
0.0015913687702896401
-0.024912981802959533
0.00626245681628274
-0.015630606453971303
-0.009862685203085227
-0.007783550967079179
-0.028128147358246407
-0.02335563389155381
0.006124620196669748
-0.003087260606996686
-0.019378643963127187
-0.01542817995667772
-0.02490191436018524
0.006041658018190195
0.007964463742636155
0.0020655253910691956
-0.01918104319368788
0.0035441693553443735
0.03777322340216782
0.016251752380276818
0.017268198907261226
0.008564134462047197
-0.0031770436440674795
-0.01914490647091233
-0.01626409781056948
-0.0006132983818405049
-0.032948544615385676
-0.028807815627957943
0.005520868967847406
0.0013140440887598752
-0.02168974249156449
0.011829765210759458
-0.03582457387602721
0.0030210098831149144
0.06175677100533616
0.04193521948404523
-0.0124655601417985
-0.012173267699293633
-0.020061765281099694
0.0005304376369634943
0.024163790413243985
0.0015765304131114463
0.02066161399360102
-0.026714924291493296
-0.021426594568095866
-0.023928117261910388
-0.016438970070053377
0.011558361791861415
0.004395663992832652
-0.017128094653009344
-0.019312575220797976
0.013116707509020392
0.05796011224667952
0.02480906637866124
-0.041860018180668604
-0.018467040112183853
0.03766079827093517
0.03004425619833257
0.029582329432486572
0.0877887380934934
0.025403138559927922
-0.16351775853820144
0.02567264577192188
-0.0019187533461269344
0.0021564300314616774
-0.04143170945003057
-0.0029904107063207963
0.013960073336511558
0.040426323499515665
-0.07343407689828761
0.050566236604997615
0.07650611928304661
0.1151362351736883
0.023821185107130705
-0.022101703187428604
-0.013773593614288782
-0.013240413179151145
-0.0541808033973415
-0.04659908792654231
0.019409170210230774
-0.041241087833289815
0.00016601164170357123
-0.045156523365925606
-0.0949314487381926
-0.03509009791504341
-0.02536088224143325
0.014144146304940371
-0.06747640069703865
0.013159904508964395
0.01862531690019572
0.003189775903201664
0.026300696426159773
0.0526122341694979
-0.0075566807353539675
0.009727492705046963
-0.003311630556742513
-0.010775928812085516
0.04035453981013226
0.0057361077416706865
0.030625191027672607
0.04696272428288497
-0.043010931640233806
-0.05416038647232692
0.011117778010864847
0.011876262243957901
0.0030162448479969647
0.025784732926681576
-0.008949362109912137
-0.002634863965897671
-0.0844295278623498
-0.05458965782633459
0.016287011030369072
-0.05151666445129019
-0.0583172897510669
0.11092239803221775
0.025618762653992072
0.044022657766220295
0.1730134884488336
-0.007645361687296356
0.03404433126438688
0.019684624361472888
-0.08723996202055606
0.0167030028654532
-0.04370098239997783
0.043366286014819656
0.13948264433113233
-0.04331187575148227
0.009399613316140242
0.009977101267367778
-0.013623428190474478
-0.03353150822129958
-0.03397753388769702
-0.041085506449934514
-0.023754731866532944
-0.03823825796271355
-0.012635990665704734
-0.03722099327712123
-0.017371593024277206
-0.032575371876267724
-0.02707152701831084
-0.06546719356464047
-0.029793324614846774
0.06938034780444448
-0.0663336941849368
0.2038296092686342
0.07204965365031701
0.0027110323223948256
-0.1044416559989578
-0.01010294538261469
0.0987848466750988
-0.006122165207146838
0.015135272551052553
0.002925495047972189
-0.0018750508585614813
-0.02407364999340543
-0.0037490422971165117
-0.031594573668543735
-0.04903401452128927
0.027949947727854845
0.06561828880473745
-0.06523101973436832
-0.030742535511937622
-0.010293013960313267
-0.0531653266703859
-0.01595837211885959
0.007916445413430572
-0.02468669900079158
0.1377446599707388
0.10678403426571276
-0.04286275934060931
-0.04434283976621336
0.001122189809355906
-0.024905963554411013
0.034110351746747265
0.08671162478065694
-0.015299101215991035
0.048235671886434905
0.09140839456551127
-0.01350666184803091
0.007147332524286663
0.014133207172666262
0.0038582227445315225
-0.13059028125662062
-0.09840032958615062
0.049281717801542654
-0.01875931312166928
-0.0032637272499419843
-0.03007141056119305
-0.013401939915165011
-0.07208406626728606
-0.011678798327587746
0.008060839956398546
0.013387114755879144
-0.010274089207955004
-0.03528420663205077
0.09265246127012332
0.014943245150547898
-0.05250340366625499
0.057159409601178275
0.10798910754505055
-0.2333758227490105
-0.16532635282518657
0.026525200149030165
0.003102731077197064
-0.0020284624766774115
-0.02643901778989147
0.028277549862251047
-0.029172074240511735
-0.024211908121030048
-0.057874841533223476
0.15997324487150114
0.14650540211179489
-0.02576794976799018
0.16506781506693527
0.14563543174785828
-0.029540075296312023
0.013915241525743959
-0.007139594498767877
-0.03710264244784477
-0.043579852333930934
-0.006091487705623584
-0.013870395858369466
0.02598452802288406
-0.010428099466866953
-0.023196189553385798
-0.007421651417889252
-0.03170327419626612
-0.015208284885548496
-0.0141882334811411
-0.00857919713528264
-0.024554822376932146
0.05187514570417887
0.022634030973810268
-0.018206390556611402
0.041975219601700225
0.05738948574214383
-0.06504968047118653
-0.02356756747013245
0.0320110943972395
0.05190351717294759
-0.00016430652171575604
0.0002856311677622569
-0.020197225261063205
0.01163623302067072
0.001597740707913061
-0.04052061129265543
0.009794662696413022
0.12253485349657996
0.14006373098595362
0.008702048515533386
0.0020952801886141934
-0.040971668667721464
-0.027642702581486347
0.014823098298299317
-0.029668018264635304
-0.2122991690302636
0.03322831995437077
-0.2188338725502302
-0.14090425189795913
0.049753534378607085
0.021079416786514097
-0.0652674409919101
-0.021818270625351768
0.012172050687062735
-0.004665973944219856
0.041726086929666305
0.025409564595071352
-0.03888562340535243
-0.04558648081385725
-0.03040435528915854
-0.0019692392125183833
0.015731885216158373
0.016566884311504174
0.07714942126985902
-0.002561846670723954
0.027870779169628938
-0.0051681114384925664
0.059358611580745214
0.005507323759153269
-0.001366690988546681
0.0158761340386085
0.011789219334790577
0.024384781437687315
0.08541640431182393
0.036833000517347655
-0.01567089737028744
0.02473687777483037
0.029703091426808336
0.017844494271204964
-0.00909367768686754
-0.037941307350794824
0.000735427907600713
-0.008835282907691797
0.0008616572667852488
0.006624381181696976
0.0036492729934117286
-0.009068306895108472
-0.015153403067302968
-0.01118889703146148
-0.018463646120280994
-0.012001955627760678
-0.019329861741767956
-0.013069120820271469
0.005430119979648644
0.017909195955128694
0.0196914604261752
0.006418698152770885
0.011816261880068355
-0.021749156746283225
0.013180474981856457
-0.02716486832508379
-0.03002565399720847
-0.02501735940506654
0.08272963424826667
0.1211489813240259
-0.07839990468011002
-0.04974804481135302
-0.024304793338491646
-0.005009761353166641
-0.003344471071935494
0.08026194670017389
0.03751324869062949
-0.0007932760522040442
0.041749923340437325
-0.030646075486033937
-0.14075881294430156
0.058543273499116644
0.06899980110775057
0.028799957371740174
-0.028799096604533503
0.00019034142320721164
-0.0016840451751436475
0.040570830476018664
0.023686975789317524
0.014672392717587704
-0.00561005554907926
-0.0034996045277090335
0.012509046672906777
0.009381360256419878
-0.023980511648465753
0.001914077418770475
-0.022333095279943083
0.02318205820036393
-0.1123516229722865
-0.01510738047820773
0.08411206922018284
-0.025548462723648586
-0.22080308087555198
-0.08781775015537935
0.009285679968733782
-0.026168546866249483
0.01229467211096604
-0.010464687243057437
0.0278694366402238
-0.03511080112733596
-0.014041542917084468
-0.003800745708907765
0.0206275022780514
0.06199705855487644
-0.013971135216536099
0.0010988362710589955
-0.0015097863784843226
0.005754971512377214
-0.005830000576495431
0.021676005012923123
0.019857552670064144
-0.015221336960649517
-0.0239815979995567
-0.027684488595281498
-0.006219680028272265
0.042887073431316175
0.021695117500391048
0.05179049861934094
0.02047724770857691
0.05610381470230832
0.048195523344039516
-0.0429785446188185
0.020631385480019915
-0.024960311923375948
0.010662780387725666
0.0035074399100713275
-0.012350944610221142
-0.01493220795357706
-0.03741111102632222
0.15630328415097072
0.11397176964388128
-0.10104655627166406
0.0769538697239022
0.09784243399990755
-8.981993842529778e-05
-0.03347107089792884
-0.04684301271948709
-0.06874223148639026
0.011618275335862245
-0.0008459469843706799
0.023224503739342865
0.0642828939114883
-0.05280032952050268
-0.08549920732861864
-0.021419290199362465
0.011689131112244582
0.008581046987858271
-0.01349204820784426
0.0008711331754504113
-0.008787021996413782
-0.016901191117109533
-0.06417948258351676
-0.09752273331979541
0.03205280975014769
0.02658786049865921
-0.03603552224447592
0.10987555516719069
0.09546299947759684
-0.03942855657326107
-0.00188020412779495
-0.013366578178668792
-0.01089277708484532
-0.019939516052136105
-0.020884826488039177
-0.0342255736997819
-0.018015145593224667
-0.04050841343786417
0.013446661092928195
0.031300339237036394
-0.01947971055127388
-0.00016344996468909282
-0.005179537660791358
0.008295025162475586
-0.018639844531945688
-0.028684391841645267
-0.008237071260493533
0.03397481261295633
-0.06355084850842843
-0.060374851261786974
-0.018030362933122313
-0.012122890167030267
0.08475726470268981
0.0035805309414660147
-0.01382402006105762
0.005560955801376204
0.005630479826728878
0.11924517244174557
0.12247527887856156
0.02232634422400287
-0.008242059553809458
-0.0430624019769672
0.001921844049725228
0.02056096919727605
-0.006799409745765131
-0.01231335599242033
-0.03625103831486607
-0.007811519792132634
-0.003979025678186193
0.056530554177486654
0.04569777507383643
-0.03805666864670919
0.005403816015571406
-0.04875508527158723
0.03873246674265602
0.07147630140633672
-0.0003607661907402704
-0.016303857907317584
-0.056351460344092746
0.005682171280520976
-0.02577130610351933
0.044652941984057976
-0.009800327906797196
0.00036485642666232276
-0.01907374971618577
-0.010945219592797489
-0.022235501213767758
-0.055615694163444196
-0.030942638066048026
-0.008382263800139674
-0.006941407231544003
-0.009963748570045885
-0.005884239837820775
-0.010233746530972069
-0.030366943931998215
-0.022732859830639617
-0.010407077119087456
-0.028032372312606035
-0.02180122506845425
0.02871190577565958
0.05163923408661516
-0.0002267895458050137
0.017382678617565286
0.006714641922948405
0.0007592350071991725
-0.006003863534719186
0.021518281100951716
-0.05283019658276374
0.0815597205067987
0.05055307396106961
-0.01930055000158748
0.0005492425385145459
-0.049121758879273544
-0.022913132576945723
-0.003427324612529218
-0.024334391593593147
0.007179407900593196
-0.011484823974451885
-0.023943344886497728
0.008341353024447705
-0.010354852676447037
-0.03592753652747983
-0.0027052135740454233
0.007987559709482851
0.07218231058112964
0.14551754983317933
0.0768151279747297
0.08420223553392817
0.12301731229518005
-0.021026744462346838
-0.005526968680275573
-0.0005289182053020531
-0.01244217956356828
-0.01783185685978646
-0.003454931352356885
-0.014702800451828348
-0.042622309233168856
-0.017442280365805987
-0.06429523388526406
0.0010399151886492902
-0.017469474840436212
-0.007357734046639474
-0.17467162331418037
-0.005398305661470834
0.19424000588179513
-0.01637873169861999
-0.017425479009101512
-0.039125898573700545
-0.04380173390415648
-0.028962787638608493
0.008510035930696347
-0.008502324711373013
-0.014829840812674897
-0.024106701779028558
0.010213433664962948
-0.0005617536363333277
-0.004989075926620941
0.018349595104210737
0.032091247451751445
0.013393319013995193
0.04383161601087202
0.04690669435187207
-0.03069043637576228
0.0069605524637891495
0.011770458420943862
-0.007788685484723823
-0.026330457678856542
0.02271154752453343
-0.002744112493135264
0.00563689245649614
0.016869025760926238
-0.011840165664065582
-0.009571371549853812
0.01545903649669728
-0.008896472357131324
-0.012458802608143117
0.021366478790215974
0.047961724211780785
0.04794140389547955
-0.08738382959693602
-0.006273903172219066
-0.031304929948735745
0.01645872332217506
0.03464344220769776
-0.1611292306167609
-0.03206669685064875
0.050680682265871455
-0.053951347930053226
-0.03905194757654831
0.047150433764280325
-0.03271327172097574
-0.009349888361921799
-0.005265623384424876
0.009469046495549376
0.00036984469509740447
0.005341440198406203
-0.020650266976829992
-0.007156194723865362
0.03178928315985528
-0.023403218096821488
0.017822439077258924
0.041736048440404364
-0.03220731676767097
0.0006393071068769348
-0.00682020365956149
-0.012266360337434635
-0.0053884732735983995
0.015426518524031908
-0.0003560849703392726
-0.047394422109847664
0.04660366700630168
0.07890412998878654
-0.053371554497466576
0.020704260717593605
-0.029011635805421168
0.0021520196932190852
-0.007366785457722639
0.11492309705586921
-0.06409806658662878
-0.04366175840267024
-0.03787880261963533
0.0955996859035284
0.03725897127911346
-0.07159203457338567
-0.029819725677229472
0.06739865846639054
0.0508454465691135
-0.06380177588962385
0.0040591605595200475
0.16990034928811334
0.04792003630564917
-0.021600664768686658
-0.03461407631259648
-0.024111778944691076
0.02266714632326081
0.02411999812111841
0.02986770666808576
0.0019326736039722019
-0.0004341492390865793
-0.02652591306731199
-0.01688488958875721
-0.13375708783173798
-0.007780014121714244
-0.015600546658431552
-0.04941810995936729
-0.020561171194372358
0.07687156226967488
0.03741401003718515
0.06204447725428921
0.09031197151431394
-0.04293407275300722
-0.02712785936190325
0.00743339625250419
-0.002587625982453814
-0.02298340108134873
-0.028156652256635935
-0.015125716145326576
-0.029686631686311846
0.00863111707910626
0.010948324147786497
-0.030909937794551635
0.005186478856056637
-0.029173238484843943
0.06114555395245246
0.0801357122692012
0.02845211450892688
-0.034631011991401756
-0.0073665767742317175
0.006837312137450166
0.04182118413010855
-0.09032082814265235
-0.057642214796831355
0.04131177463026882
-0.07775802965019087
1.2384297506908452e-05
-0.052950631787823325
-0.06080624617391768
0.007029995142885125
0.11943481067124967
0.06332929952141729
-0.03724664026123924
0.005910206116669607
-0.016728524252485145
-0.01221701701327546
0.006780074966121621
0.022979373460472748
-0.015343055514961682
0.011559016268187082
-0.014770385742391416
-0.043614824804371316
-0.013656393676618644
-0.022184587498056553
-0.005019184771100649
0.011793222508351624
-0.01561673603881212
-0.06487356107939071
-0.010035859081766463
-0.006355191281507996
0.002373388488005012
-0.012488852271236242
0.003936858574028307
-0.02240392465428764
0.013906196268034715
0.10523284501759894
0.01311320612987469
0.045462270962074794
-0.02770479492114887
0.1146502388868347
0.032130630056400766
0.0885751247311796
0.1028104956923527
-0.030685536605067867
0.014650813267476725
-0.0657714542015144
0.013764878441839476
-0.019550654557046864
-0.022887752890435237
-0.02273378486201965
-0.012253838340081084
-0.027690117920655
0.013182541279956723
-0.0013700620454762241
-0.008943430137838286
0.007027538510112081
0.06639034789216437
-0.028481643927260384
-0.03671042309312183
-0.015974210108563664
-0.0022516995532974684
-0.0017019528271950844
-0.0029398620587257705
-0.0260028559005531
-0.028117188026062594
-0.028997866725159315
0.009978000270385251
0.00040516552651558143
0.013514278097472894
-0.014352647255154151
-0.0007800436949885678
0.019617369755242794
0.020026118101242944
0.03295837953116759
-0.02294657911838737
-0.04031911463593801
0.0021862053497643456
0.043080807426439736
-0.004484823913267152
