0
-0.010264718792636627
0.05956241178777899
-0.004156528929361189
0.01415985771886569
0.034686376862576626
-0.08057539684932477
0.13774906417589539
0.26979065850831807
-0.05965388399301627
-0.022632399926787793
0.013458714295834468
0.024467170530951248
-0.05111203341055989
0.05688004831959242
0.012407338140639323
-0.08848237289882917
0.000624504696549165
-0.0693924668381847
-0.036351762648009434
-0.008495960644089069
-0.009985833195632145
0.035363506330289875
-0.01649784643093828
-0.01043422420274236
-0.012435998447527168
-0.011995630501751084
-0.059515167857934176
0.10860203398481402
0.07780525581780988
-0.017231414699551303
-0.004319930492012346
-0.012740242964393106
-0.007319597592664133
-0.017956645909678937
-0.05447147241464871
-0.0047433702032907065
0.07605931976968608
-0.01156197906601175
-0.023684087821064244
0.0673788261185659
0.06645707578365881
-0.022866138360178458
0.0386284624316711
0.030125600225561613
-0.023535005291873873
-0.0017873538060332501
-0.01952717069576028
0.011364441840499938
-0.01174911747735417
-0.031323334963712555
0.00024195506165258733
-0.028674510670202293
-0.022137328080602186
-0.02110363368070648
-0.024343433931897796
-0.021791503922687024
-0.0414493071167879
-0.039933577725751665
0.022915476324016675
-0.059636253442858535
-0.02446451516454075
-0.02189243311259143
-0.0011347029156904911
0.04147134426148828
0.004445510185423762
-0.01663284646003374
0.02039198288149848
0.0028140764336276806
0.012527713339123326
0.046320377357915395
0.03657340453224991
-0.0034386363117944693
0.00781447666080867
0.019179262012153055
0.0008983828166228388
0.008919856879767225
0.019800159298522756
-0.04876556822082771
0.0173494242029672
0.002841601446946055
-0.024928504398126272
-0.013567997616905369
-0.005599146636017872
-0.005454287501442561
-0.011560676029459713
0.006516723176054399
-0.014459396534730554
-0.010337783871671433
-0.014865274111474204
-0.023907423342400203
0.012497984321328382
0.058731991195948914
0.10419154860946703
-0.03767112649052952
-0.006585520810823253
-0.00045217711468425277
-0.007351485055788719
-0.019756268984601307
0.01846170744176002
0.031394668562830574
-0.11066488683410018
-0.021877371527467892
0.029429610378371537
-0.029901830673592728
0.0484156664648828
0.005324289629388075
-0.09706647812597015
0.010725370305359623
0.003504240082801739
-0.007555482738853814
0.023541633427148857
0.00047922877113015116
-0.0024666092066867886
0.003864387238380754
0.06874590262851961
0.09007734658962163
0.01996608427693959
0.01128043165739982
-0.0037756230784149274
0.05705352107571885
0.009327462609578768
-0.03135199133219437
-0.035143931164454224
-0.008024010564708564
-0.005637710456752831
-0.049925813429848136
0.0028084714550633927
0.0802999927742934
-0.15214532492283886
-0.04810874372754613
-0.023087438472882693
-0.03704829469366577
0.011627059102829922
-0.02832843034022831
0.013215990782065857
-0.01813387961201936
-0.014418665097536256
0.08333111729456957
0.026427277011785263
0.01467469949676491
-0.006093537460170048
-0.020003198200732795
0.0011486369526792287
-0.02913941908639684
-0.011956114790168842
-0.019979686799777702
0.013258734065280888
0.015547057672712413
0.17990479940391335
0.06500403144002534
-0.07328810091020622
0.0328256767303774
-0.00862727151512019
0.0004839747725082796
-0.00828482630670156
0.010179807231960847
-0.007102128660016701
0.004356202769762263
-0.004601869403985621
0.018756877680074308
-0.034573910078248414
0.008592648166664803
-0.013570186913565707
0.07889206769950596
0.00792119671966326
-0.06367624748481619
-0.011450355760827988
0.029529189315139683
0.013739607165505777
-0.0004508892426649396
0.008350385477084735
-0.023827728836708965
0.03433087301641484
-0.03511963363224755
-0.1664058835366996
-0.005083723308063009
-0.01212693910339494
0.01683993798327325
-0.014010951092602163
0.02211113802003357
0.04522278253627539
-0.01173017160644789
0.015350152574653483
0.01370794822581885
0.03249415176936492
0.007708659656364922
-0.027389586317865817
-0.015484947810037624
-0.04376155448686588
-0.025956773508803713
0.051290849993316255
0.0113442353407845
0.009671641868881137
0.021984100775955584
-0.001126205181314936
-0.007302414969644001
0.020627968625034444
-0.04690297248226438
-0.04339258770302987
0.0024762764178768455
-0.012576233633198106
0.05080267355325818
0.031407768707190524
-0.0018859899986097368
0.017091907388259425
0.03447934766924418
-0.02741319814810525
-0.052624253595222645
-0.003912166657383693
-0.016823224221832474
-0.022638985645277523
-0.07530739272182688
-0.022126729268239758
-0.004100399355533082
0.13624661507637678
0.060674921339227784
0.0003761124858606086
-0.033867486554141256
0.029276426582642068
0.11440076806132675
0.01626236191855179
0.012480366104085722
-0.07627489812330074
-0.03472838457786825
0.05013802373210722
0.14647981751196762
0.027644647899164584
0.019586053333595477
-0.031411358167976605
-0.015459971316467345
-0.03945448374343039
-0.24053992944587188
-0.027984694542791507
-0.082735485823239
-0.031040594819680554
0.009169737176826327
0.0021411785769862427
0.02681599231851422
0.002093390041142264
0.03762478410132549
0.03790139826319813
-0.009767502550979829
-0.06191666315639107
0.0332780200662124
0.042502182471936926
-0.0058316179706173156
0.01112469156421036
-0.003742411526775427
0.06602023967274666
0.16289231510791424
-0.0008712727214267428
0.005705415000639767
0.03152334233712831
-0.07373605872458591
-0.16193325550294962
0.004280281827263328
-0.060375913234061926
0.00013825557694995176
-0.03878258872444428
0.036540448531302214
-0.03027959964310725
-0.04787406496478919
-0.012226822983062524
0.006113363985256689
0.023453686470225905
0.039263273563667676
-0.02641840586568456
-0.020644679613959903
0.005630941389959103
0.011510827733910019
-0.007527011656816755
0.03964061208221678
0.028347445320297964
0.02072807920114676
-0.005160269812434134
-0.005987369710417402
-0.006332257407175872
-0.005278653752154379
0.0018254447762950832
-0.07280837908355442
-0.031302771209138304
-0.00634292556181439
0.01679608055272331
0.09777494017625116
-0.03082528272992807
-0.01749736818913745
0.003099971079825
0.028600061022687556
-0.029290866192575003
-0.015987650036043126
-0.05392265309064888
0.12665000303361174
-0.10759072684586841
0.17901273711277868
0.19586675707251042
-0.08627189115923856
0.006205140464102792
-0.036516644243705355
-0.003912602464939367
-0.023115541956132225
-0.0017659676242883318
0.004810941581046441
-0.014103362628645312
-0.02117918722654687
-0.009084834949168376
0.006425157077253552
0.04875582655674213
-0.0036995267902054253
-0.018924621663669153
-0.03845861476472323
-0.011804383761474007
-0.028527409149249842
-0.0039101010571761
-0.05054622748043832
0.0013331082825271657
0.06741554376568884
0.015668535839574366
-0.00822682140258228
-0.04531454464658603
-0.04125430138766691
-0.032560588936018854
-0.01820424083747406
-0.0018905722195988997
0.17170590162251764
-0.005086452794693209
0.07092924236701509
0.06617232831631045
-0.02540504899860463
-0.04196445384936894
-0.050957890955010444
-0.06409972310599778
-0.04324864817493638
0.022134193748845118
-0.004908578510052254
0.09217098607921545
0.0003475161637228418
-0.017755792415604193
0.1351007969324024
0.06280556216800462
-0.033486425657529406
0.025460358609737062
-0.0073645197576713535
-0.015843793553656196
-0.05585364514725008
-0.11901636182234336
0.01576115482874073
0.05324100726387061
-0.00864928725442952
-0.017925151695737152
-0.06197496498210308
-0.14151968825219952
0.03950911008105105
0.0009705739727540831
-0.003248865653390219
-0.04334689314875599
-0.03426680513136356
-0.004232206735615975
0.018406292996338322
-0.027074010169083406
0.07490654899676877
0.0047757308708571145
-0.0028363154655281506
0.029218029767487334
-0.017813207387344952
-0.05550081170988999
0.01242857646092958
-0.024068367156280943
0.11402719693020764
-0.05120309555829963
-0.13012338112151892
0.2510050680899694
0.06758789160836652
-0.024947501373694315
0.07318838818954361
-0.013624363919128578
-0.007797020757191046
-0.03780193860745638
-0.014294171486036249
-0.018169701879386657
-0.020478841688823763
-0.00653656515308266
0.06502474537797198
-0.011054824299863436
-0.010578334473084537
0.024022387108594955
0.02417881607741243
0.004112850931086684
-0.012669048154729795
-0.019736878834492988
-0.005213349072141024
-0.002722234903310095
-0.011651407503423913
0.009664014158870398
-0.030501528122269105
-0.0583382758377485
0.04966214674022776
0.003539057993864331
-0.02607954081098951
-0.004868890215614102
0.005193528819225676
-0.06313764939138264
-0.019258435879982994
-0.037168357526591596
-0.047584956295322944
0.03840118035102573
0.006897126311100238
-0.04636384365117174
0.00896161242077704
-0.07732234021904986
-0.002218184448898326
0.06720719020639301
0.05734314342317028
-0.021596650750559134
-0.006741460193645937
-0.017059956862111397
0.01605776084898904
0.023587441700414134
-0.01404363367498133
-0.04046041502775701
0.05323562815232553
0.10133834378575737
-0.01644942183566838
-0.01802565168587659
-0.04024630594587742
-0.01770325662171741
-0.019475008456302456
0.027545533898674226
-0.056147712457307646
0.09207047295045119
0.22306992420224714
-0.09279426474608186
-0.11984238533728521
0.09401281004643092
0.01329092110463519
0.0135871123481998
0.09551545313612449
0.0007815008406204584
-0.002174814201384511
-0.05847867295932293
-0.024974849740464388
-0.03187747481621
0.010799853257578445
0.034648642269712156
-0.019044949654716828
-0.013440513866278196
-0.017407570094451943
0.03543801587082804
-0.002199206509051943
-0.03446723664296663
-0.009788431798041654
-0.04794815272821626
0.014321731647639538
0.012939474381634153
-0.014183938264103508
-0.030457113156008735
0.012203845288792432
0.13534431400475438
-0.11398058340993121
-0.13548614430317904
0.061053590528958715
-0.00015597616732431925
0.014828091110864305
-0.003504252130798367
0.017277632273939213
-0.005870153726374638
-0.0013074983413635726
0.02378350233143188
0.0866998625942475
0.000271332201014741
-0.0215689889965868
-0.01091753659115828
0.09324568060580822
-0.05636847413515289
0.04942399927453079
0.06153875298082211
0.016639551053148467
-0.06040211229585723
-0.0066507352647563285
0.005074736232615149
0.0013850783110757599
-0.04765315103179687
-0.0880422141046451
0.01145141330897879
-0.009913614256367036
-0.037507778289092464
0.025418628028869572
-0.11416685187992529
-0.012989508489604222
0.10341860943808176
0.03805448562297396
0.06646554324935076
-0.016443810052792013
-0.0036955917610141174
-0.02309779856606446
-0.07202214686937675
-0.012009044237739913
0.06551637465134214
0.026776204163210388
0.058241099714085115
-0.0028415002210918114
-0.04457153403469409
-0.01356856296463852
-0.05698885174452042
-0.11030554035025454
0.04452884223730373
0.00579737947604835
0.11872881392062284
0.03189019771854434
0.04827021847309124
-0.040463280897739734
-0.0025590027025206175
0.017159771132353237
0.07344644411606241
-0.04752953554146612
-0.235274087631234
0.036824616851552076
0.010962797909619121
-0.0016236431397000462
0.009311158932251573
-0.0455682406826256
0.00021769306998583598
0.039380668357642805
0.021545515019561413
0.004815267916973961
0.0027641653410147575
0.00948397617764966
-0.028315602287654458
-0.0056673073632498095
-0.00993002954177873
-0.11615092242564808
0.00686517221593409
-0.011379644269589028
0.015621164608642553
-0.019040306058914377
-0.03781780943321212
-0.04771156862190423
0.08127865721577118
0.10630516275192585
0.00677485963397358
0.07973957330183087
-0.015364246808481427
0.009832348875674815
-0.05570223672783679
-0.029836186177896074
0.043155253567312896
-0.01623046033704463
-0.029755086813071513
-0.024875516146277952
0.0004502592114905558
-0.002142055719351744
0.07015497326640834
0.11900208836363607
0.05153342143716542
-0.017192743663995983
-0.04776712647328779
-0.03282306264164629
-0.022240942905413202
-0.012605040592497677
-0.026570183524143566
-0.013245244982929187
-0.03088961412159008
0.04271398373174369
0.02618539093063705
0.06527807551027005
0.006317773203822473
-0.0431649589001622
-0.09005459611114756
-0.008367873775384164
-0.05718194481056653
0.12126797234224958
-0.025871601658536844
0.13569695732479642
0.1296188518072294
-0.04120432330002983
0.037883575687836
-0.026389035133245708
-0.0020317291982216057
0.005251906964501656
-0.01828852159310043
-0.030513525676866677
-0.008984451771172644
-0.020961448891523574
-0.02531577844104136
-0.0314818978052741
0.01016637941271211
0.09760162628947672
-0.020439608016924172
-0.007712836365143997
0.03779968193302841
-0.0027095997832937736
-0.0050406362317457435
-0.0186730056483337
-0.015770941900025832
0.0038562305570986758
-0.0010514110649559746
0.013791534781432278
-0.010966392101959987
-0.117963907159438
-0.012873546418268574
0.049045429327550724
0.01301132674204268
0.010530956981948626
0.0003933258092603508
-0.027341504521032338
-0.032955424298865055
0.0031317009279454773
-0.018860180690862153
0.02983061520328612
-0.1671295465038913
-0.11512343283966944
0.03770501782914416
0.10155780845858144
0.09254793982524684
-0.05400077082469168
0.018104690437992985
-0.005039760164391404
0.0026499936106908267
-0.01223958019750212
0.03094836920279218
-0.05533354632095198
0.004817504893108651
0.056505275033696595
-0.05062163574472278
-0.01557112599385469
0.03759276479817873
-0.03128923038022711
0.0023781182419773516
0.014797840493058434
-0.017950164930813257
-0.008446291920100442
0.0488065828320138
0.01735924960340223
0.03141621077333857
0.003774439622992129
-0.0011316304088209769
0.0019222214537306602
-0.008733561717006717
0.013734771609049078
-0.006576393583073841
-0.013050271290043425
0.02088651337226878
-0.04043202505364144
0.028562563400032607
0.08764250509054963
-0.08101675245887441
-0.01225526704580152
0.022613232722308932
0.042746683671413196
0.020543963883883142
0.002295795947501809
-0.021812395156759198
-0.008905822743220089
0.002103545316448267
0.0009493149443423046
0.027152886978414267
0.0671626781199149
-0.04537261928566525
-0.05932485872788864
0.027733073077415415
-0.03388156560500875
0.0006013236416449922
-0.020990188225794796
-0.08325356548430554
-0.00914996579565014
0.06168697404172361
0.01802845749412943
0.007724631845692251
0.020978522933500478
-0.020549424805011592
-0.012227314017841709
0.005132915365646398
0.023125053993591646
0.006654605473306478
-0.014460590442278336
-0.01556759227562209
-0.012877184114999305
0.0018285444967026283
0.0038211880852058633
-0.04195724679165701
-0.013689463429783616
-0.006378531602854829
-0.0013182572738180015
0.016164537139817137
0.003473752502414666
0.015817749185035715
0.014447564811343006
0.02024325850117755
0.03692206729650333
-0.022226893390566414
-0.0019043850865982676
-0.012385114985992438
-0.029770644326016282
-0.004505458453577192
-0.010511469220279589
-0.022196819681464672
0.022912839074513802
-0.003576949075638834
-0.017715025949385156
-0.0023160290512772444
-0.024510931494783218
-0.03787409168408694
0.022994388998762733
0.10937513550550383
-0.03763603367151002
0.030076992534373594
0.06733705020353178
-0.016916062901712742
-0.007056385187666092
-0.022653011962166642
0.054787197931289396
0.002649059426364717
0.008516705810098899
-0.0022428227831343085
0.09744831010819906
0.06851961128474042
-0.09768892487719438
-0.21163376860919822
-0.03278205191727544
0.00840167037377444
-0.027017162374937762
-0.027400512263829956
0.001360367397131828
0.0205445846533293
0.03651552689483259
-0.0010060646223317234
0.06166357064457679
0.057096693122877046
-0.02209163584307586
0.027805571807365696
0.0206072374317215
0.003501961281240793
-0.031111766837063654
-0.03553146289430742
0.054581190137103615
0.024426256506102726
-0.012415250663623239
-0.031495551651502064
0.03059649510792146
0.020055099313633952
-0.03274660850608599
-0.014204580624301875
0.010259029008875325
-0.04474901194836005
-0.03819841743182256
-0.03763020834108133
-0.012373861041956822
0.058580495744934145
-0.007070790917998685
0.018593326628530676
0.0050333595946689775
0.03585816953706212
-0.01797609019517014
-0.015227837419142609
0.007305258611777972
0.009894161977456845
-0.033920361197302504
0.009253805966086685
0.0028918692298751437
0.010017091216554872
0.026716522091455176
0.021461321162477894
-0.007595271714000748
-0.04996360559594617
0.03662670424359078
-0.04871886443477809
-0.014020704566588743
0.004192286925993454
-0.007672147899525662
0.009751846531000133
0.01048384713098309
-0.027602307334032225
0.007642773344760817
0.057590681777964496
0.09680741661369932
0.055605125152612886
0.06512834012405942
-0.011096378283877658
0.018430522997189152
-0.004898916646205009
1.5587653807062324e-05
0.0062958114935089925
0.05913394649987049
0.03289149222246678
0.04383811274619445
-0.009248500186017623
-0.07599789246085197
-0.07925927751580059
-0.014901956247026036
0.006311396576331898
0.006042996990824632
-0.2428996633105507
-0.12909151706805855
-0.0007023735248595734
0.03711493285994753
0.051264395614542525
-0.018098997650948953
-0.09631498002317522
-0.059082822622282434
0.07324352655429245
0.1103887518488332
0.0476896625142345
-0.008435719170970395
-0.02986571440038963
-0.03720647815598462
0.012016772544139099
0.010938768979992238
-0.017369528255476933
-0.05161844094665402
0.023928552945762363
-0.03295312745568606
-0.004458852161364103
-0.026243936826727647
-0.022821351661842994
0.028556126814519085
0.10269195278682176
-0.013613615637633185
0.000990296528062719
-0.034078819907562216
-0.0035796523857218087
-0.015993617766136697
-0.01013768788915608
0.036750343651515166
-0.017791534122844205
-0.024321472749196285
-0.009333032080310558
-0.02926030379980295
-0.017583569637019417
0.01124939066786467
0.018376563793620192
0.05120164998368685
0.09543011178470484
0.015064358781749073
0.07123368745779263
-0.04775412874365884
-0.08776064229207602
0.13548211860858544
-0.039987133840643604
-0.015417751451789093
-0.023251665410455494
0.03308797167993482
-0.019041276726679386
0.019748108285117194
0.11193008408049837
0.00038406094850432237
-0.001681306110137573
0.0025534745436628535
0.026277486739725204
-0.029427991598311578
-0.016624373249148408
-0.009713324152297129
-0.009984336344747784
-0.003992021450240215
0.011286839713131847
-0.009025868619149145
-0.02791137445492294
-0.027429403848226796
-0.0001368783600356329
-0.0150109781455088
0.01886188471351542
-0.008766435529409226
-0.023877698369152812
-0.04444618753803304
0.09785396687191979
-0.05032601007319182
-0.20600361793981967
0.04623226962628325
-0.03146722987499081
0.16471868430769532
0.06138833026175324
0.02511521432372626
0.02073527080295027
-0.10179440464522592
0.06946898420516001
0.01895193733062432
0.009438093882786946
0.017699240782168196
0.0008603068207511141
0.0031883062131668376
0.011180591586865806
-0.006017649540333251
-0.003523742548634158
-0.034771265900403935
0.004977544831971535
0.02426784234602681
0.04887380232065273
0.018411342329618063
-0.027536479062038734
-0.031133301378819908
-0.04348654800446101
-0.011311416556685563
0.0391678720617673
-0.03291389715344093
-0.05784179971569172
-0.013958042175556242
-0.017229688113052605
0.029547182449675347
-0.014052744961405305
-0.025620319975852228
-0.011687236726758305
-0.02761636419994192
0.002083939328105699
0.07102657811447924
0.026691509645655736
0.035494603930065705
-0.003168264437112516
-0.01955249937685232
0.007951011987016983
-0.031828206804367806
-0.013720792964979793
-0.0005393323978133317
0.017085485440275966
-0.007570889489560649
0.03068462281351504
-0.015617929840258915
0.0039074290892212775
-0.00022160924215708074
0.004780445174606063
0.018620732483808543
-0.02436432671008134
-0.01691672125811359
0.03830564838489661
0.006597625685968041
0.0024379087212692426
-0.010053142906725406
0.007143639724492612
-0.025156628514982543
-0.002514099286566354
-0.014930819334618636
0.03254724042987047
0.018841959466756143
-0.007534099517297634
-0.07241414235956291
-0.04480167114425225
-0.007394782233503913
-0.016740429189140912
-0.015145767153714303
0.008793790485072579
0.06316625768472678
0.042682175470456156
0.0017362485360100314
-0.053713770187842444
-0.02081608974487883
0.00670739237423375
-0.053429886688169254
0.0797038074941466
-0.021262906413037734
0.05465854796385976
0.010769645880106761
-0.011002038696355172
0.0006649507408157758
-0.028413364603754907
0.03352240067424247
-0.006427670962670468
-0.009755543218835984
0.0018222756690898286
-0.01974051700687711
-0.02239236510805057
-0.004685578519144551
0.09203155061499717
0.03769053836484423
-0.07199580834455793
-0.04134676534827283
0.006964069809894483
-0.041356673680802494
-0.007604179535308128
-0.02888844578675228
0.016851877471551473
0.08239705175245347
-0.02358457276995063
-0.07989816681180259
0.018660557376492345
0.011196847911736372
0.06356799345446089
-0.09126745026541917
-0.1113359475594076
0.04683694645973157
-0.005442300390697925
-0.032461936693157334
-0.013236466866058854
-0.007966328899693183
0.017839326586080586
0.04532097789740205
0.0019494414348995399
0.16534556698997935
-0.011467436005876207
-0.13853123825298497
0.054309447063683215
0.15737037919617133
0.12401997110441101
0.03148104931474106
-0.031124763328246492
0.013719912837826202
0.04671889244055648
-0.07517630440306705
-0.013253866399407505
0.006855267999047026
0.04032185961753074
-0.007385600602770466
0.011091544270663603
0.01582828960511633
-0.03224272517791804
-0.032513425611494395
-0.011345018706885167
0.01762506562982463
-0.03585796751158035
-0.015921896104599067
-0.030093057676895005
0.009513834580262738
-0.011110573331392095
0.1485988510694594
0.009159363673363851
-0.17407623026910118
0.03157508992894214
0.049717726812191304
-0.13002602059009344
-0.03887092200716525
-0.014476667141913433
0.06147927389480078
0.13644287787288073
-0.009205819927960292
-0.011568729983611943
-0.0641984982118408
-0.0016040473047015946
0.005082172036295564
-0.024419995115587213
0.008781629658137403
0.03986716126098097
-0.04688573931377323
0.010748136656270401
-0.042087306494257494
0.006250176905491136
0.007483729730614609
0.037625235685062514
-0.055191009726953046
0.01125181816676266
0.0034516528100857436
-0.0025750404455897255
-0.11867246919856646
-0.03425876299621706
0.049388880455433604
0.024024448233786782
0.02551074268748622
-0.00294324939428545
0.0004063688502682859
-0.11365280646411603
0.022260699606504678
-0.07116293424110527
-0.057427736447854524
0.10454018977529207
0.023354938845229194
-0.02933466532244646
-0.09097872844454921
-0.013160086852319338
-0.019982433691068113
-0.017453557046677164
-0.011962619148244005
0.11785313234432165
0.04508735674611084
0.02010122790333388
0.06169349709116546
-0.034356581980749284
-0.04347889294243952
-0.012344814798045145
0.06437958360872337
0.09704235818939014
0.005739892659290488
0.030943219967507794
0.02231952233084313
0.03216311489727578
-0.01691338961769153
-0.0017250315967206294
-0.03481106555026447
-0.0007147913953039158
0.022317439861634973
0.05279920901332513
-0.001904177849903054
-0.00733178185726612
-0.024018910030848703
-0.03316039631387611
0.014314752763938055
0.04020296596155386
0.09677227511674097
0.002966491272937243
0.04106165026233411
-0.020740036241406596
-0.20319015441591953
-0.013139444461489945
-0.03450486956876921
0.02221882332755419
0.013346473702701256
-0.08196829006054027
-0.008835120789047506
0.04097236511439795
-0.0090388615157934
0.01891586280267505
-0.043009572287157974
-0.02782074601885332
0.0018222624973994917
0.05373855428544135
0.04601837639182008
0.05775653214980486
-0.0010238252023934973
-0.0240025549379996
-0.0010227734974153446
-0.014451212523451126
0.0063867092918577385
-0.03084008388639484
-0.01652030878358673
0.01665376783615581
0.004533467046370844
-0.012410758087726535
9.360974779288274e-05
-0.03389885335967707
0.04434982932706037
0.09026255294126355
-0.037431301663907283
0.012941499153327296
-0.025543268320127693
0.029768411229064463
-0.07267476106864423
-0.15521053740165378
-0.0019435077735726275
0.054315936641766836
0.06776003392137898
0.04770294488638928
-0.043372419117137594
0.004965042624338571
0.023785237994028208
0.0902919113059836
-0.016902345049570628
-0.06811551722057885
0.02500043590812108
0.016855233197869524
-0.0012202714813893732
0.013368269429667706
-0.007397916900255714
-0.02748242218494415
-0.011092260550924833
-0.01008844739197959
0.018881366615853636
-0.025246876671832525
0.007777507506511641
-0.05882963642621305
-0.03842075636124638
0.020825439712481353
-0.02017615950936588
0.005289938201591744
0.011987905548152633
0.023126765904762286
0.07175212117889358
0.039121711186759375
-0.028902994529516373
0.013106478865360711
-0.04728653793331866
-0.009401358504172053
0.019379066158317988
0.014842363163280456
-0.03245214886048525
-0.06221460951290503
-0.036566225837049104
-0.017166193702653623
-0.0353323712646401
0.029212686278231443
0.07076302078709011
0.023916061313108913
0.027940290313037797
-0.012098218332367114
-0.004929644370947991
0.0027647370627923553
-0.016404355444408873
0.01695369756465604
0.05421742703479222
0.04365784937030918
-0.002725798994762731
-0.026611714185470967
0.19900331122465006
0.0684159786205715
-0.05230137364018705
-0.02759288017545991
-0.024281993274196872
0.00020706808342104007
0.0073005735739596475
0.1816454387877305
-0.1733170066316523
-0.26735340901383947
0.008284274698597742
0.06597447088766467
-0.007576298285758278
-0.023886793118543928
-0.07492560381300341
-0.006703198996899891
0.08426890428122034
-0.009509276926412026
-0.05698813241481952
0.007722430719341083
0.012062175475041167
0.012313938861712106
-0.024016705651995335
0.002209412750372749
0.003068782772347953
-0.013100718977585139
-0.012874004399346379
0.009948750486788158
-0.020262839927067604
0.012164859312012376
0.03723507471034946
-0.10576775666606986
-0.09340950670140938
-0.004752922811080963
-0.03891362865515599
0.0026716938622353744
0.008987820559425246
0.22944065572672528
0.053708183032088644
-0.011399816667559348
-0.008709443424717559
0.03606470212379528
0.0427583195222686
-0.006094758017088364
0.004741283551442111
-0.015398173784867028
0.018126235207036136
-0.016949241650224413
-0.016181041925616674
-0.009624322457565032
-0.02088601524719215
-0.07022985528583134
-0.018184710945773695
0.0015598738734327682
0.040443678434744404
0.012986447347191675
-0.011734433247410797
-0.0049018436811468944
-0.0018833417137564244
-0.010713253935932953
0.009916059268519349
0.046111254023027994
0.011735883190484709
-0.02672995909733303
0.00012277467960319962
2.184891217964199e-05
0.005666240240330075
0.012210217392095522
0.03791604106820179
0.07079898278415797
-0.04854868608129012
-0.08597841758711054
0.034567126416542325
-0.00731863038582648
0.06280197490255267
0.04090536892781562
-0.005302161098653267
0.013029434604645418
0.04206446942375191
0.015035799995824332
-0.022553936302441457
-0.005821056544571948
-0.020208573774810296
-0.02342107852504694
-0.04267824692994793
-0.03609531745503769
-0.01673355441695755
-0.0022849813731202965
-0.0025925688415534957
-0.023217783637366013
-0.004653639501394448
-0.002077440741014019
0.029586383398463745
0.0394413304200998
-0.003213850393749388
0.0053828936250217676
-0.0016341918889424426
0.002209295321267573
-0.02206728879689841
0.001773410211829155
-0.027214945012466452
-0.03131468887989372
0.017718435508479263
0.021038685438780236
0.0037292351483510598
-0.01125595551087102
0.012222184607814386
-0.09699819765999249
0.0018890009847759679
-0.0185211314449454
0.09033188494439656
0.08130700336774198
-0.07000582273558033
0.00854942917046265
0.006926217693654917
0.009771803238745297
-0.024096145631182956
-0.008961653634830175
-0.008787773152340089
0.012491952524961698
0.06342256476478471
-0.010416237591365228
0.02547398227750946
0.010778505805575413
-0.01100535580367068
-0.038526846301771694
0.10590138423783933
0.07067653595547312
-0.044023720929650866
-0.03746986884642632
-0.06479937615396869
0.03716655255310783
-0.09826818274225185
-0.02642655958803645
-0.0036273730850347454
-0.05033454307616771
-0.012477461479213534
-0.01394385389076231
-0.010119782408813444
0.002944998757414219
-0.0018719346868905787
0.027353377874266716
-0.02867931291587654
0.0028805830239895594
0.01086157199734295
0.00416832158399738
-0.003429764346663394
0.0036593459524608012
-0.008874285335360776
0.07055923381082889
0.016419404240850408
-0.012117521795775812
-0.005420816906894103
0.034790584563275107
-0.028246805286827444
-0.000874282842244309
0.06352789255995393
0.017151134496291527
0.015515940212675805
0.04343922644112308
-0.0436222778044477
-0.052987189666172205
0.02700417358578528
-0.019990814523902597
0.011117807266739934
0.005645069102274141
-0.04373274511790113
0.04865665077989003
-0.04494667290181128
-0.09757421408631357
0.011210095460114734
0.0009121224416307822
0.05987753182507112
0.04030319954139065
0.005446083065292552
-0.035820701874362114
0.016519105776069933
-0.0010649432457761562
-0.018285774354028714
0.029821582431507322
0.029475371550222472
-0.08946576371764736
-0.04292556122215396
-0.01675925173538657
-0.043788922632591154
0.02933538834530946
-0.011133235276366988
-0.031031594896959114
-0.04179660650260213
0.003963190172079385
-0.02561075819194788
0.06686683547326384
0.038412033544862126
-0.049776713723034695
-0.001977057485067712
0.13098409609003023
0.005231898909429137
-0.06230229532785393
0.0026637270448637805
-0.009011168991063908
0.049568392505039006
0.050039778019082964
0.1640078304881371
0.2230365494457671
-0.06751649183548299
-0.056022105388099167
0.04488980757054595
0.0017486323260576225
-0.040740487650245585
-0.06320487395097048
0.01869011810851773
-0.055913728826563376
0.10263443678332136
0.08857601965665209
-0.022777167843055054
0.01604924160776871
0.03712008720549006
-0.29181166585266066
-0.1628194302453714
0.0659099347683286
-0.039699323552149175
0.0073283304659357024
-0.04782586030886562
0.037934092134067926
-0.022091193100543065
0.08637942823628154
0.0848305289054165
-0.008009445207894633
-0.009074625819189174
-0.00924564736663753
0.004436858498246627
-0.03881569730802892
-0.03167322162302514
0.008097936851946647
-0.02917800846502413
-0.002942637189512635
0.011582051865460996
0.004503424515876893
-0.026793950094473357
-0.113897764106457
0.011259333367434591
0.04441880858932353
-0.009238840023243404
0.030898643111549256
-0.038132321323742085
0.003285593184944892
0.029712909233249686
0.035111923888202876
-0.001759915960284407
0.017139505315681643
-0.021297329023367735
-0.0026458224866137336
0.02420385533119972
-0.00597687596296629
-0.04201287851243087
-0.002424496009101983
-0.0035808634278905534
0.020610846743411577
-0.022694410927996376
-0.0005439259081240034
-0.025802456465447054
0.010666671439011953
0.029178440733125005
0.017213383686336032
0.007099560862454792
-0.01681667401895633
-0.0018963085581330562
0.03595162314315949
-0.03779897120203304
0.030886932116290296
0.09182447363927143
-0.039040872096783294
-0.038973829980701015
0.007323846977054657
-0.01878127930342431
0.03542279225567635
-0.03544127986405285
0.07792964507293998
0.14663565827527128
0.015497095224608425
0.008931645341051755
-0.008054628047692379
-0.004098740883002185
0.014336333996152016
0.027116751382690808
0.018233884542409404
-0.08213245043791464
-0.04841440434540566
-0.0023975202579977232
-0.12162046835944428
-0.04811577268522977
-0.009775326319453322
-0.025325276263329154
-0.027056670783056104
-0.020134781484904125
-0.008564859801025462
0.008282963558538286
0.04602457528916104
-0.05458408479086309
0.00470995891295675
0.0006257992326991644
0.014648955973950608
-0.006888702272143474
0.02587721671213057
-0.0259897215400157
0.017318942415886898
-0.039462065371406535
-0.04408058705405196
-0.0224615211733882
0.09993365854705458
0.003042083649216202
0.10546566719120264
0.14873588692617695
-0.11175231103307648
0.003283092149126219
-0.028264562650685162
-0.022291092473412086
-0.03041222387466835
0.03755641468659474
-0.006151223569567553
-0.0358691412957411
-0.03717450531741753
0.010264232855207722
0.0013038656764147636
0.012383484613201344
