0
-0.008804169516684689
-0.02259159563676335
-0.025185744379140788
0.029404504149993686
-0.10817709696922875
0.10695907876217325
0.328661269101999
0.09059856266475828
-0.02396934584938198
0.029057306789709036
-0.012788203307675456
0.005650912035380137
-0.01860634405892156
-0.0005533021289681749
-0.03301302191714404
0.020838812757143756
-0.05954975762669549
-0.01686748486535425
-0.014112298531562005
-0.01751650747567172
0.015352976125362757
0.021889430597691772
0.027392384891773064
0.03994855857210078
-0.020543596888709176
-0.017680495155671692
-0.03046964348887399
-0.029807946752087873
-0.034016039054290806
0.1559649652244005
-0.0010697414357440467
-0.01229233038911254
-0.053390163438550485
-0.14326691056821433
0.02025463224858903
-0.0382900803392588
-0.022904426177906275
-0.026802850769674813
-0.024704637291030555
0.011179324518521742
-0.013657801488996283
0.021680871131225674
-0.015678732581374956
0.2695106918162186
0.12421555484122966
-0.08054923058317186
-0.12083594830325163
-0.05285878382620787
0.020593453659462455
0.003160791439238136
0.009429144868147278
-0.008630036275939178
0.006747066838472623
0.015665658045809175
-0.029994378963106735
-0.018368231134752937
0.018858023814052074
-0.02492013029388321
-0.020359902298215674
-0.0034562186105903774
0.0008409950219896518
-0.011671566621445742
0.020524395383329893
0.024340664687999773
-0.009420434918857672
-0.04087566507112771
0.04193609933619461
-0.0191823432473596
0.02205715303012926
0.07976425500287614
-0.04189544875077812
-0.023134884388760935
0.009330200066089513
0.012749144588868312
0.04871178772517284
-0.006246634111615402
0.015124486034860775
-0.013636214779290893
-0.037580162814139624
-0.006630302060851638
0.03457183380957173
0.06736178082174755
-0.015812806135055407
0.0013914584500444257
0.02051491087244057
0.0034619127282605995
-0.036707864202765804
-0.046499357275276945
-0.001745402686832151
-0.03423848232674366
0.011439087873426967
-0.0320382269820246
-0.11688484947144
0.0019672410197054202
-0.0051265632062784516
0.002976718401789966
-0.014794886410555251
0.028562496926589416
0.0015947937744762951
-0.01598605656301028
-0.0023195410063876283
-0.009458277986546998
-0.022729018892019427
0.046998814179728156
0.07579698828405852
-0.013992821231673423
-0.02597808691241126
-0.008981847683114762
0.10265741817285554
0.01841799451806647
0.007974285702146885
0.03275501335905065
-0.02835393207151684
-0.02705274602656789
-0.007531923618222841
-0.06343160743217167
-0.022778486649025296
0.14941681753239697
0.0061812214476320735
-0.012909965660632005
-0.01414814238911616
-0.06306507899066635
0.1072464341564231
0.18197532302703634
-0.0035240197718668996
-0.03806843581463915
-0.04909497392194346
-0.019192848903877895
-0.048321046957533136
0.01367856578156081
-0.027433089285523606
-0.10605454827704833
-0.014010247839320436
-0.02831924022215489
-0.013508869274665042
-0.015033568128956518
-0.013453895359442454
-0.005379327151492238
0.04577441718554392
0.02378440390537349
-0.04332788875456148
-0.041196164780771524
0.005740583652837517
-0.03761250055211119
-0.017474206218321433
-0.011497692646935535
-0.03167630830385873
-0.030901701992894475
-0.03163885791608412
0.008509380888470502
-0.018280231928225765
-0.0026492238405511665
-0.04953724686849601
0.02640761689879827
0.08020849832891307
0.15317225438446028
0.13825250190925623
0.02544250095828701
-0.02200797564559562
-0.010618349022951508
-0.017232204324496153
-0.035962669978114196
0.00844436867836989
0.03396227042996843
-0.07492489239770404
-0.08249599445496161
0.003891584216545185
-0.016507299259606385
0.054783881577562976
-0.03547356482887202
-0.021200183531745662
-0.02775413881860048
-0.045096148917380126
-0.061405584468551995
0.19839887329493003
0.03722029397299135
0.006746073052806889
0.003904627815617877
0.0369211745381198
0.019043196954330138
0.009439913511546362
0.0008724799634458567
0.004675610941569274
-0.00573013149436246
0.12965581509740284
0.02354861641172753
-0.025850814086443342
0.027655048849158044
0.06863888814469118
-0.011653480796244831
0.014057302583022449
0.0020910467624437406
0.021673960842954507
-0.03841308488908766
-0.12456000773323667
0.022214070324612856
0.004575861739277188
0.01132996329995033
-0.003375801815743251
-0.014434768850375115
-0.03177230330379868
0.09317533108370533
0.05085001599360539
-0.023117137464018007
-0.023549463760771334
-0.12252848999955673
-0.2288329341501725
-0.008711746911959585
0.047486205932708914
-0.01367441603009001
-0.00104330961617231
-0.028435758744138482
0.04972993089247431
0.05239641525274134
0.00771394412804068
0.005292448815112955
0.009450660585284215
-0.005923246813830816
-0.0009479282125489715
-0.026736338166866134
0.02821694269140839
-0.1692337112805948
-0.03322650792642102
0.055763815083055945
0.013345440908370046
0.0023116733402506772
-0.005441782109632227
0.03741143264828618
0.01579462427928044
-0.0005902966212502344
0.00838462065591355
-0.012796043678997478
-0.006552617117684979
-0.021889601698192027
0.028863714600050026
0.0023341611045996874
-0.030976846318519633
0.017010694231133473
0.013501771952337852
0.004746077911860109
0.01577819527140491
-0.006344496821437076
0.03627355502940153
0.007885029908668384
0.032820854542757495
0.035393323253046255
-0.0917037223063117
0.02898958983293468
0.014565392146850417
0.015060485146940342
-0.01596534850495735
0.0008415007989727951
-0.019103742941960617
-0.008664596461736906
-0.030431919049031243
-0.011607993114880932
-0.027077322794833963
0.06624109821350252
0.11413252705633055
0.0016624910090244115
7.920957348288766e-05
-0.015668323370022413
-0.015784953986116245
0.046210730684677785
-0.09906843783348893
-0.09469565086349815
0.034859494737360656
0.019506051382365622
0.016689359867234445
-0.012148940120927437
0.03329710424109812
-0.002970304926653071
0.03583932143143211
-0.03597104385032307
0.0025318119599632163
0.011809270041944134
-0.012229192092583453
-0.03927383962620434
-0.03557550601483514
-0.04187551958263556
-0.00585675510095932
-0.028352065590674255
-0.00926031355681144
0.04969608073446838
-0.008248259825567539
-0.02402282972700487
0.05782540631401027
0.013785431211671126
-0.028922694358817037
-0.009872578332359362
0.0020314655818304815
-0.005719435040215399
0.018708259075189883
-0.01953581459565356
0.12642625014037273
0.06300775432948334
-0.020088998764220267
0.004778734296566444
0.0031309065922405753
0.016014510592779474
0.018756770798993717
-0.031024899117467933
-0.001341646881709412
-0.007205870200205384
-0.004467960319900408
-0.0149996689097936
-0.013725501614797908
0.015559693059236605
0.011526153280561727
-0.020100012032356614
0.10639951788436837
0.06429745692119235
-0.006449031930652139
-0.0063016517643260574
-0.012245523938755744
0.020282897643421113
-0.0022847044503384
-0.003978548759080442
-0.031158173651247123
-0.010855797363633462
-0.01030846621352408
-0.016406183799384192
-0.0010941886482365832
-0.005186122517090995
-0.013238158901276808
-0.030764787196035214
-0.021264603823018955
-0.03423798715537651
-0.015234090721866916
-0.013584231586954784
0.0018627083953019282
-0.010778019727572518
-0.008811939003616296
-0.00357734918779694
0.009344066392828303
-0.04459795791808382
0.013724039303352274
-0.012195049768423127
-0.028366570021228006
0.006083748466525396
-0.015373431978691695
-0.03536320633291642
-0.02118958985413959
0.006045334069672766
0.09493117642106241
0.007233182735580154
0.005099397081846211
-0.0018488114351492338
0.1610431058233493
0.14437985658914249
-0.015603737875098108
-0.0967612405844683
-0.1592541599864056
0.038467598184327316
-0.003670857449811052
0.04159412432084438
-0.021752386673804365
-0.011231057371300571
-0.013985438192720483
-0.031142363906795596
-0.0444956181713597
0.04880446379425739
-0.0350308472982666
-0.054701259361039756
-0.012307562989450354
0.015986467402308736
-0.0006003732757414124
-0.018898078995001566
0.0005194560715409705
9.685349718529807e-05
-0.005851273047819571
0.03593911151388619
-0.038123936684999866
0.08005293632981751
0.10083024181377154
-0.004957694494113786
0.021146341854051554
0.057034106409307464
0.0280655028152531
-0.0006475018210571298
0.03330841917614649
-0.02567454627064706
-0.002506249461745499
0.022527266630717198
-0.031929016907509426
-0.010638957427606533
-0.029211220496899514
-0.10460531709590018
-0.09840909771938401
-0.010637519662259008
-0.004072600100950393
-0.000324033483222813
0.03391351979322203
-0.008802095277675814
-0.004796961878764129
-0.005369646193342298
0.07493654833172277
-0.019884199276891792
0.01520020869994981
-0.0096223441813082
0.023118692741719182
-0.07170202777710719
-0.0007153387097727321
0.01884440317293806
0.01993931805858939
0.016484414215020463
0.004974724830549681
0.023632243506451673
0.05453268979878767
0.023023300022449775
0.04021384219645124
0.003911833337533056
0.0038324085958414385
-0.007214008616302572
0.010264700312756598
0.009614809191291152
-0.007995975569805249
-0.05109884855745806
-0.022644395522901224
-0.051036189503677526
-0.02037481625544536
0.011333652000226993
0.011600390713876075
0.018434005286861482
0.021548565194022016
-0.005101036857333406
-0.008962068124021765
-0.046786506224982295
-0.02567418646996293
-0.015588777358781489
-0.013804552598548453
-0.008690662691263963
-0.012801496827283298
-0.06913156372398693
-0.02665158304423845
0.008434539097091819
-0.005149586943740045
-0.03269723050230488
-0.029586580847678158
0.013155376657950791
-0.010562293058790447
0.021903742010279583
-0.005457484273412437
0.11876983492856498
0.2052859236568633
-0.03263638361280043
-0.015671732780803277
-0.03047198543263064
-0.0527376649448876
0.052156903101118535
-0.02552560505696863
0.017876896306681364
0.14583943589387943
-0.01328585016130076
-0.012329031309464368
-0.028093729294780188
-0.020458129377194857
0.0072573021077571125
-0.009620915011652539
-0.038961163822904356
-0.017329465196086496
-0.038528920796301595
0.0065180653908932336
-0.019251121094389406
0.08477005658938029
0.003296832943199549
-0.006106240626818745
-0.029775875383406182
-0.0021230285942740535
-0.0006374702147414376
-0.018396706612258763
-0.0043606901845129435
-0.01898817932015142
-0.021206812385080473
0.017388922400033986
0.018931370701777868
-0.03085983500387332
-0.03760956402057743
-0.024528523745855096
-0.020245820600054178
0.0046067966218919405
0.0012881310415863323
-0.012746616257791995
-0.020076667123076937
0.07150155732453084
-0.04594782095166621
0.06271087951551035
0.24720495813080526
0.014526947092434508
-0.02700034160795952
-0.0347013004619684
0.02602916761220348
-0.005618606139809389
0.03457585541199157
-0.009905293511342577
-0.03587539442420694
-0.02331430313634355
-0.0019957548822481692
0.03110348466288507
0.02706051684129622
-0.056901872097392295
-0.01165826089397691
0.013809611634468444
-0.010619475896584313
0.048376998731540714
-0.05936514561971283
-0.09522515114363492
-0.013552113797272154
-0.004506977077724047
-0.0464004857999867
-0.0033478106383861552
0.020930616809680662
-0.019496921748823934
-0.01063630682430859
0.042522745707930784
0.035076165278317056
0.006545688951373131
-0.009068073131836784
0.006588340316774528
0.08831108128587352
-0.0007004288860505575
-0.019752173858327678
-0.04666396682354784
-0.03167128190189394
0.01614599391023815
-0.06740131669778027
-0.14642624640975407
0.02341352899323375
-0.022910906897096732
0.00748109978205698
0.01397790900966852
-0.015129673372215005
0.0014835592907607574
-0.0023171170848704506
-0.014272641300970309
0.022497690550785394
-0.05212042358448682
-0.050207073110789605
0.06007340118229504
0.030098348113168458
0.00980073869654531
0.037483305592733156
0.009429310674858901
-0.014279167716721379
-0.03815117685219779
0.08654278795125493
0.043798942756690606
0.0004682161131702815
-0.01880152793386471
-0.0015511605393649344
0.024077631666381157
0.017518760631681396
0.006019257855983955
0.04211911710049684
0.0185164984326512
0.008050567554258852
0.030818926901101825
0.013700679728574945
-0.008469142062446058
0.018944492195271296
-0.0043077043944378945
0.02128127883409091
-0.05913412078102137
-0.02451049579091418
0.004878269751476282
0.0055234517820732885
0.020184535212221928
-0.01036807218200628
0.003720098664018124
0.039692861753508224
0.06118737972200891
0.01379424051610891
-0.09778545821890684
-0.001658853694557993
-0.012120397748296622
0.06773938520356758
0.07717073362267671
0.05004752466002082
0.09153260140691255
-0.03470148440297138
-0.030271960634531494
-0.00955964575134704
0.026922572255066272
0.02733645755400094
0.00847717268782765
-0.01171634261458737
-0.0523522472331488
0.004925121791683648
-0.00504365307634687
-0.24635988635445163
-0.07086332053593175
0.02915386088801662
-0.0017412074318124734
-0.11325857511378846
0.01871741552050397
0.03231356928024294
0.0028894358612147394
0.01079840001553632
0.0015009669830123988
-0.06537207115482445
-0.24394160078263466
0.11273363058601242
0.07474084671358812
-0.005148813766634062
0.044109269347818995
-0.0007364411943063697
0.016986754009689794
0.011832967532711361
0.006807697148845582
-0.017424764663757055
0.0012811238074530997
-0.009878837413574496
0.021779598578599527
0.009192908294593795
-0.026258374601115998
0.039469305326484405
-0.007208142382797441
0.03013771892742313
-0.03314241157623433
-0.018680719035075472
0.0047836498537855545
-0.09343485772749656
0.04617258212608079
0.08938759912154884
0.0029228910488935528
0.029672801468723784
0.018367481929159216
-0.018010474993984324
-0.0565418673175356
-0.0051044075440568
0.019249259050203332
-0.00915830380151467
-0.02179035731662569
-0.01654495079885219
0.13667494360022747
0.07466804221437344
-0.00640853829466278
0.033936041283953694
-0.02846146994146095
4.535615025765708e-06
0.0013791395572859647
-0.0006373111835015822
-0.0329000723151859
0.02291637956506043
0.13141672565038032
0.019394853742811587
-0.019880764102639056
0.011180838786709339
-0.036933849215267475
0.009913249625882912
-0.04015814828094638
0.021009654847639635
-0.12202092331154943
-0.10326982021334886
-0.07057416438689147
0.008698843208880015
0.07061621204618673
0.014753963053478796
0.0020787420783277594
0.01001800232761069
0.014526407026812793
0.019700964029815634
0.015081328718831813
-0.041622409865841654
-0.0012420881941979003
-0.0025278114633220695
0.007658318882787838
-0.014950340883249393
-0.009215921635620912
-0.005577440652298068
-0.018803441627240514
0.08827852547397912
0.05467348992360734
0.006618097134655331
0.02692151124030161
0.0023762684225874116
0.01831612854734113
-0.022558710477354527
0.12787550851624263
0.03271809673997646
-0.04169356081080607
-0.021735552502206504
0.00018075534470229243
-0.028747785376763844
-0.0019922782926117895
-0.03225090168861018
0.023036907975015865
-0.053529636636207384
-0.08318322467345161
-0.026525985327398933
-0.005153391461127119
0.05871084936602635
0.000352857277735551
0.01666396930854409
-0.10416522563133171
-0.013578358689523633
0.019590130294589142
0.0014326193752715736
0.016469067198351794
-0.10213377107792661
-0.13344423843684883
0.039095948951367
0.006866710388523002
-0.005657383615311479
0.002079012263872919
0.0013872574227103858
0.010508683377964036
0.030283710309999795
-0.022684543774966478
0.010585083758167043
0.016113683914798903
0.009873302132265002
-0.02221776478130115
0.010859082411736451
0.01784901825743755
0.030969594842548187
0.04304942085895742
0.03632178619159167
-0.011101076162468233
0.030224665662588582
-0.014043415820534488
0.07080083278790743
0.15244574742643463
-0.005377488564771184
-0.017046698883953895
-0.03423861832228567
-0.014968284947002619
-0.021431912584969095
-0.013204206984461597
0.013134064955077816
-0.04672182695408754
-0.11054012031234443
0.014028630614243816
-0.020071831914062394
-0.028395248436500806
-0.040272015464687456
-0.01410278430178892
-0.0009645973097989274
0.007145938841015235
-0.011321161293712415
3.942958577659783e-05
0.009042610596413592
-0.0026837702347698947
0.027667626320618366
-0.005179944930003908
-0.014001638927366392
-0.012498879400858013
0.010342146231814052
-0.019153689901830064
-0.007103288209758225
-0.03626687042769588
0.04127114011889194
0.2853413282876644
0.028327523587500313
-0.02322344025414548
-0.017754200018009546
-0.010862457567682067
0.027225051413619226
0.01474578086313369
0.032195521419652345
-0.006923323225341845
0.03610977436786471
-0.07536981290016262
0.04344671502121406
0.13350207686678064
-0.03685788937964344
-0.04229450988603473
-0.08897383321423499
0.010109629502916802
-0.031393445629056146
-0.017393865482995347
-0.04264409060835695
0.010203961737550327
-0.017406817035880724
-0.007318576336862536
-0.0401873794339486
-0.0062581503625569425
-0.01026231952121943
-0.00810522319750334
0.0164499124685261
0.007779005776369102
-0.022716911122328643
0.0033116592884947734
-0.013102581862692874
-0.031261422406861944
0.015033866469991324
0.019481979511320278
-0.003621642620222325
0.03650695865574037
0.02527924490391977
0.017697189525733247
-0.019293091684337585
0.027155099067253927
-0.02395650797763215
0.00924417181240053
0.08985759617767815
0.0021969810977771785
0.01973946226123477
0.013210451374915508
-0.07983335973137806
0.018036521396991082
0.022080828377535288
0.017072190262403097
-0.03323113026169641
0.04878187779851751
-0.12292852535823535
-0.20387157292724353
0.022886937569001627
-0.03791795523062561
-0.094819157126015
0.011351418297863453
0.008248601015883936
0.006034382438917964
-0.03354102141752111
-0.02184439678934887
-0.05448981017597295
0.14461810716831078
0.16346599027482953
-0.03844255673681607
0.03929697475128363
-0.06084371289129416
0.00020398058702327532
0.08314607299797704
-0.001495173747879429
-0.02159168012118431
0.0037758141896604798
-0.01688161320228603
-0.01826020829872935
-0.0022671931802071134
0.02724397303579125
0.003688849729280695
-0.09976184734697631
-0.07601996958391735
-0.012868420821312024
0.00958623680220644
0.1257244820375851
0.0528117304125325
0.008227252328103911
-0.016978868628854386
-0.021955159746625406
-0.03309415380159261
0.014906756954017567
0.02649539669992949
-0.022291032191076057
-0.028915592074501166
-0.030289667374208705
0.05231241841235579
0.07746746779413909
-0.03484533111671425
-0.008406061808090778
0.0030327059093075183
-0.04220295515640107
-0.018442478850472552
-0.031597815205287205
0.14084498530407727
0.07581419199146004
-0.04671196631775018
0.24269494800656483
0.04749566490054616
-0.07566004438920006
-0.014419317144745212
-0.016245190298440005
0.02713359548967684
-0.034125574040707755
-0.03578685902685495
-0.007939342307450482
0.02462139071247083
-0.02698648214706298
-0.02797762284097989
-0.08032080385591032
-0.005591496069362546
0.01350468331288871
-0.0430531353874596
-0.028002675148930917
-0.03868271961800513
-0.026856352340602213
-0.04013461738222815
-0.024415775772065284
-0.033071576777782316
0.23979266386126005
0.17290031714489879
-0.06078750296090363
-0.00618437117766291
-0.05008469956596721
-0.018501341748336946
-0.02436717513093287
0.012404622795245068
0.0026766208756406128
0.025891189169849855
0.02588541200327776
-0.026947206699749083
-0.022511412323024185
0.019742450255917733
0.05148293402935797
0.07406095565088205
-0.03875062887360625
0.009971715284762976
0.005873662623825651
0.011073482123511575
-0.018462803078744962
-0.10487624211952477
0.04929452743172427
-0.13260974442948245
-0.22285184486283663
0.024635034812411857
-0.006028509760180664
0.03492837331570484
0.054621613800399954
0.025163200806661904
-0.01930012598907821
0.06945167929578343
0.07601331422734822
0.001425921709242542
0.017712270116176092
-0.01566612890931732
-0.002584574401375989
-0.016338017401791353
-0.02115435432229117
-0.0027011049322586567
-0.0016248407216574775
0.03171966948431738
0.006604074573615328
-0.009241651598587702
-0.023118594225464827
-0.028912774689447935
0.03295177987972991
0.007905699547007462
-0.007300081353989889
0.008926165068325678
0.03871801625796101
0.003976673635388795
-0.06492142273829617
-0.032546208830313623
0.025086608548305345
-0.09474356270137047
-0.032327426798888656
0.04483788110896991
-0.003144031971082108
0.04164031130310306
0.012441269951503181
-0.014558038760637602
-0.02481842203407378
0.003220495486719959
-0.02237813482615277
-0.013880380702720949
0.002933704498049944
0.01598227704977552
0.010287005787364164
-0.0012858189521697877
0.003499228824118356
-0.012174636030514545
-0.0163935826433527
0.0044541086131314085
-0.002080203722959031
-0.005095500681269688
0.03568767386185478
0.02090510118883856
0.0018999689205006244
0.03765760432760763
-0.0697799180201254
0.06079315166975366
0.03991254479589174
-0.02216569619994848
0.0002174938411512974
-0.015935646265273832
0.02053944696212434
-0.02757661877528352
0.019854688954358064
-0.020683499149687836
0.03978283341997615
0.22425313761907695
0.02142899674924735
-0.04062233026255985
-0.03699116031223418
0.014177253972005593
-0.02955028385980568
-0.21228181413621852
0.019467804656599495
-0.019247377752576674
0.016865905889527577
-0.017678511292598325
0.03820755977890936
0.056395888904096865
-0.0004230770877277729
-0.028048916214110972
-0.03181433896099439
-0.0011009696424352782
-0.03225865065164312
0.011359609129543403
-0.010049380183718277
-0.027460812592133003
0.011580522680120602
0.003984961753357301
0.023510637644872268
0.011506417740188832
0.00498531127692267
0.024197936975253482
0.019923484235584377
8.116114572918148e-05
-0.012177005490571484
0.03305582031560992
-0.017770176597108358
-0.09002243448535428
-0.11735124549257063
0.004091965569094712
-0.010276823836465573
0.006542410905424356
-0.029689588486979303
0.05515617630988553
0.07654891435758965
-0.01536234641225223
0.09115169182402943
0.03163955421636057
0.007493986216275225
0.050685228330975725
-0.037823876766183935
-0.03488876873701954
-0.0417402667488833
0.023339248940873428
0.027238344062653
0.02098612467925718
0.02145495491407787
0.016263076649035556
-0.03301024343030142
-0.004954923254930411
-0.012645212661258716
0.07167672588188466
0.044647981727351446
-0.010868067392144857
0.00014275738987181178
0.02209534913984029
-0.04933632250242164
-0.046348783893439174
-0.018833977447432794
-0.009686646297842176
0.024753743412483695
-0.022031792810991817
-0.013047362443951731
0.03485799447571152
-0.017067762819014235
-0.009446204532622357
-0.012075266009985751
0.07792033825104595
-0.09538678640326127
0.0016232159108400487
0.03729696663668752
0.012029936493323174
0.008268707245201335
-0.014258290255148128
-0.036108224377114674
-0.01285605192366268
0.009471950279450438
0.010972406329524342
0.005529367366174241
0.012331718450497157
0.010411856590425015
-0.021505083473436833
-0.05347594220816761
-0.024851722270315627
-0.00792173717273616
0.018407744963076206
0.000607610369983717
-0.002677454941183208
-0.026972928588911954
-0.01134070358216514
0.00883771157013612
-0.011979202840138502
-0.027025080377346435
-0.037360554694807244
0.04345332038407297
0.010516582374850161
-0.017201220016492054
0.01729297476926322
-0.034980570452499034
0.11797323491081584
-0.0015624605666088667
-0.07657233508089718
0.07687304308323045
-0.027802091998077386
-0.0876887981675385
0.04200759361540235
0.011174312012531903
0.033639718435897525
0.021538232904786764
0.0002553984283790228
-0.05673446215289266
-0.007033261441237213
0.026145824313701233
0.05463105917832401
-0.041178141578081105
-0.018737960470375962
-0.010048025243465228
0.02264099878883676
0.0724142025069326
-0.02545618659477156
-0.01450245534824186
0.017204956316594546
0.03599441170064223
0.07278361132377499
-0.02932743905681315
0.005820751236397508
0.02878875225893803
0.0073362055839759355
-0.007039911981443844
0.005976184702998706
-0.030708064718373795
0.02486646719154224
-0.029262953951563156
0.006533411700814332
0.0017757260332971734
0.07533267360273506
0.03470498819578507
-0.001338207635483388
-0.07709468264050658
-0.04121739760944995
0.011410150116084442
0.010064826817998574
-0.03228965386088699
-0.11928576625520809
-0.02990300121568795
-0.05809560511868669
-0.0599620373184787
0.009830846194428896
-0.009392252360999854
0.008846231599483358
-0.009919755307823349
0.05456260485263415
0.08616597267908958
0.0021961249873987828
0.10325568499112012
0.03250536914225834
-0.028154146706110543
-0.0037833643912420097
-0.010751938979275755
-0.023323638421557623
-0.009110079694778728
0.01121604614254814
-0.025101208965656235
-0.023720601982789125
0.00609529926641334
0.004165035003062391
-0.03875328550598203
0.02113614028657058
-0.0506047834105009
-0.019684728315593793
0.0011738307039767266
0.017883028275624664
-0.018787297622746675
0.12672059363998472
0.028910836102982403
-0.026033824804408804
-0.014040289783324252
1.5279801704731305e-05
0.01366829044302808
-0.004485978041084401
-0.0135859259910915
-0.02622496663014231
-0.02210138770819028
0.07244416183468849
0.09671202212975491
-0.050155307178610366
-0.036184544279043454
0.003630405941122595
-0.017747746224582053
-0.0512991928028802
-0.03105569324125538
-0.003871571539786286
0.005282710937114396
-0.011138879574418978
-0.012252931992066788
0.011369278970394954
-0.014831585762427829
0.0009547679444420014
0.005044631027684997
0.0046288767464444675
-0.0274556090337214
0.06652177709439674
0.13584286733386058
-0.012687309245728775
0.011003692480042071
-0.03466943443279396
-0.04453161849409563
0.008594102684525063
-0.023927927314497412
0.00356025130645804
0.02958850930447212
-0.03180422930192973
-0.043539865461601095
-0.0348984187646906
-0.03399738387460272
0.010987187477299199
0.05687598666717727
0.01748537620778529
-0.053588290832293654
0.05188601554837627
0.22386256512736824
-0.03447893649782734
-0.03477084331728348
-0.04803635226809335
-0.015797995384028207
-0.03593487439833204
-0.008800365713008655
-0.010161332626260722
0.01536615724109745
0.017304944985105708
-0.014214352597625615
-0.03825190714048485
-0.04284105120314381
-0.02030919826229494
-0.019119493456517686
0.004977392560733767
0.028351136467483894
0.06469732044197149
-0.02584183914823129
0.03891828173675309
0.007239658758991571
0.049325244798929656
0.008548446076807081
0.006977785597757912
-0.06639705159478143
-0.08860583102698334
0.11770202609906318
-0.06922004592198283
-0.014231963219120864
-0.009542741450540689
0.07953010586829502
0.007356216715394351
-0.02416769802175272
-0.024611642163103017
-0.026089845692220885
-0.0063786774386292
0.01599258041749438
0.019500024698492636
-0.009178564051233313
0.005196466285807606
0.006318199266382964
0.00014570899688848353
0.03029365379003255
0.02562682502638678
0.0944855083199053
-0.009779373565407727
-0.005644319374264036
-0.03939984973210054
-0.006004171704956904
-0.005667863234769188
-0.01862080916789322
-0.041844711503041865
-0.018458671415835733
-0.003959557687061682
0.03708379837423261
0.01358329912432811
0.029968609808126677
0.003565115705654183
-0.009322882733551151
-0.0356071583050008
-0.04812896424852879
0.029512722060180772
0.02522966448223986
-0.11188660020454907
-0.030883281091694213
0.00928917843289909
-0.017028183255947918
0.009873771802613406
0.014205324523703796
-0.03756501427532488
-0.020557190567327768
-0.07312685571704829
-0.03721054156259861
-0.007556551246880686
-0.028757544794046568
-0.028094975884637607
0.09902263612623657
0.05020369078657193
-0.020728086970812486
0.006519529926243838
0.016533319483332993
0.04507676122414524
-0.01618470833987757
0.04844871604064711
0.00770564075832224
-0.010064388040425953
-0.007291881199500857
-0.023047520238814182
0.0077707054290829716
0.05936906736397522
0.10133397426883652
0.0068664540928582915
-0.03270668188771431
0.02180631970685039
0.009884914372310033
0.020794234356117967
0.009535566523007072
-0.03209673306864806
0.034297751750571794
0.016298368025033514
-0.04036058855655653
0.02743685704868594
-0.022236679504342206
0.019766176860710118
-0.022996521994041036
-0.023411552945962314
-0.014297497847104625
-0.0066770974229201155
-0.00869990651129109
0.015987817455951552
-0.04497428070437858
-0.004273196393306573
-0.000158607146205993
0.025776843243926588
0.019528686948529068
0.009477018537623737
0.019806494905913317
0.012657075566969983
0.007397003980295956
-0.0653304015391783
-0.011527786496759871
0.008308241118267857
0.020098551216819836
-0.04582137720699656
-0.009705985111219848
0.002754448700121602
0.007544510952110278
-0.0034246734690376347
-0.008982387152739553
0.008770581741562953
-0.024363890092968084
0.030682836205251734
-0.00669195276179338
-0.000607274347396736
-0.009378214910598785
0.005048500362871647
0.008853427832798999
0.013373611655868277
0.009717904159727725
0.006885900803652533
-0.0356097744828046
-0.0028749542248591
-0.0019552400643958285
0.13184923699432138
0.1031196205109666
0.04244243776967284
-0.0467487602060489
-0.2533771726796922
-0.02298241405039507
-0.009616156511762772
0.012549504226121255
0.002941377653518136
-0.0018877110447822298
0.02748693160697529
0.06368038914443025
0.00316325244082563
-0.012417014062998484
-0.009523991732135114
-0.03370115791515324
-0.02103066248832261
0.01654560565975885
0.022355900755855133
0.03182582348361552
-0.02942290799403478
-0.013539144886673848
0.03193802945811827
0.0148604025102943
0.00020254146898390888
0.007807495787756508
0.037970740197670425
0.024796549702656302
-0.03697761391926265
0.004363926732498648
0.01176952843807009
-0.026435675786410342
-0.004438905056676162
-0.008433398602824613
-0.07464196902585159
-0.031384724256484156
0.002696902376334887
-0.021209579975395573
-0.006802052770118136
-0.027043480128601402
-0.026411546968907455
-0.011152658147139049
0.08846924560199125
0.043071369472389445
0.004625027278359496
-0.0012296516176499544
0.02356549915307144
-0.05593767024991966
-0.14415833725486904
0.022475994483274482
0.0007071727226504874
0.1033113081459777
0.06053570533006354
0.018669559881418177
0.11210470951872004
0.06123118824678476
-0.08258399341520785
0.016635397784520473
-0.04255577065978456
0.015171823802815546
0.02111780337810551
-0.015832176855232083
-0.04202832933243551
-0.030955510596339685
0.004338996599567658
-0.017191057003845968
0.01269114721898855
-0.05945564775703689
-0.021381818039329037
-0.015945799571201107
-0.030416607586239566
-0.018835666061682497
-0.009894078526801018
0.012041330334810692
0.12368472225534044
0.047293882029100336
-0.024116807406278622
-0.027297270126903642
-0.0651154874493349
-0.07591475484926662
0.02717930166194431
0.006815659226718843
-0.02601869902302986
-0.02717835007008212
0.02876125948736965
-0.0008010431877947281
-0.06510889533500089
-0.016725423632219925
-0.012282414869180813
0.091383077836452
-0.032312062235116894
-0.039967423127068406
0.006607716560801236
0.009990415339457638
0.007506508685523256
-0.008022737357551582
0.10238404490241672
0.03823750669887604
0.04365548392877574
-0.06547485999234255
0.014412870753450996
-0.04171811102955679
0.06686849846985324
0.24509870564693673
-0.013022067758681161
-0.0319794175021394
-0.02057113462426343
0.008742254419610032
-0.03632635566408778
-0.02561876511501475
0.01574778961718861
-0.009554594864562295
-0.044889861834622034
-0.035649752218774346
0.14897482448350557
0.06930173902771876
-0.06602731356186364
0.008868647752806982
-0.016231372808278795
-0.0019030371150027218
-0.0005565835119469305
0.02367718110597076
-0.03235573179663438
0.02836574327323278
0.007185950814641093
-0.044294405547579935
-0.001158126818005113
0.00328050913100799
-0.0044802583687021886
-0.003632265229020239
-0.015657281945215713
-0.026778277149364347
-0.012786808283907197
0.02681433234527079
-0.016710384359793207
-0.019106922874514258
0.027901102217342898
0.007116522652144243
-0.008195438870540521
-0.03435023598336948
-0.046114147346819734
-0.08186408669642367
0.049427506087049176
-0.09224703047958581
-0.04715949435559124
0.03627781257098456
0.02782397545330975
0.01900519079829365
0.008747571904558169
-0.016193816527958264
0.0046557995665107805
0.021508497512409516
-0.006887768875878705
-0.010862900756697335
0.03302061331240345
-0.005713676237280148
0.058755288606151715
-0.001068461813219436
-0.04516278958067488
0.04638982315758246
0.02328113123500537
0.030689304792732526
