0
0.03585816953706212
-0.01797609019517014
-0.015227837419142609
0.007305258611777972
0.009894161977456845
-0.033920361197302504
0.009253805966086685
0.0028918692298751437
0.010017091216554872
0.026716522091455176
0.021461321162477894
-0.007595271714000748
-0.04996360559594617
0.03662670424359078
-0.04871886443477809
-0.014020704566588743
0.004192286925993454
-0.007672147899525662
0.009751846531000133
0.01048384713098309
-0.027602307334032225
0.007642773344760817
0.057590681777964496
0.09680741661369932
0.055605125152612886
0.06512834012405942
-0.011096378283877658
0.018430522997189152
-0.004898916646205009
1.5587653807062324e-05
0.0062958114935089925
0.05913394649987049
0.03289149222246678
0.04383811274619445
-0.009248500186017623
-0.07599789246085197
-0.07925927751580059
-0.014901956247026036
0.006311396576331898
0.006042996990824632
-0.2428996633105507
-0.12909151706805855
-0.0007023735248595734
0.03711493285994753
0.051264395614542525
-0.018098997650948953
-0.09631498002317522
-0.059082822622282434
0.07324352655429245
0.1103887518488332
0.0476896625142345
-0.008435719170970395
-0.02986571440038963
-0.03720647815598462
0.012016772544139099
0.010938768979992238
-0.017369528255476933
-0.05161844094665402
0.023928552945762363
-0.03295312745568606
-0.004458852161364103
-0.026243936826727647
-0.022821351661842994
0.028556126814519085
0.10269195278682176
-0.013613615637633185
0.000990296528062719
-0.034078819907562216
-0.0035796523857218087
-0.015993617766136697
-0.01013768788915608
0.036750343651515166
-0.017791534122844205
-0.024321472749196285
-0.009333032080310558
-0.02926030379980295
-0.017583569637019417
0.01124939066786467
0.018376563793620192
0.05120164998368685
0.09543011178470484
0.015064358781749073
0.07123368745779263
-0.04775412874365884
-0.08776064229207602
0.13548211860858544
-0.039987133840643604
-0.015417751451789093
-0.023251665410455494
0.03308797167993482
-0.019041276726679386
0.019748108285117194
0.11193008408049837
0.00038406094850432237
-0.001681306110137573
0.0025534745436628535
0.026277486739725204
-0.029427991598311578
-0.016624373249148408
-0.009713324152297129
-0.009984336344747784
-0.003992021450240215
0.011286839713131847
-0.009025868619149145
-0.02791137445492294
-0.027429403848226796
-0.0001368783600356329
-0.0150109781455088
0.01886188471351542
-0.008766435529409226
-0.023877698369152812
-0.04444618753803304
0.09785396687191979
-0.05032601007319182
-0.20600361793981967
0.04623226962628325
-0.03146722987499081
0.16471868430769532
0.06138833026175324
0.02511521432372626
0.02073527080295027
-0.10179440464522592
0.06946898420516001
0.01895193733062432
0.009438093882786946
0.017699240782168196
0.0008603068207511141
0.0031883062131668376
0.011180591586865806
-0.006017649540333251
-0.003523742548634158
-0.034771265900403935
0.004977544831971535
0.02426784234602681
0.04887380232065273
0.018411342329618063
-0.027536479062038734
-0.031133301378819908
-0.04348654800446101
-0.011311416556685563
0.0391678720617673
-0.03291389715344093
-0.05784179971569172
-0.013958042175556242
-0.017229688113052605
0.029547182449675347
-0.014052744961405305
-0.025620319975852228
-0.011687236726758305
-0.02761636419994192
0.002083939328105699
0.07102657811447924
0.026691509645655736
0.035494603930065705
-0.003168264437112516
-0.01955249937685232
0.007951011987016983
-0.031828206804367806
-0.013720792964979793
-0.0005393323978133317
0.017085485440275966
-0.007570889489560649
0.03068462281351504
-0.015617929840258915
0.0039074290892212775
-0.00022160924215708074
0.004780445174606063
0.018620732483808543
-0.02436432671008134
-0.01691672125811359
0.03830564838489661
0.006597625685968041
0.0024379087212692426
-0.010053142906725406
0.007143639724492612
-0.025156628514982543
-0.002514099286566354
-0.014930819334618636
0.03254724042987047
0.018841959466756143
-0.007534099517297634
-0.07241414235956291
-0.04480167114425225
-0.007394782233503913
-0.016740429189140912
-0.015145767153714303
0.008793790485072579
0.06316625768472678
0.042682175470456156
0.0017362485360100314
-0.053713770187842444
-0.02081608974487883
0.00670739237423375
-0.053429886688169254
0.0797038074941466
-0.021262906413037734
0.05465854796385976
0.010769645880106761
-0.011002038696355172
0.0006649507408157758
-0.028413364603754907
0.03352240067424247
-0.006427670962670468
-0.009755543218835984
0.0018222756690898286
-0.01974051700687711
-0.02239236510805057
-0.004685578519144551
0.09203155061499717
0.03769053836484423
-0.07199580834455793
-0.04134676534827283
0.006964069809894483
-0.041356673680802494
-0.007604179535308128
-0.02888844578675228
0.016851877471551473
0.08239705175245347
-0.02358457276995063
-0.07989816681180259
0.018660557376492345
0.011196847911736372
0.06356799345446089
-0.09126745026541917
-0.1113359475594076
0.04683694645973157
-0.005442300390697925
-0.032461936693157334
-0.013236466866058854
-0.007966328899693183
0.017839326586080586
0.04532097789740205
0.0019494414348995399
0.16534556698997935
-0.011467436005876207
-0.13853123825298497
0.054309447063683215
0.15737037919617133
0.12401997110441101
0.03148104931474106
-0.031124763328246492
0.013719912837826202
0.04671889244055648
-0.07517630440306705
-0.013253866399407505
0.006855267999047026
0.04032185961753074
-0.007385600602770466
0.011091544270663603
0.01582828960511633
-0.03224272517791804
-0.032513425611494395
-0.011345018706885167
0.01762506562982463
-0.03585796751158035
-0.015921896104599067
-0.030093057676895005
0.009513834580262738
-0.011110573331392095
0.1485988510694594
0.009159363673363851
-0.17407623026910118
0.03157508992894214
0.049717726812191304
-0.13002602059009344
-0.03887092200716525
-0.014476667141913433
0.06147927389480078
0.13644287787288073
-0.009205819927960292
-0.011568729983611943
-0.0641984982118408
-0.0016040473047015946
0.005082172036295564
-0.024419995115587213
0.008781629658137403
0.03986716126098097
-0.04688573931377323
0.010748136656270401
-0.042087306494257494
0.006250176905491136
0.007483729730614609
0.037625235685062514
-0.055191009726953046
0.01125181816676266
0.0034516528100857436
-0.0025750404455897255
-0.11867246919856646
-0.03425876299621706
0.049388880455433604
0.024024448233786782
0.02551074268748622
-0.00294324939428545
0.0004063688502682859
-0.11365280646411603
0.022260699606504678
-0.07116293424110527
-0.057427736447854524
0.10454018977529207
0.023354938845229194
-0.02933466532244646
-0.09097872844454921
-0.013160086852319338
-0.019982433691068113
-0.017453557046677164
-0.011962619148244005
0.11785313234432165
0.04508735674611084
0.02010122790333388
0.06169349709116546
-0.034356581980749284
-0.04347889294243952
-0.012344814798045145
0.06437958360872337
0.09704235818939014
0.005739892659290488
0.030943219967507794
0.02231952233084313
0.03216311489727578
-0.01691338961769153
-0.0017250315967206294
-0.03481106555026447
-0.0007147913953039158
0.022317439861634973
0.05279920901332513
-0.001904177849903054
-0.00733178185726612
-0.024018910030848703
-0.03316039631387611
0.014314752763938055
0.04020296596155386
0.09677227511674097
0.002966491272937243
0.04106165026233411
-0.020740036241406596
-0.20319015441591953
-0.013139444461489945
-0.03450486956876921
0.02221882332755419
0.013346473702701256
-0.08196829006054027
-0.008835120789047506
0.04097236511439795
-0.0090388615157934
0.01891586280267505
-0.043009572287157974
-0.02782074601885332
0.0018222624973994917
0.05373855428544135
0.04601837639182008
0.05775653214980486
-0.0010238252023934973
-0.0240025549379996
-0.0010227734974153446
-0.014451212523451126
0.0063867092918577385
-0.03084008388639484
-0.01652030878358673
0.01665376783615581
0.004533467046370844
-0.012410758087726535
9.360974779288274e-05
-0.03389885335967707
0.04434982932706037
0.09026255294126355
-0.037431301663907283
0.012941499153327296
-0.025543268320127693
0.029768411229064463
-0.07267476106864423
-0.15521053740165378
-0.0019435077735726275
0.054315936641766836
0.06776003392137898
0.04770294488638928
-0.043372419117137594
0.004965042624338571
0.023785237994028208
0.0902919113059836
-0.016902345049570628
-0.06811551722057885
0.02500043590812108
0.016855233197869524
-0.0012202714813893732
0.013368269429667706
-0.007397916900255714
-0.02748242218494415
-0.011092260550924833
-0.01008844739197959
0.018881366615853636
-0.025246876671832525
0.007777507506511641
-0.05882963642621305
-0.03842075636124638
0.020825439712481353
-0.02017615950936588
0.005289938201591744
0.011987905548152633
0.023126765904762286
0.07175212117889358
0.039121711186759375
-0.028902994529516373
0.013106478865360711
-0.04728653793331866
-0.009401358504172053
0.019379066158317988
0.014842363163280456
-0.03245214886048525
-0.06221460951290503
-0.036566225837049104
-0.017166193702653623
-0.0353323712646401
0.029212686278231443
0.07076302078709011
0.023916061313108913
0.027940290313037797
-0.012098218332367114
-0.004929644370947991
0.0027647370627923553
-0.016404355444408873
0.01695369756465604
0.05421742703479222
0.04365784937030918
-0.002725798994762731
-0.026611714185470967
0.19900331122465006
0.0684159786205715
-0.05230137364018705
-0.02759288017545991
-0.024281993274196872
0.00020706808342104007
0.0073005735739596475
0.1816454387877305
-0.1733170066316523
-0.26735340901383947
0.008284274698597742
0.06597447088766467
-0.007576298285758278
-0.023886793118543928
-0.07492560381300341
-0.006703198996899891
0.08426890428122034
-0.009509276926412026
-0.05698813241481952
0.007722430719341083
0.012062175475041167
0.012313938861712106
-0.024016705651995335
0.002209412750372749
0.003068782772347953
-0.013100718977585139
-0.012874004399346379
0.009948750486788158
-0.020262839927067604
0.012164859312012376
0.03723507471034946
-0.10576775666606986
-0.09340950670140938
-0.004752922811080963
-0.03891362865515599
0.0026716938622353744
0.008987820559425246
0.22944065572672528
0.053708183032088644
-0.011399816667559348
-0.008709443424717559
0.03606470212379528
0.0427583195222686
-0.006094758017088364
0.004741283551442111
-0.015398173784867028
0.018126235207036136
-0.016949241650224413
-0.016181041925616674
-0.009624322457565032
-0.02088601524719215
-0.07022985528583134
-0.018184710945773695
0.0015598738734327682
0.040443678434744404
0.012986447347191675
-0.011734433247410797
-0.0049018436811468944
-0.0018833417137564244
-0.010713253935932953
0.009916059268519349
0.046111254023027994
0.011735883190484709
-0.02672995909733303
0.00012277467960319962
2.184891217964199e-05
0.005666240240330075
0.012210217392095522
0.03791604106820179
0.07079898278415797
-0.04854868608129012
-0.08597841758711054
0.034567126416542325
-0.00731863038582648
0.06280197490255267
0.04090536892781562
-0.005302161098653267
0.013029434604645418
0.04206446942375191
0.015035799995824332
-0.022553936302441457
-0.005821056544571948
-0.020208573774810296
-0.02342107852504694
-0.04267824692994793
-0.03609531745503769
-0.01673355441695755
-0.0022849813731202965
-0.0025925688415534957
-0.023217783637366013
-0.004653639501394448
-0.002077440741014019
0.029586383398463745
0.0394413304200998
-0.003213850393749388
0.0053828936250217676
-0.0016341918889424426
0.002209295321267573
-0.02206728879689841
0.001773410211829155
-0.027214945012466452
-0.03131468887989372
0.017718435508479263
0.021038685438780236
0.0037292351483510598
-0.01125595551087102
0.012222184607814386
-0.09699819765999249
0.0018890009847759679
-0.0185211314449454
0.09033188494439656
0.08130700336774198
-0.07000582273558033
0.00854942917046265
0.006926217693654917
0.009771803238745297
-0.024096145631182956
-0.008961653634830175
-0.008787773152340089
0.012491952524961698
0.06342256476478471
-0.010416237591365228
0.02547398227750946
0.010778505805575413
-0.01100535580367068
-0.038526846301771694
0.10590138423783933
0.07067653595547312
-0.044023720929650866
-0.03746986884642632
-0.06479937615396869
0.03716655255310783
-0.09826818274225185
-0.02642655958803645
-0.0036273730850347454
-0.05033454307616771
-0.012477461479213534
-0.01394385389076231
-0.010119782408813444
0.002944998757414219
-0.0018719346868905787
0.027353377874266716
-0.02867931291587654
0.0028805830239895594
0.01086157199734295
0.00416832158399738
-0.003429764346663394
0.0036593459524608012
-0.008874285335360776
0.07055923381082889
0.016419404240850408
-0.012117521795775812
-0.005420816906894103
0.034790584563275107
-0.028246805286827444
-0.000874282842244309
0.06352789255995393
0.017151134496291527
0.015515940212675805
0.04343922644112308
-0.0436222778044477
-0.052987189666172205
0.02700417358578528
-0.019990814523902597
0.011117807266739934
0.005645069102274141
-0.04373274511790113
0.04865665077989003
-0.04494667290181128
-0.09757421408631357
0.011210095460114734
0.0009121224416307822
0.05987753182507112
0.04030319954139065
0.005446083065292552
-0.035820701874362114
0.016519105776069933
-0.0010649432457761562
-0.018285774354028714
0.029821582431507322
0.029475371550222472
-0.08946576371764736
-0.04292556122215396
-0.01675925173538657
-0.043788922632591154
0.02933538834530946
-0.011133235276366988
-0.031031594896959114
-0.04179660650260213
0.003963190172079385
-0.02561075819194788
0.06686683547326384
0.038412033544862126
-0.049776713723034695
-0.001977057485067712
0.13098409609003023
0.005231898909429137
-0.06230229532785393
0.0026637270448637805
-0.009011168991063908
0.049568392505039006
0.050039778019082964
0.1640078304881371
0.2230365494457671
-0.06751649183548299
-0.056022105388099167
0.04488980757054595
0.0017486323260576225
-0.040740487650245585
-0.06320487395097048
0.01869011810851773
-0.055913728826563376
0.10263443678332136
0.08857601965665209
-0.022777167843055054
0.01604924160776871
0.03712008720549006
-0.29181166585266066
-0.1628194302453714
0.0659099347683286
-0.039699323552149175
0.0073283304659357024
-0.04782586030886562
0.037934092134067926
-0.022091193100543065
0.08637942823628154
0.0848305289054165
-0.008009445207894633
-0.009074625819189174
-0.00924564736663753
0.004436858498246627
-0.03881569730802892
-0.03167322162302514
0.008097936851946647
-0.02917800846502413
-0.002942637189512635
0.011582051865460996
0.004503424515876893
-0.026793950094473357
-0.113897764106457
0.011259333367434591
0.04441880858932353
-0.009238840023243404
0.030898643111549256
-0.038132321323742085
0.003285593184944892
0.029712909233249686
0.035111923888202876
-0.001759915960284407
0.017139505315681643
-0.021297329023367735
-0.0026458224866137336
0.02420385533119972
-0.00597687596296629
-0.04201287851243087
-0.002424496009101983
-0.0035808634278905534
0.020610846743411577
-0.022694410927996376
-0.0005439259081240034
-0.025802456465447054
0.010666671439011953
0.029178440733125005
0.017213383686336032
0.007099560862454792
-0.01681667401895633
-0.0018963085581330562
0.03595162314315949
-0.03779897120203304
0.030886932116290296
0.09182447363927143
-0.039040872096783294
-0.038973829980701015
0.007323846977054657
-0.01878127930342431
0.03542279225567635
-0.03544127986405285
0.07792964507293998
0.14663565827527128
0.015497095224608425
0.008931645341051755
-0.008054628047692379
-0.004098740883002185
0.014336333996152016
0.027116751382690808
0.018233884542409404
-0.08213245043791464
-0.04841440434540566
-0.0023975202579977232
-0.12162046835944428
-0.04811577268522977
-0.009775326319453322
-0.025325276263329154
-0.027056670783056104
-0.020134781484904125
-0.008564859801025462
0.008282963558538286
0.04602457528916104
-0.05458408479086309
0.00470995891295675
0.0006257992326991644
0.014648955973950608
-0.006888702272143474
0.02587721671213057
-0.0259897215400157
0.017318942415886898
-0.039462065371406535
-0.04408058705405196
-0.0224615211733882
0.09993365854705458
0.003042083649216202
0.10546566719120264
0.14873588692617695
-0.11175231103307648
0.003283092149126219
-0.028264562650685162
-0.022291092473412086
-0.03041222387466835
0.03755641468659474
-0.006151223569567553
-0.0358691412957411
-0.03717450531741753
0.010264232855207722
0.0013038656764147636
0.012383484613201344
0.010085662519098456
-0.05266019819811629
-0.09084275151740644
0.017425607555687176
0.04899141162109055
0.053758434017577725
-0.013203830239228637
-0.028241255547626003
0.03932060555027954
0.10442172708926376
-0.021183661576728394
-0.03045987412537886
-0.03007428646509989
-0.072381938983637
0.05828310443963864
0.23794056218621
-0.018824134652667718
-0.052020090057310044
0.008388701720908142
-0.000979347312055501
-0.011173461654451714
0.012072296257497785
-0.019228819667721487
-0.004293288714074472
0.14952486962291878
0.04742131879080965
-0.02902670002601284
-0.02124101231186722
-0.011124226408628509
-0.0588824642456641
-0.055532234728037005
-0.0413615729051315
-0.00994113392052972
0.01947497209876425
-0.02368367420692542
-0.060129632804697436
-0.027179212344815802
0.024784509932171583
0.17945336448194285
0.0896928785509095
-0.10381478174841614
-0.15847834866347493
-0.000792330100401904
-0.043275324382888766
0.023393444330246493
-0.0003291759319210758
-0.011392281158033875
-0.017144902630702775
0.025755136927197726
0.1242676849630183
-0.03808822565508738
-0.07283200224898133
0.009990148093392173
-0.029332499028913345
-0.014120668767474438
0.021983991708609246
0.0042173099124390954
-0.048516746115343616
0.01135844328753354
0.025213668736855537
-0.00786010743248919
-0.02139490317748952
0.0003073010617767265
-0.0247591733318592
-0.0009870943614554118
0.03777911162916688
0.04066157650315388
-0.0003345769426014348
0.03515906787629387
-0.26530395881786656
-0.05652769695703048
0.08068880126052463
-0.03485624282537031
0.016251584228970332
0.00916801830937621
0.012598167147983801
0.0821353949034011
0.0445164050756674
0.042339588230718844
0.12406796547780231
-0.01932011278550722
0.015531876915547162
-0.017960184792105472
-0.033433422576760914
-0.0478213230529976
0.02755671547086209
-0.001366376389014134
0.07480085456514161
0.07934708096288742
0.018101313385707543
-0.15012718234311914
-0.04482887419795613
0.04189608370620732
-0.02657097425222493
-0.007955788851669941
0.0019613772259364022
0.007499584346130248
0.024950221041584522
0.05433874109074034
-0.0132337973132645
-0.0003012342247574051
0.006468363552428998
0.008894018854542421
-0.029334295104560527
-0.011673184290764825
-0.028697117352089796
-0.009470558677231634
0.0028593692835147556
-0.0139030922811389
-0.03662110907655419
0.003272603937815775
0.014986898903455765
0.011999087203946627
-0.0770236266323388
0.009396139411306882
-0.014087088437348084
0.0015711382498123263
-0.001092657102046663
0.018959895256898715
-0.047395505000174865
0.01910747764739939
0.08714394589072627
-0.035625856359149596
0.05823704919237971
0.031035568987644757
-0.03417201119675787
-0.0450210565175757
0.03334253049133868
0.013424390884750784
-0.009127703082453007
0.0008698532995455877
-0.005728842397657418
0.006455686465225041
0.007344121564341334
-0.008089255512717644
0.02324662280287584
0.017736097551085492
0.011556122863427368
-0.14851066107964359
-0.057144934565182874
0.018698660774709792
-0.056052084334446674
0.013463842990935608
0.10919429924073443
0.03387711879696909
0.013626762033551619
0.013330598867137436
-0.039750530629383725
0.046321389730382266
0.02829335921143542
-0.011445645199191525
-0.017232794042228956
-0.027107441493169154
0.0995468062347748
0.014986995569158093
0.00723826608710908
0.04161510628873381
-0.07781319924077904
-0.003309211377592927
0.017657786099901124
-0.002870466906654869
-0.016986821823326247
0.021716758988567425
0.017305425394201823
-0.009567759459399718
-0.015325365515049646
0.021755220538275742
0.02080840481403932
-0.013227888475106522
-0.0313068191543167
0.0004995761792410088
-0.0165025977211529
-0.05270589948367433
-0.010973096387731368
-0.01869596762568841
-0.034915307071463404
-0.02248486886058115
-0.020360245761931444
-0.0034093323601599923
0.0017246671513846369
0.018324932790086495
-0.01713727403038019
0.15362968701683358
0.1300529854624858
0.02986695052810607
0.027759493677902387
0.004434927966037753
-0.0039221944368022284
0.004827359135729347
0.007187486975282602
-0.02327995237556762
-0.21339005811675593
-0.07138784001181123
0.07585932409352228
0.0038781075668119095
-0.024181300835897392
-0.09846414661438443
-0.015771035032479626
-0.02337168156971313
0.04179891977792719
-0.03398353667363265
-0.0005700739237279997
-0.01914669729131896
0.013567849914509555
-0.014818401071532521
0.012012579646830243
0.05640544726190415
0.022675165358578428
0.007088783145184751
-0.019912841337480197
0.0887712390541665
0.13106111532403675
-0.07586378883692718
-0.017372228309161176
-0.01612720118494044
-0.011531009579886318
-0.007881962726857816
0.006264116834520494
0.028243392707211153
0.009571680836831669
0.007269437335273394
0.030859685839835043
-0.01478034805819022
0.006412111215605062
0.024017357566433143
0.0021359583415146324
0.040625639537082904
-0.012221251598170049
-0.025900130131398604
-0.03685582242942058
-0.04281091559303239
-0.004406136905563938
0.024622053131930402
0.0005140402432495523
0.01851375356677244
0.039487755366201395
-0.004420405148235942
-0.04726346867686647
-0.005748455666150363
0.026150455056343475
0.15769005591061774
-0.0199205415223201
0.04237915349279274
-0.2106253249122365
-0.13360008224773803
0.09036614325206296
-0.04495049048347409
0.03475891851414773
-0.021085899603875764
0.0016278917237352584
-0.039131333265884104
-0.022789945794811906
-0.02119231764673496
-0.001437022389598737
-0.03957642060010056
-0.020811810860921896
-0.018020357706974296
-0.021518970177733646
-0.04471847712766188
0.01857102133757749
-0.03586067375697935
0.04915612611468917
-0.003788286398953146
0.02531851868168951
-0.010692983689106532
0.012112398613583361
0.007443530542826886
-0.0023913887876733726
0.0034322295025711737
-0.022008258063395226
-0.021467713600877465
0.13790173461210192
0.05359345577093249
-0.02329132772915607
0.01721748558206332
0.04841211967374913
0.01580469397372049
0.049014655467027775
0.043832073032452915
-0.014083783541795935
0.020375824889082822
0.0018105103604905387
-0.01841431150745238
-0.01893621992813214
-0.012017489373776858
-0.022630821912827816
0.021703534150073863
-0.018766531202309568
-0.002904248361160958
0.11975176104356312
-0.021391903295049607
-0.029651024053636926
-0.007519495438936409
0.035150702206563814
0.11677284778946229
0.034428430871737116
-0.14591171333993352
-0.026904922333763317
-0.0035402844270898425
0.004612177916350158
-0.0061962713916950095
0.035902712502731034
0.009312180773683638
-0.046499666144077675
-0.03908163682135041
-0.02373330433915351
-0.03694070206687789
0.07148278831113218
0.037365860628275745
0.00825429173927972
0.010857061643813755
-0.09709905311402889
-0.14264552883705242
-0.17962409085564846
0.014459323840154642
-0.00651611125140757
-0.0124427955546229
0.005835065404194083
-0.026922372729611427
0.060414319714543356
0.24190616912361296
-0.003355783207955211
-0.02813094843158694
0.009527694528429748
0.025556021066411264
-0.006626005874272168
-0.006691952711052319
-0.015827216494189944
-0.02870845795904755
0.05241639675214615
0.046752500154464985
0.10169891674330124
-0.013140953990514072
-0.01712167197660114
0.002308661962311032
-0.04921244795064001
-0.055031253345068754
0.06787919099818439
0.02451572571810285
-0.04266621499549852
0.02106052985930572
0.00608625911730422
-0.004369871090034795
-0.04300314285005175
-0.03610776366915974
0.03921878259005985
-0.0063529952389006356
0.01894544070981165
0.04809774640091512
-0.113693747592407
0.04167569678909204
0.12624806032577296
-0.09685671477829494
-0.05927836875925759
0.0027070668140688624
-0.04288853592680865
-0.10876055816891086
-0.023853715250689026
-0.013585730317299064
0.03057067335387664
-0.034408914818292904
0.136399680856159
0.013746176520766675
-0.05125714372715771
0.05616645429938239
-0.028470647063541073
-0.06000736616470419
-0.025757688211669547
-0.024217899558849055
-0.010845472827193203
-0.01937169238867925
0.022205797281796846
-0.02254723842806405
0.20211552633925445
0.10161352172708421
-0.051067643287755975
0.023113722729922632
0.07624128683847105
0.06190020375000325
-0.038650768762566054
-0.01991409929394137
0.044741512552351204
0.011223325318109654
-0.03518251727567441
-0.018164647649443935
-0.011982330297201116
0.001622135562471839
-0.036879431232068674
0.00926994052477408
-0.04686753226055546
-0.05186057754887157
-0.028727446807145344
-0.03726815762487707
0.005077046251698834
-0.018857692833426722
-0.04318109332941173
-0.021622042744713774
-0.0062851216494858135
0.012946328568620711
-0.010536248029837722
-0.03234412637713604
-0.02095389376790758
-0.022683880968639398
-0.005071402621559907
-0.034302250349657844
0.011584715976252087
-0.05487280284117579
0.10499741022721612
0.1934850368548252
-0.22523138742114876
-0.008940524373938816
0.04489081079957412
0.059391768873902906
0.17399648247017482
0.06943414576919969
-0.05407233959203937
-0.04019307538985131
-0.002590925772135546
0.006050449218096982
0.019517673261906163
0.04424708056754443
-0.03844169755497577
0.036116789563754866
0.08537811895389742
-0.021373723878358362
0.03613210457254414
-0.0013665282246005854
-0.0010980990842049624
-0.04533273140442116
-0.055952645472400794
0.01023611969958781
-0.02083005712099198
-0.025638948390039745
0.013448282740799613
-0.007309906368449373
-0.00416054808310978
0.01815841516346846
0.013525006473842189
-0.019972414347548307
0.07483697032529223
0.13335443147943457
-0.025089680327313967
-0.05622957047832826
-0.011198153655343268
-0.001725698118974039
-0.03178133672440515
-0.05888472870199687
0.015056834510712982
-0.07130233095848862
0.02121487810310929
0.03185419235245745
-0.0036735017296718885
0.02433288226550761
0.016579173740141118
-0.06315743177147157
-0.006269450844686949
-0.02209928725785657
0.050564329924220615
-0.23386768419334983
-0.05293399410973411
0.05173231278842099
-0.0381714165244999
-0.0062105953675779466
0.0033036323961878164
0.006951227600167549
0.0010643251117027238
0.043206885389373985
0.011082457324034617
0.009927370493948217
0.02265037949658951
0.03068412279376801
-0.0001447160908013309
-0.03130322160645493
-0.009175870369172695
0.09099564888811336
0.11229847664782501
-0.04020710632929788
0.0029267451101015972
-0.025312525750135116
-0.022650180539114703
0.02106065448159711
-0.011757343154025232
-0.0380847790518689
0.001938491874734605
-0.011623815133970324
0.062339319215811845
0.013919394477847348
-0.003380260929071584
-0.03669666437294579
-0.12339142275084235
0.04524683058227332
-0.06538303435875231
-0.04946002027140544
0.005248401060181073
0.14641109205587896
0.10126119483889054
-0.06782270400843762
-0.04496615782969945
0.04087602671836141
-0.034022409741735954
0.025540893127215546
-0.02166527649449285
-0.05841767138096237
0.06031406151721952
-0.02072120672647271
0.008737368282956058
0.012084751869239315
0.012089600977653474
0.0588190490932743
-0.033855447995591606
0.002140744329029701
0.028745117800210374
-0.0033411925961484316
0.020737715761972187
0.0414949626643601
-0.019710055955098445
0.01781018611384146
-0.04574764705378484
-0.05358538117100177
-0.031000612880774173
-0.057724956224338736
0.0325752911919058
-0.0045956884943606805
-0.00248547191284794
-0.04130774772521112
0.008117335599546622
0.1757880021401111
0.041923818592921734
-0.01898246963154695
-0.0067124620148965725
0.007185706399637602
-0.0053135700097634445
-0.0001811494417052519
-0.004808005962234377
-0.026451058976288626
-0.07417201053493343
-0.026142754256486354
-0.0280413226933735
0.008429565347619737
-0.03569039687216849
-0.0027004920767154474
0.07268829341069552
-0.06092248099670416
0.015703402240937785
-0.011306333043499758
-0.03166195435979173
-0.03037557930834688
-0.015936201797116644
-0.0010790419307227597
0.03410361543840882
0.0973394176636128
-0.008007229408193076
-0.0003004392339790322
-0.02969286933367454
0.026593600756017768
0.14036798629622904
-0.03041443092750622
-0.006522153688787728
0.006453051782520791
-0.034229943191575615
-0.0368258466664326
-0.007979189904092028
-0.026493237516311614
-0.01172946354808405
0.05204733575515021
0.0007112641998393311
-0.024371688381076406
-0.017318398296206596
0.03237495024710164
0.12608452030122183
0.01574902810879077
0.019420236221450362
0.005402713854788368
-0.01109353432608312
-0.012790041261433127
-0.0026680551593389334
0.005989165050958404
0.042600080896644195
-0.024528592409368655
-0.030469767309256844
-0.04000447963209663
-0.00922325135678898
-0.01523221664215642
-0.004209247420883386
0.0041616827505631965
-0.04067979686897048
-0.023288533908022366
-0.013966387471460777
-0.03861612370696592
0.007462029518110965
0.006609084759498522
-0.04837429005421668
-0.031657945940786476
0.06623107626214828
0.03331168577047598
-0.029311032975590425
0.07344365887210338
0.01416887925684015
-0.0033065906580013607
-0.00022824808387694097
-0.0019834825505110998
-0.006856642385713283
-0.02097769637057666
-0.04154898051220413
-0.022589153944885136
0.00966644159845395
0.010069114115635925
-0.042617301834082924
-0.035062077873407996
0.023723937591662934
0.015991296481144904
-0.009456890769050718
-0.033782349380173826
-0.07532071951812874
0.01581925803935509
0.10746626947690394
0.09664233411055088
0.11349340150807549
-0.042236010663176775
0.03403179471644485
-0.062010877869385646
-0.09611024961602198
0.03265726641151305
0.0010364659700109074
-0.03380352555215961
-0.06294443363394472
0.020883567792126516
0.014688886906149636
0.019760523671413344
-0.009581717751245568
0.02495815791049008
0.002289986534066522
-0.006642976451060315
0.015496226519272583
-0.039524036418975
-0.025244439706424416
0.030893484687876716
-0.01890906766409056
-0.015147066892956704
0.0686072090571689
0.06154659822612046
-0.07824581888441709
-0.013549109828950863
-0.003917881531642391
0.018729607230676404
-0.02769235050171386
0.08404671885323618
0.022996947178689733
-0.03139369849889285
-0.0057711768244141474
0.005246985275957136
-0.006751220817737697
0.005627531806458823
0.011668467373536152
-0.02965287935433206
-0.0489930488888073
0.00820887126547737
-0.05859322724697095
0.08825331599350429
0.07130367663539076
-0.005371980042636724
0.02828030989518567
0.024260897473484755
0.029234225390309485
-0.008603121493548313
-0.006811255632726003
0.001764470248840836
0.06322072850956083
0.04393952443567027
-0.008573662708690167
0.10373579298420656
-0.12136471944632644
-0.1902026143281648
0.05605505403751427
0.012131126732676153
0.024136491844448337
-0.12384847752204657
-0.027335363507092637
-0.005619967820572022
-0.001320165769373043
0.038836293419475636
0.06054938742514926
-0.061864260657607216
-0.10459562994933712
0.033883398019834234
0.021131841264646244
0.0007787061355739971
-0.024015731278811004
0.0316994808746424
-0.0013762888194729294
0.028103870810590986
-0.005032122679193555
0.002354481232755791
0.019526557528102464
-0.0001963838266587052
0.002537605127394627
-0.01754167123324181
-0.008635578119832241
0.04921436827390501
0.00042015356690427666
0.028088455403783893
0.05661068690674904
-0.00638883422489067
-0.007693387705924319
-0.036665338562998535
-0.013887171905859638
0.03970904843678945
0.010410784763775417
0.050280921779787435
-0.034822275186204434
-0.027290368732443643
-0.14481322094269652
-0.08181915253132968
0.01737965539819656
-0.13016375261124083
-0.014235205797084758
-0.03808426120585305
-0.0323242997502867
-0.0328203294852068
0.01821762887814566
-0.03838255631386985
0.16347497123328558
0.08459649754410688
-0.051096992744408924
0.028256122454494905
0.037550003127200825
-0.014859995414120261
0.05648501627269625
0.004173186160610299
-0.012852527920897623
0.20916317022750996
8.76232760881663e-05
0.11159990661504351
-0.21279667112141099
0.024288531261959557
0.08261701457345098
0.008029711882545877
-0.014918956480683398
-0.013073179223388827
-0.010244735334471058
0.04094203849106475
0.03166705571327632
-0.006033872649257634
-0.03117829815231346
-0.016308318646395627
-0.011309780319476053
-0.11958595639821905
0.04325080516232809
0.020863068581471952
-0.02646137640314405
