0
-0.03389081818395583
0.0046498218087855136
0.004840443945600137
-0.016309753506675174
-0.022470912524443467
0.007554021688320813
-0.005634786096226132
0.04797853601137302
0.06564863206702151
-0.04119568536198806
0.006360251607258677
0.002624972591359243
0.013811532366592515
0.02193159883929604
-0.008412664941293247
-0.006162673009567428
0.005208528366968729
0.008555105104289161
0.040298528422617635
0.001956483491905588
-0.006275743958849775
0.020323779705194802
0.010997670555706267
0.015610766260930123
-0.02085812706254253
-0.003680502703163116
-0.02256499516840871
-0.12351589031921961
0.005150939514315897
0.014198380139764403
-0.03384349853054668
0.005416287115690548
0.026779799382222334
-0.0052238074895607275
-0.01582935530342805
-0.03649914923808829
-0.08516765229990439
-0.02042532309617693
-0.012796196588764271
0.008544335796792353
0.004439447807170654
0.030237882601102644
0.032735181005801056
-0.014164334776370911
-0.0067482179477878984
-0.0005107583552699809
-0.0018049512234398727
0.04701487549881835
0.07964908924690538
-0.011937350634093319
-0.00794650565360656
0.021206410479788954
0.10262838450190485
-0.013479011497031106
0.019709036461993932
-0.03876174633191195
-0.020997994447904844
-0.010517166197952628
-0.012838387841821626
-0.0083753426694286
0.008848663884080723
-0.012440427282438136
-0.010452274811801618
-0.03672821396222045
0.12097082298553774
0.027949851995907854
-0.009809800582583003
-0.0043279432190402554
0.00915281792929462
-0.01679318030304345
-0.011887877146636248
-0.03587878975764157
0.02016370982214066
-0.01811732706414677
-0.09153679782214463
0.03757276543357791
-0.008957257752710699
0.03756728433940027
0.02677631967975557
-0.03581242108827829
-0.00450872456457326
-0.06267664804184656
-0.0056137873838689265
-0.027933881646086494
-0.019396044673218708
-0.0055261960904530475
-0.024684348959516975
-0.015306912550079729
0.019227227344686283
0.0013903293902571513
0.009656278876491033
-0.012879968614817713
0.06594693050455099
0.026210622946417714
-0.07159137072083667
0.006122946388111283
-0.04612056808735993
0.007222350702226125
-0.01567715354898475
0.02019009315283842
-0.04803372658428023
-0.023618515264145983
-0.03557901457372232
-0.012412208274477433
-0.033691879278147936
0.12592470390580876
0.15769572609944235
-0.0390576199527257
0.0619489022107964
0.03218989583035439
0.006503936218622141
-0.03888754526982222
-0.0032483153641205864
-0.033264493181634915
0.04849380472191782
0.15162080642572406
-0.007917437318742677
-0.024129583043512794
-0.005362985276201252
-0.0064748283276256265
0.038069019843520874
0.007899726895468941
-0.0018408234581102191
-0.0027683994658695464
-0.042673321099877
-0.006098115087244994
-0.005754142294380496
-0.03550688687874567
0.013699091178626875
0.05271369973289273
-0.028671491966721436
0.031853056322470284
-0.028494304756017993
-0.12773633422384825
0.009755679837507561
-0.0032337462665898405
0.04492259024538027
-0.02160273742996764
-0.030761481365227692
-0.05459689197975792
0.019849248828104005
-0.054553826854716776
-0.015627474673665265
-0.011758641208067144
0.07509309349969509
0.24560909322644217
-0.0898729796572801
-0.04520899645982498
-0.030529286902258763
0.0023902645906957796
0.0077550537247836945
-0.002578095662053531
-0.02865654663812926
-0.021327314034426538
-0.025321256000929066
0.013077627945219448
-0.05060470714160851
-0.04837343403698013
0.02234749128839326
0.054228302838199544
-0.027850332645963878
-0.001015651899131378
-0.017236283627975843
-0.0443350677956916
0.014175177826969351
0.02563089525410629
0.014416042956765969
-0.02772020938243942
0.02195287142178761
0.17862280383787366
-0.0601607020589698
0.023103561820721003
-0.023218705680134198
0.02470380153506519
0.027672343673611127
0.011050686014249652
-0.02203011920952404
-0.009289150414541095
-0.035077917057841065
-0.01936267348975971
-0.0004583737113507451
0.004255235347255965
0.021120696223144254
0.013526642044438755
-0.048017616619395916
-0.008591161237669427
-0.009184023536952917
0.012309666243545679
-0.006650355533186323
0.01262044614495046
-0.009496073104046047
0.028468692738496608
0.015067583394184195
0.003457972097061795
-0.03993190722679554
0.01634178394355787
-0.03338257460084661
-0.031529043548787175
-0.04846994984738549
0.00037065419069688503
-0.04560353444412434
0.014524961941747383
-0.035362995648293684
0.05319706096959645
0.08445239695041394
-0.03782645153344632
-0.024294649465144258
-0.014229080560710202
-0.01592858249348308
0.003967527431831676
-0.00218577557466989
-0.028575218447751186
-0.029604772238867504
-0.029394048310106627
-0.0019365546987409295
0.012849220893922441
-0.0786605739508821
0.0947664907519926
0.24179141949798674
0.03128919307769778
0.007852310849542299
-0.04078109704961032
-0.018950604656680147
0.013995486609341155
0.008518248094236012
-0.022787921964455834
-0.02609383189604925
-0.002234494903884235
-0.003005854056642879
0.007550949954423997
-0.014392424378545984
0.01838439023217752
-0.029285553602674718
-0.01939608833678557
-0.017278931247916185
-0.022414534783282963
0.10351198283099138
0.03061626673317422
-0.05176017915627233
-0.0007944331126023376
-0.028036195340514585
-0.033915084800417356
-0.012520308508852234
0.029217674476704092
0.0003768291826800953
-0.010327785514755087
-0.010398493096003488
0.0013932947135051233
-0.03217317370726171
-0.012174376279078695
-0.04192358692253518
0.0010138959853853175
-0.05180885092706418
0.07566237435357011
0.15446812187872688
-0.009528654103466106
0.03851802343572109
0.06965490978731649
-0.02697832412744726
0.1315301880658702
0.15918448792783296
-0.01746459481437199
-0.040464253158559414
-0.023489696817961606
-0.026038699526039415
-0.18263618863298636
0.025943827335141757
-0.0033580703233113633
0.013135356557669389
-0.030259356959595095
-0.012103604326853038
-0.02537335995695143
0.046636084125640236
0.024024615378291876
-0.007850069179147925
-0.01279297616424141
-0.021662500566816956
0.00861789027905914
0.04435897226056749
-0.02342228440574027
-0.20158161014963316
0.00913461291879133
-0.0004628503850980326
0.04611869866749767
0.05045205900692234
-0.004076127326292458
-0.03769270400973292
0.05994387585178895
-0.0605257059731109
-0.20945662381878305
0.040391029230669256
0.04989191665731684
-0.011354891628608458
-0.012554583805041852
-0.022541775676087603
-0.020679867413086122
0.010456770277225517
-0.006512880006277383
-0.019877129969689232
-0.018130520038569048
-0.03240086921797402
0.0060151128800725005
-0.031889183905316636
0.01817075930406154
0.01884593369458208
0.01062836373165403
-0.01327742109082666
0.009229804709692048
0.14759852175240804
0.04378530160789806
-0.02200607756648918
-0.03877031230199344
-0.019811022481323156
0.04331193396736488
-0.003785142064274737
0.0007862741523566357
-0.028917806321411527
0.1096486841021492
0.10564519329809971
-0.024602425876195887
-0.00996980442888384
-0.02023919956414596
-0.015201241485567346
-0.03973543989293828
-0.0011565568973560339
0.1025385772677491
-0.03358574876526942
-0.028585622299879387
0.044546046058632195
-0.031589558331700546
-0.003957286041194452
0.0003304727867258078
0.04799484094007046
0.0006070305178342049
0.017102918662460803
-0.012930137529948363
-0.009200622668803156
-0.005634833863444305
0.02677743785957217
0.0071720123905181996
-0.001847761327584759
-0.024111684080804892
-0.03326992519280594
0.03158616672721876
0.015663650349120272
0.012799250308621874
0.004813894047957865
-0.12422713011719115
-0.13037404684860418
0.008797206299281279
-0.007389608725076327
-0.012927265990953715
0.0002706533198803176
0.06544493278715574
-0.043151522492347084
-0.009780423036100333
0.029714542118912106
0.0014351816478872827
-0.0034403481052834996
0.025891349675250662
-0.002034742275524004
-0.0016696200782322778
-0.014224717663375385
-0.011439540893189487
0.008247435837095928
0.011029893271070542
-0.018573856285638946
0.04347721644356685
0.053141296269094716
-0.005048680944832496
0.008378208725325326
-0.001927536078372384
-0.008105906040865597
0.0001704915701296626
0.024138598601894393
-0.007019082964215604
-0.019140251594849524
0.010381664925696884
-0.05936364728673105
0.13976879941857334
0.17309226915945347
-0.03991022155530877
-0.009307482864125515
-0.0057751766116132894
-0.02527140016645531
-0.0019009195855599831
0.02711066141180084
-0.026943268298194864
-0.049023077916683595
-0.05680166845896648
0.027274562831435402
8.381072760110345e-06
-0.052439713623420064
0.014022861991737781
0.022865740914625725
-0.03766558544939901
-0.042686484921921036
0.012674140230478831
-0.06237964527000357
-0.026709960486482012
-0.0029263155403010522
-0.0013138951803490996
-0.0320790823209197
-0.007176201904409647
-0.0012381019260783736
-5.90393340539917e-05
0.014693712613195952
0.011397662224691
0.0015235010453627923
-0.0031675567482540483
0.041372430737029814
0.042598795561636066
0.007110122663450128
0.010319982693858214
0.015699090708111603
-0.012148806020391777
-0.020299929737809207
0.015485133623237909
0.03800773356253054
0.021874623059140456
-0.013468788834868545
0.016963551869031535
0.016846558455688165
0.006871530386137132
-0.015961448562071788
-0.14552640892210467
0.017146712320781465
-0.010227390550843764
0.0036656396771859987
0.04525917754838537
-0.05960881222875467
-0.051735834300198985
0.05090983478295299
0.02726134686653229
0.002645316760060196
-0.013427685265021472
-0.008581685246808947
-0.01982876992397405
0.004628730485169144
0.0016729068802870352
-0.05091181203483669
0.014583126421809057
0.16971931408249005
0.02157485031237932
0.012948449659578108
-0.007358310764213486
0.018310124857164906
-0.04799245998525898
-0.010684703756746685
0.015354742006748875
0.022420267767097567
-0.004859705640913973
-0.030452409365616544
0.017135665180382155
0.07298499908381065
0.007316824064821352
-0.019474804744452883
0.054475947069446105
0.021099527256182884
0.008518238655763852
-0.055588558025424895
-0.030209222427308037
-0.010729914767089734
-0.12010813088748389
0.03180179189809049
-0.021898244738904567
-0.050707591531065625
-0.0015411642587797383
0.01458410535821581
-0.03727006160463905
-0.039219847129046276
0.036710735523855884
-0.016178631445738004
-0.004135688502000336
0.08761419516833804
-0.051346264705697926
-0.062152051581538977
-0.0026845445671594375
-0.028243861409601237
-0.021045684426970013
-0.005584063482996461
-0.008144320482314813
-0.047368956712677546
-0.017466569385498263
-0.015371680249308847
0.06211131559037939
0.12099517171143306
-0.023214672786387835
-0.006531564889342827
0.04298740617828951
0.029948601598734338
0.048055540508912184
-0.025513864177170442
0.07272818023884542
0.13064736362266827
-0.03711431712220231
0.04904457029767121
-0.017758140725727428
-0.005105751247000145
-0.04233580680522441
-0.023598081045490975
0.006832762738186033
0.015290189059133359
-0.012819897734677404
0.024760286589608434
0.0017468722730399247
0.024022772011552892
-0.036386741785064035
0.03090845345624609
-0.054547815687412265
-0.07348461181104438
0.012228058202098373
-0.010599082931182044
0.00934521625187276
-0.010717238023988366
-0.007492164074505475
-0.013802888939171807
-0.0227399004237876
0.021676105852890107
0.11236605452435662
-0.02817863464653886
0.015832168901608122
0.007139423547999107
0.005585674958196869
-0.022580209177470004
-0.09816931671800587
-0.011881531282947085
0.01692910945783082
0.012033863159303469
-0.005200671316906595
-0.03350171219657579
0.006140728714139702
-0.018838215535389887
-0.005811214647037761
-0.05899842641960571
-0.0182255996549703
0.00985652540328807
-0.026181086941852158
0.03929741583171814
-0.00553268134964328
0.010430945463315943
0.03077065929478717
-0.03301431137680841
-0.014204816232999842
-0.007768109058066118
0.008810505865940564
0.0077038568051084905
-0.01601438194266382
0.035063743088960916
-0.02791879006521798
0.004630856228947149
0.005265310450401214
0.0465365561545865
0.009327275812870356
-0.0536973594114978
-0.029537463478264327
-0.034839025446658914
0.030355813536462436
0.023257163088441387
-0.028186809693784825
-0.03283941196771592
-0.014923217781118882
0.0014867225075924143
0.017056450826696126
0.07432627762064074
0.010901724692865265
-0.06333517523254573
0.08269088471131697
0.09520814374978256
0.0606809249224214
0.03729860487073
-0.05170518669645663
0.03083051857463883
-0.016113718619999707
0.0649809445641184
0.07414393910968259
-0.0141098395258142
-0.018067010059299646
-0.02593097271173667
0.011614830931548874
-0.0005289311136241594
0.019759204004628207
-0.0004736708040774975
0.00409280290244833
-0.059975075193609985
-0.03933685906165974
-0.018565159260929495
-0.006637408036641317
-0.013483862335193103
-0.01696519699833082
-0.03210514790279278
-0.0333475390633427
0.011064351788149006
0.007835125447068608
0.09251561547616949
0.04430121695547357
-0.01816034552459951
0.004180706175800668
-0.012824272463013844
-0.001150001046194801
-0.008782211219744781
-0.08764121579850515
-0.024693873891308674
-0.009403807701076005
0.01396736680842641
0.03967944109891746
-0.05936682160891148
-0.005861959599518313
0.04054361497925807
0.02931512935243161
0.028050705019455034
-0.024922311574605515
0.026469947204737762
-0.01655488557049242
0.01920651999840178
-0.006748900138918387
0.02948556666954492
-0.21352666569651751
-0.1078730064919801
-0.11559770923419006
-0.09040000455433525
0.19238931950428234
0.0782741317780077
-0.018144096978826324
-0.004848534786757366
-0.0015281077153452228
-0.006190072689424385
0.04088351457916078
0.17857225454912332
-0.0006538805350892326
-0.008212971435625023
0.01638134544977763
0.015076431717666594
-0.014051492422423244
0.026899745151258425
-0.009218062258001035
-0.001574068065323109
0.016174612473720956
0.022696512836954348
-0.01063089875099226
0.015080721776055395
-0.045522859504440724
-0.10066418373015
0.07024884788870599
0.015195254971617923
-0.008385651369552103
-0.012719749967201039
-0.0044806440096520645
-0.0176507736771144
0.01707700245553662
-0.0019156353866738955
0.010342983356595802
0.032822730443049446
-0.04131386350643487
-0.062413820331919126
-0.03290159998715173
0.01729837829341566
-0.02313223063132284
0.0037206564202154975
0.033911584922922164
0.01075334158449359
0.02456987795258755
0.016156698251645993
-0.044476807137548556
-0.001497652281126593
0.01029518850668243
0.009527235176806804
-0.05558145690478139
0.011450151128450128
0.00535219721422939
0.003146105710234675
0.025298944204548663
0.024782742449338986
0.008338307187693936
0.009193908394277516
-0.026883942892385063
-0.015129069574583038
0.0005577137109858472
-0.008135102079696624
-0.01692692934005875
0.013386314969711533
0.004090780046500224
0.018154568600868688
-0.013301966247617675
0.003838526279817195
0.00850390342217603
-0.013076991450855488
-0.0026405327241516893
0.022850415389026477
0.029137721073092964
0.0027435243038515717
0.015456784501929305
0.07755534704758206
0.024569571987749977
-0.011439686424091617
-0.005569875263964325
-0.053846899998853705
-0.01814237514322058
-0.009767056775786567
-0.03043280823793763
0.0026026764991449094
0.06529973094148811
-0.03321277990509589
0.000168427522136883
0.005471659612260219
-0.005548806788153075
-0.004953471915628346
0.003639810943679847
-0.004837624409489412
-0.057816526955409224
-0.024887707692665576
-0.00389162523819749
0.005429316765385971
-0.002721472068511048
0.0497601049418368
0.003882369714823701
-0.015326752402706277
0.02419146500880511
0.0077761609690773555
0.016071791565368303
-0.007098151140710588
-0.003618976947569937
-0.03631984855327278
0.010019055898907524
-0.018294003737923316
0.03748372575295176
0.08042059658488143
-0.0028915858418161393
-0.03926940561042145
-0.018585773835931307
-0.0022846275142765723
-0.026014184966095005
-0.0035721027991272012
-0.010784421817246306
-0.0017936458453176407
-0.010981319849970061
-0.056207179103279735
0.006367766188320748
0.019719494374063683
-0.025571212909049294
-0.013941931449149845
0.014008390949670508
0.012216009280107772
-0.03721469470512708
0.005386597973975337
0.020593623617095106
0.005407351621874301
-0.01381355738129574
-0.004680080941264402
0.0012230444441775812
0.010657443477132935
0.016969584778095965
-0.0009470612911073266
0.027260259969854695
0.09937395318317747
-0.0020960430578592
-0.056469646458868455
0.004059458319639748
0.0017643329405115527
0.012787221073855977
0.004690839619542612
-0.013444516494356008
-0.01066829922315413
-0.009541825943094715
-0.0027577273983644757
-0.052991843366320145
-0.00666926221110728
0.0350692965142965
-0.009341161777659306
-0.06300111964857327
0.13749923163683564
0.06803887895196897
0.05203400443971816
-0.016254732819336447
-0.015963890234164172
0.08590406557280678
-0.02105787645354081
-0.06925924480975958
0.01630807931576252
0.06254321883969834
-0.07502677515584384
-0.01929248893904162
-0.014621794214947215
-0.0312624831660026
-0.05386525098028795
-0.004573548537147325
-0.03437556085030075
-0.025660346630517247
-0.03927208228166435
0.008085100629798815
0.012728728379323198
-0.004679006991881575
-0.00025979834876280346
-0.004907713044490785
-0.005356681637555548
0.021485293170226533
0.0468696004409779
0.010237864711175482
-0.014932133968936454
-0.029873190492482424
-0.0151099022324718
0.09973510025634444
0.003071308901502302
-0.03509152211857178
-0.010808610229756032
0.020362913365842995
-0.0024965502909124753
0.005774543245713803
-0.04823234773487114
0.013734219484882905
0.028173878863266118
0.015002795576507171
-0.013702911923676692
-0.017264067459652373
-0.041482190179201184
-0.03365926795403932
-0.029231833603317228
0.09087687768043219
-0.004807303813510566
-0.03269178250040531
0.0011132933334765485
-0.01462052442767714
-0.022608569637504648
0.012492982498918608
0.005217344197124969
-0.02678636237374579
0.10638452320866978
0.12966768846976923
-0.03733504242033855
0.030548108809520667
-0.011048223304969549
-0.009082341388672758
0.005492911897948768
-0.024512802944915688
-0.05203740874107387
0.030893647445952577
-0.008994836922761436
0.013740328353387881
0.11934531443575161
0.0007717257376946137
-0.02827444494606365
-0.0662596426668955
-0.10487130860733351
-0.04744651673456859
0.015502944990700143
-0.024657384142989538
0.0034071425270790013
0.01887915145916028
-0.002192811819610572
0.047979525451409155
0.00040812414277164135
0.010560751927277349
-0.06355582309158198
-0.06505757999506791
-4.352263314313209e-05
-0.02000989860181756
-0.04069862059551223
0.31999850353842735
0.13775835474049733
-0.06095885600973145
0.0018745555256971136
-0.013722994285860036
0.015264759546795644
-0.12675205451766106
-0.03769347348098806
-0.02570896607338505
-0.012623881456715683
-0.01924705306204384
0.026125387660912755
0.01906673123555771
0.003344947726535847
-0.017666505161730014
0.01329764140954468
-0.02178504052647488
-0.024000646317325604
-0.02616733551380359
-0.008809027599405184
0.029401154976576437
0.018722487646006425
0.003734801986997514
-0.08642248638633895
-0.01976266006362812
0.052472678398709914
-0.05381052630327236
-0.015823958392813878
0.003929693190859176
0.006079583878494065
0.041316489392790194
0.03893249053659496
-0.022198751854370872
-0.007821298129667238
-0.009940357654395307
0.00031173431599399197
0.02047678424681564
0.010749396287002753
-0.035675310014376266
-0.04301281036583002
0.017007058161446282
0.10032729081137848
0.01056791626870177
0.0008636063442325921
-0.023634792693058806
-0.016668144617528975
-0.01027918633597498
-0.014199671757043677
-0.009262856805704165
0.0263782022272343
-0.0013727233306859215
-0.018095644179343544
0.006634670739839091
0.06080747547174609
0.0320621666438176
-0.012781360034018724
-0.03185042846757618
-0.03516983959107404
-0.02862634180134611
-0.02380104456749535
-0.015147439913016553
-0.04661200039566191
-0.03190674459682285
0.12896264869470944
0.15531973458887158
-0.11182730211716102
-0.03653870114943905
0.01713416850557264
0.021438089916949447
0.006239384935254989
-0.009850993793247982
-0.02639925379484688
-0.025079741892822603
-0.011408601717498162
0.00943114922577623
-0.05198186508773027
-0.027321528700359643
-0.038444107935525274
0.13874724631787005
0.05488239232940363
-0.024116918124312468
0.03890559062591306
0.1423048699826274
-0.029539616508911584
-0.017663143797480817
0.012851406138565198
0.03739040511886753
0.03382582106669842
0.011253424737420872
-0.033655199324390796
-0.01758033958460552
0.011594706165898153
-0.01046414841043855
0.022558334491403445
0.007369822249621417
0.002737720925172414
-0.017306248545605158
-0.015369832775235095
0.015378368759098536
-0.00012848237518994088
-0.014705278808927108
0.014502306517529736
-0.02784301804037099
-0.0029468719100142204
-0.05151183463986741
-0.25753085729370634
-0.0120815284422008
0.10043732545261015
-0.00833576934616324
0.015106175934498986
0.002696735813283704
0.003097837344337263
-0.02821590955970133
-0.000983216754354402
7.020437336464291e-05
0.020002533860800698
0.01783395835711555
-0.0283873072535033
-0.009544548242509988
0.00874885033307751
0.007354966832433531
0.019537610888465447
-0.0738927450111342
-0.05219828642281024
0.021263996115670647
0.02983153727953093
0.008108951557323977
0.001313531881665415
-0.007244492167537062
0.0035621672525737577
0.021559626369371716
-0.008749747073712006
0.0015724779478257073
0.0016082781018824117
-0.009602086415252162
0.011178979086378386
0.019559442782318612
0.00639112446458938
0.015056831355202437
0.06870582280513042
0.08838041318735289
0.042646549717468736
0.010148156557952622
-0.07001469928101244
-0.05911996071543157
0.006858301066904857
-0.006836575974542343
-0.0037210368831501147
0.008000946161877538
-0.01697765546803944
-0.008590059131803851
-0.005810767640956044
-0.02659868443065646
0.02931992515442452
0.05736904866802299
0.0016478275890839068
-0.012397206576142874
0.019272101225821757
-0.018363076086873563
-0.05324437343636044
0.02806145480422891
0.013084963768076245
-0.03414048102372506
0.03800730340196898
0.03041540350993424
-0.015187003000401777
-0.039950015083139105
-0.05111690533571927
0.04095368234889495
0.045794684691967825
-0.0130994127439289
-0.007031698418237652
-0.01171418092536145
-0.052185749817246184
0.00318219862216746
-0.0054789672362467005
-0.03902155509621
0.03349988593791639
-0.03457164699133031
0.029615866735502976
0.007672134108133731
-0.01804687302872423
-0.020224235471424937
0.025100559659050014
0.05587194900485383
-0.004815227559862279
-0.034129976576871356
-0.039866053478728576
0.07228035328680738
-0.0035400668065159765
0.02978630511943746
-0.007381826657795561
-0.003971151318222397
-0.0034289610347108057
-0.041234718211613196
0.10260663715702352
-0.02363843255422791
-0.009460417173083237
0.011625781077365008
-0.03737287774120856
-0.013644292382231672
-0.008960169348090479
0.01611692882794825
0.011580725648829804
0.008799960337998375
-0.03442440271347376
0.0013139560628708908
0.0062821900576135875
0.024461252519858732
-0.050277070399454185
0.02108241141113319
0.02643838988629135
-0.0019406254612662273
0.046359027875564285
-0.03681597489487768
0.02212526052626524
-0.019696716564130377
-0.11519675922432172
0.012911631665906096
-0.05786588527449802
0.1495636337694225
0.03852142775877195
0.0033975139125523605
-0.07369798090307554
-0.0060673806326280435
-0.0020835177334204568
-0.021077874158439147
-0.042301595649868344
0.05147721342693892
0.09329222134807848
-0.016227046822099925
0.013529747600302212
0.047708981264619296
-0.03978225004731417
-0.05052829363268119
-0.09056854294919928
-0.022988955823518776
0.15725716546634377
-0.028747105990150516
0.0024680393023509698
0.007375803885236919
-0.007777948921317326
-0.08086125980220428
-0.021549944989044806
0.005655904172233517
-0.011820061317383225
-0.04494386946057504
-0.032114033612863836
-0.01126620563716728
0.00689391063175579
-0.005830538945516735
-0.04619878103940647
-0.01086783579804596
0.035992861041451996
0.021252090405519907
-0.01754005448124262
0.10924972700153095
0.13964341111164744
-0.008701898609210298
0.061065413259578066
-0.0007842464209867072
0.036881781355703684
-0.021792357520621412
-0.02227807665688307
-0.01883873491898129
-0.021394886395898552
-0.009190029771722081
0.024803077359664305
0.014445134263363565
0.004533674408212828
-0.02438683337486528
-0.016114899779302385
0.028556732832659294
-0.028852933751079595
0.014446271635319197
0.06466150567880923
0.008644080401375296
-0.011777178414010419
-0.03057662314678277
-0.007946816814802131
0.0069437156307197295
0.008939668330444009
-0.04194759697181604
-0.041704013749020094
0.023821603796722986
0.007275908661337359
-0.014859947080993457
-0.05513729817481972
-0.0038400863272935425
0.005539528901890758
-0.008748971619775305
-0.0014931195003520643
-0.04321640056434904
0.002576569131241779
-0.03192842428028057
-0.01058336334970666
0.01031178350047879
0.00866873090856027
-0.09266289056015778
-0.004898384397192703
0.11445565061539274
0.016361660102524357
-0.024907919731454536
0.019094730264068164
0.06311457313233336
0.017593480604232686
-0.01529646726572259
-0.05932160865408527
0.016696049968020623
0.03407712693328143
-0.062320088417094195
-0.006807472501201963
-0.08496397321161794
-0.016066008683052458
0.010759386634081812
-0.0067179165901751076
0.04535900576851225
0.05296868293072406
0.0029476642630840155
-0.006901237932684909
0.022353728184938988
-0.022832670162335707
-0.02001640406830057
-0.0003042224787200017
0.024089189863757413
0.013950305711462989
0.0367571958991756
0.12997907194243724
0.025316917800320214
-0.024254608079784464
0.017404585808197676
0.07876830924234164
0.01143778701848504
-0.014367600693462056
0.016509611056874627
0.03995220756716272
-0.01476503080704764
0.0034391405254651126
-0.015733990896979407
-0.005417998105141636
-0.006379707295138523
-0.017682159913375423
-0.02426294157458592
0.0022526926847296733
0.05271969134193963
-0.007739912307493444
-0.2906656695058092
-0.03712161327227352
-0.008851112220395104
-0.00902790232808587
0.012606925533822625
-0.002920495691961314
0.0010049200238719763
-0.0323686363043288
-0.024176241265778428
-0.0018365870789016539
0.04589345582258354
0.0043940148538280325
0.008627552568020436
0.03689847848276695
0.004386524868812609
-0.01646971393343666
-0.020936560988921767
-0.0947348026642783
0.0015427985747314594
0.008174261644816732
0.0028678987501357923
-0.024670762622246673
0.0038062245241774597
0.024913501461683807
0.0194257464081833
-0.003161085743320401
0.010999119303655937
0.08985781508168347
-0.045383808823847044
0.0013338632220105395
-0.03216636093330927
0.030614131463683053
0.042028926533885756
-0.00357224767297841
0.022588715371338934
-0.032706617893685536
0.02329301659520039
0.030695897400470126
-0.021515945727517003
0.0009846346737397333
-0.005806901117166882
-0.03081159918742858
-0.0009434620607643399
-0.01928279232591374
0.01386842900634531
0.05214832067830255
0.07328160433553396
0.16638149194557986
-0.024737876290759228
-0.010369974424990819
-0.037040041682854484
-0.017921793188969953
-0.023655358254660433
-0.002135985297943458
-0.02086483400213652
-0.003421945268383855
0.014336137386607802
-0.00908620036329497
-0.023932253078554438
0.007928457889763173
0.043187580226658154
-0.032918242895509216
-0.12998013019372517
0.029442381547704528
-0.005633633144894633
0.036750784114546665
0.029343164936705354
0.024440171524876174
0.07664161147322214
-0.02261878153364459
-0.028895654114650463
0.029987558423076897
0.0029449691239674452
-0.02694164787318639
-0.005622061281571591
0.027616316020173656
-0.025127307704960862
-0.0571466630175307
-0.006952325021644567
-0.018074492696297566
0.01316234699771633
-0.010012042019070945
0.01833834395325995
0.011760050728049021
0.022677729974536757
0.015605267944000958
-0.005553285181906931
-0.007400420462010531
-0.020747931386267605
-0.04163706270136783
-0.004545958924476309
0.003738984127059282
0.01629987871241453
0.011304333425144131
-0.009377423209131718
0.011370447627057682
-0.07305975827255183
-0.024809737096479535
0.014841898810027527
-0.028092210112840937
0.0014904171450201937
0.03145829298630465
0.016390178191486138
0.0028214472330841817
0.01985802573196706
-0.08897369498636618
-0.034039474804842235
0.006830449934177632
-0.014182470745212965
-0.03766666876933627
0.003403401212882891
0.012731447499565014
0.06629592853244563
0.019644089661701534
0.01813884745370035
0.07853851222817347
-0.019782382806374493
-0.023640981736223983
-0.012430483766662552
0.03467321714916086
-0.06694457407949923
0.018280837366757466
0.07904432363039243
0.03049983237485499
-0.02924301639688062
-0.02357676693036171
0.0031408211356009214
0.006374680458253167
-0.009950034978702333
0.021228003267358884
0.026295442622339776
0.05979069378209326
0.02193374245368776
0.011092847383816287
0.011306789200005544
-0.10447556679184318
-0.038488007963933174
0.006872038446499371
-0.01847953099013741
-0.012316848253313856
-0.02739975779446236
0.02027386584797943
0.03987001965244307
-0.013379468930870341
-0.000821989473600354
-0.021562088123393556
-0.007048008006660916
0.007804092626946396
0.005367949123465354
-0.039725622031598136
-0.0008098422950730277
0.13152936674081686
0.04307467197722222
-0.0005603599818426141
-0.10229688409126894
-0.022731717501446584
0.004169786640941194
-0.022051442835860916
-0.03158931412633152
-0.007551174264998743
0.0016552506054116063
-0.030238114163532875
-0.00868851373133365
0.00416863418818014
0.027534713735528543
0.04905010767781254
0.000284847889129493
-0.0723162081690633
-0.015086017116660095
0.04771475276024682
-0.016210699662369134
-0.036293781046286736
0.0023702935085219566
0.1168086390947968
0.04527072476070137
0.014790362624848362
-0.009348627723524423
-0.01133783210324551
0.0020928171202411736
0.036725906525395605
-0.0043506344569547335
0.01841317660768636
-0.008673026868795624
-0.014391909698737675
0.00561298038484071
-0.0015062659776592783
-0.0025226936984978497
-0.04875329648387379
0.015359247677279706
-0.01815754030837107
-0.0764975976675854
-0.00769381846366114
0.018662392962371974
-0.010901776043214548
0.04081518126301814
0.05523138859865986
0.013014698967028638
0.0024200713264305573
0.011334872072738984
0.022370955449933817
-0.015406554039478965
0.03087772255565078
-0.026523641523612963
0.030156742944478926
0.017994011332412012
-0.07310094056389767
-0.049856786437879476
0.027334828256237762
-0.12691073015071383
-0.1021521192488898
-0.07945409891666287
0.0810768834534326
0.1444540460001835
-0.0288878959742879
-0.02450138546284895
-0.0016598897761499903
0.012314061730717064
0.002870009819287737
0.0059573960308101455
0.006668317191989518
-0.016813055935000733
-0.014654830048494273
0.010689109410451708
-0.00017928750120639389
-0.020295284072893095
0.005838115638148359
0.018943475309982992
-0.02573013234624708
-0.007656722389257043
-0.004854324023548191
-0.019455953815543433
-0.013516189457620367
-0.0020807640848451918
0.01936922039646761
0.03885047085796801
0.09416970853921083
-0.023280519038430973
0.0632420242606307
0.07376717706152343
-0.004648137704957365
0.0030827351029230577
-0.007035914939045289
-0.02049924385379652
-0.019749851422474818
0.02181627651855664
0.00392219310817587
0.03140677852507073
0.009656093718229163
-0.001962036579443823
0.007800664714935614
-0.016883277785081717
-0.003659914157870645
0.007055241377021848
0.01134989398667523
-0.02054229032039098
0.007809618360188573
0.0034653585396690182
-0.0040211572148564
0.02775425580518048
0.05501303920796837
-0.001917122390392512
0.002892802951820061
-0.006311877378601804
0.006253931082649194
-0.0630443192275209
-0.19433509775581437
0.19346903593628328
0.050147650470418775
0.025802095741124444
-0.23933235422625995
-0.1571888597112182
-0.008942513839368312
-0.004786950917562584
0.009373970699420205
-0.02312136648809822
0.019648605085886988
0.03154425571882157
-0.004587535083591633
0.037805148699625826
-0.004284324959656868
0.004611954470944658
0.005500328934766085
0.011100668135899742
-0.000816642144405853
0.07362821464006047
0.03923073542609518
0.011868262906713169
-0.023175488045752892
0.010830135532845305
0.01196979687927666
0.024310058667259066
0.040063936408335714
0.017985454879343825
0.021028725954447262
0.00434668081308056
0.03432851580309398
-0.015162232554138007
