0
0.003086638139027407
-0.006347981667720939
0.005499923196467545
0.030013007872564855
-0.06454703768784673
-0.06490062524282514
-0.018705863714193385
0.1009261963243172
0.06659711673923904
-0.011842834131063514
0.027103503374707124
0.027599294521612795
-0.013004003312964436
-0.11025026688002493
0.035876482412659005
0.006627859583102169
0.0067672125543129635
0.004149095941554109
0.009928022938967348
-0.0012598585990777976
-0.02844449690196285
-0.019750391420171307
0.06880870640305124
0.10818385977460719
-0.01612028198627951
-0.038521572622858005
0.01038585466308057
0.030442174942595195
-0.11999101903815598
-0.12002254734672577
0.033496603198594765
0.02869730565304521
0.03553205427076892
-0.01725044545886306
-0.01499016338599284
-0.013953259742143193
-0.06842720520897946
-0.07785934628144381
0.06779434534252805
-0.018317586836636306
0.04941280214610521
0.026546137392031467
-0.012943872980563789
-0.04939756652709879
-0.02368681653251893
0.016300023204242578
0.03651382761489919
-0.02500147641456203
-0.026666233231263346
-0.017820320394898975
-0.03364080870423091
-0.011706316601728784
0.003771623736007423
-0.018420270136775403
-0.03365997216509828
0.16969245334538643
0.10438185798101461
-0.029564407985765727
-0.012715234659783954
-0.04407838360845568
0.005737247606226214
-0.004827852743783004
0.020585677543122027
-0.04167845144571774
0.021151679158996604
0.025180875773215285
-0.005693502377433792
-0.034978587112250034
0.13325510033923554
0.02091783664444661
-0.028624581253872246
-0.03162331411110997
0.020508362282114764
-0.006541274093158367
-0.037916154211431255
-0.01726893005575308
0.0027205432627490866
-0.07180190141330117
-0.04644254580843737
-0.012976078539019088
0.1000235091945505
0.014438989305899128
-0.011944150242701053
0.02052899577596384
0.06544578202290616
0.015236930504932404
-0.0625449226383142
-0.0005717631420278653
-0.003424381583602398
0.007587857558074788
-0.04366508086846245
-0.015822634089848613
0.11544413567604186
0.08189514060668515
-0.034390103221231205
-0.038492381577075074
-0.022768041420188928
-0.024406303003743947
0.06388525669364478
0.053288657643904405
-0.05995284029338848
0.055419917180700176
0.01878812095299907
-0.02899645715976821
-0.0028627838879897887
-0.006343423827912246
-0.01585075597428131
-0.03961451815668215
-0.04354785710247608
-0.006441473406404675
-0.02745874424498388
-0.002273137751169642
0.004063719199189914
0.017724308817736872
0.008440691931965812
0.03676446376925368
-0.005415991763665328
-0.010149656319529795
0.008762809370861125
0.02112274913942375
-0.007478679838752468
0.019795365856678036
0.0007732873537098643
0.009758613162808074
-0.009377786097060158
0.039443397144417885
-0.00955977688915617
0.012263711698486003
0.012363255412866762
-0.00915984675405316
-0.053113726331864994
-0.03647312116415416
0.011577455469833828
0.002898209679419657
-0.008536093069221358
0.038243088613459895
-0.02688090904792834
-0.009666082975169906
0.046988720956022925
0.016854396709264467
0.006465523582571487
0.023715873081902636
-0.049118060101429384
0.011770586343862324
-0.04862850687092057
-0.07895685330201756
-0.0018980093128009305
0.003324638430403115
-0.0005876178375025067
0.000606845514976226
-0.006255691384650709
0.020112120861221616
-0.00030517041953969726
-0.04973972549111216
0.01481159158853974
0.05913944536883489
-0.10142607230431908
-0.05499728433768872
0.031286057052772404
0.022222544961712894
-0.006384617762050267
0.004781122918626824
-0.01877067883179144
-0.0333741106539353
0.01690466949974186
-0.026451653797482808
-0.029673084743649356
-0.04735998371191993
0.042614051662876226
-0.009876681585335128
0.008725742468439329
-0.015475034690843542
0.016604230971418155
-0.005083058675404254
0.020014439117572502
-0.005719045108206224
-0.034553428850153285
0.016428022328990734
0.3116356719598634
0.0042825559025887845
-0.05454764173738541
-0.022854715185266158
0.07374997827873214
0.04238667030716696
-0.011899726463573226
-0.027911386551183758
0.007705787284531858
-0.0005115126716659806
-0.03526800225268624
-0.012930421977451395
0.05086758391499773
-0.028250052225602888
-0.005746316162746348
-0.022783478872456676
-0.03998928428056301
-0.034361955828707005
-0.020654786414425065
0.012074411236660467
0.17446243263362715
0.0934509708425002
-0.06732592991181864
-0.003013172198052205
-0.00803750903169446
0.001177594178523202
-0.024559283320979702
-0.022506541806224512
-0.008774409952623073
-0.015608900509355912
0.04324359932586107
0.08909848128787119
-0.042903354397834596
-0.27130177460017446
-0.08036486314474663
0.013137648072443915
-0.0012785136326509444
-0.012281171385217669
-0.031299571949961975
0.05488112805789921
0.10134512157481453
0.010978673823921946
-0.0485214661033149
0.01544605159764248
0.04686205845494471
-0.03186845029762643
0.007704292268633801
0.029556984423182775
0.026176930437294292
-0.018943078068739554
-0.07044471222969695
0.017327939564652037
0.07084407287470157
0.0006614075951869154
-0.02889562534523921
-0.007433368364884773
-0.006553464981665546
-0.04089772730579156
0.009892353786658701
0.0010766505580312917
0.0014822831054454137
0.13746759253600832
0.06873720399651241
-0.06802450230754464
0.04884517582510359
0.05568430225552262
-0.026198228084829973
-0.0020225378219334354
-0.0034031376271115407
-0.007949328077177048
-0.018911266779457037
-0.024523624679739103
-0.010021864339225597
0.0005305483382899692
-0.09933193377495245
-0.10715720102183611
-0.014605957218074549
-0.04360120227857825
0.01764587627839613
-0.006767172968986082
0.02735043005532934
0.04905380000440854
-0.01953537238787661
-0.028695155314297536
-0.00513806304201526
0.022185174004580886
-0.0032929659246237293
-0.01678342150489695
-0.043580049737613265
0.06472929988181263
0.09510131854180698
-0.032325774974390216
-0.03689694768349655
0.08887647686266767
0.09458383637278002
0.007277789245361731
0.0862700469032321
-0.01529218495098444
-0.015763654015763885
-0.013116882293671476
-0.017623820076729985
-0.02776954920580825
0.006465794259231863
0.09452707196257541
0.029037858297834528
-0.008265316746150601
-0.09883633215849076
-0.07164765641407057
0.036394170231556944
-0.01475454469962771
0.014072807382187514
0.047817686017101915
-0.1473748057094919
-0.006504705104094209
-0.035089282749914755
0.003563919925794412
-0.034736121999549396
0.0012241330640102369
-0.05219707009586517
-0.03684918248693899
-0.038790062860823156
-0.052184545861043374
-0.07969056444543893
-0.004994432906768687
-0.006259094596302308
0.11682904537254425
0.056330498165221406
-0.061668863793566814
0.08549314642872821
0.01834699663244142
0.08332177474586855
0.011813748929929788
-0.035438043468790786
0.012655164187372893
-0.015540834809028976
0.018555625086940655
0.038052425515943115
-0.01597530989532562
-0.027580813605745835
0.013955553442209091
-0.020450517278409703
0.014362003840404567
-0.01659375184110152
-0.008935253202754772
-0.008866267252904186
0.16852773996978887
0.04777460140885985
0.12691399215945495
0.05646205581234377
-0.03617963627085183
-0.06681168158953417
0.01839955162840151
-0.00011654882656635777
-0.035179031729186634
-0.016333359031632036
-0.024643903521785512
-0.07723746341885979
0.045152106055643404
0.06027080507294828
-0.06234474224678617
-0.012838526597294495
-0.01462845658236459
-0.056953067523653665
-0.08824194770162837
0.09403280157084976
-0.005289314088828859
0.001463705321232057
-0.005107350013983508
-0.02581054700203779
-0.01781453595411715
-0.006309341561901099
0.054639718067025694
0.2315970890471787
-0.03440078594238483
-0.02303179520344332
-0.12510769600954827
-0.08918276985826752
-0.003570132699198791
0.13701491836377136
-0.013283544182332584
-0.043610720267441026
0.030235478768949955
-0.023573716053607956
-0.030345230238663052
0.0236070035476272
0.0013445347464647083
0.05114424356779788
-0.04620782808403356
-0.057274169208123296
-0.009650875433422008
-0.06263325538739352
-0.03503960132361934
0.15781416730313136
0.011182488292220537
-0.03489098541908144
-0.029703152113117824
-0.020401532922448725
-0.032977808808076124
-0.03471371395831556
0.012381283220847581
-0.01779863657238058
-0.039036965527184685
-0.01904568675015885
0.006125062972960343
-0.0001500027796327062
-0.037998388716231964
0.01698141611965629
0.031886481157542904
-0.011315626941458951
-0.11159354832158679
-0.07696536838112855
-0.012685893565163713
0.03968691531283058
0.1700333909240483
0.0757996660989747
-0.07167500523708024
0.010232334671886441
0.047272606852766665
0.005803652798133102
0.001914787807950526
0.004441793809532759
0.029470495942964376
-0.033029665526632036
0.06243535488985703
0.012676746591325177
-0.03560690553680931
-0.04236465086130604
0.037899309766942654
0.009774561144623014
0.02898141748915357
0.03675798038926673
0.001971730001581698
-0.05395376949375728
-0.032765967392965716
0.025589087381487376
0.003763171554212655
-0.010720581465877396
0.048173902544432316
-0.05572904559512886
0.037661747509988325
0.10920329691954155
0.03279721070472273
-0.009772556692090312
0.07968813019406826
-0.0037937063003923442
-0.03306813813588853
0.001490566991856733
-0.03061936225974502
-0.05262639327757783
-0.02512044404528752
-0.060524306904975955
-0.017201086097413873
0.011094510934009276
-0.017102649509275692
-0.01089860791139187
0.04194746751207586
0.08589409248988605
0.014951174423301902
-0.10251666215857969
0.07697730525770725
-0.04558980821541052
-0.018360223684509316
-0.024170815632348294
0.033799236849038315
-0.08470964518807045
-0.09565957856773315
0.016814565478228898
0.048826526355493435
0.11860745189196793
0.014184433965724028
-0.03659005801276976
-0.014484877048645563
0.04005739345699521
-0.006742876940140105
0.027799696112950304
0.07396041793516837
0.03570142501259169
-0.01275272690847772
-0.0407514347513157
-0.017633391744959905
0.0118428719148429
0.023938631208767186
0.016015893016588935
0.06325086151368008
-0.16075417510551715
-0.048709615738040286
0.01485866764756553
-0.10206228979415888
0.01916556512239462
-0.053980807432260136
0.02306820934695621
-0.00823571406307445
0.037230790057490734
-0.017005004284518486
-0.13384103066124473
-0.021866816449829615
0.03973819447445092
0.025848920704269286
0.024765946534528124
0.007645180217468242
-0.027741484476463678
0.046525078056829504
0.0760075759810867
-0.02716760075117334
0.02032649291186321
-0.03407984601703961
0.027359509454013733
0.010993677071316285
0.04794513744921366
0.028324794809372802
0.019616903122326612
-0.019977428390946787
0.02284254160654454
-0.08674930422812857
0.015135207321887126
-0.02935097583738071
-0.004913174096777293
-0.11535066168250385
-0.07754995086792871
0.008270864696960874
0.12742877957385895
0.0645391955387307
-0.022972727024345496
0.024839389120992345
0.0515000139514894
0.02172761775286928
-0.029988851446944697
-0.006098455985180844
-0.002991398002158514
0.004511340802085842
0.007026746119504811
-0.00941620473450389
-0.01204686462998549
-0.009056301405171665
0.06897959404722334
0.08559478434165299
-0.024809737436466663
-0.0544599611883844
-0.14336977485007588
0.033004321645602214
0.0815686238172433
-0.14185247983009547
-0.023549761830278265
0.06582231983460832
-0.016064196683432064
0.012473932841139746
0.0455196756664696
0.031801228705678405
-0.00019972989080929056
-0.013270098649721118
-0.013688126664358072
0.024362575425310413
0.0030665624291500823
-0.0071975652039764065
0.03476400917882843
-0.02832540480254156
0.030422693886498035
0.017834766494982248
-0.0030218848902611468
-0.012329124151256579
-0.001975026112548245
-0.030163645058233955
-0.014415168626759121
0.028674894369789376
-0.016363035953060077
-0.005680279219344534
0.028192787084916824
0.03711823652185928
-0.036708672066659453
0.010158806612891102
0.010239359271068015
-0.024534449133737746
0.006799992846111927
0.012920284400319356
-0.006707255537281736
0.0011052560181353452
0.043535573194120145
-0.010021407087527315
0.0022078032814735965
-0.007876229840878124
0.16640092065611695
0.06680392456315179
-0.01954254902819468
-0.006157267286110237
0.008786059223472555
-0.10506291597217687
-0.14979081639604871
0.0342835846549648
-0.01648479218735565
-0.00993728319795007
-0.042269130395192325
-0.01773857388262372
-0.05018592005017302
-0.06413589505253889
-0.025297338866666273
0.016132349308658197
0.0195808954347363
-0.01785147281751207
0.008642327031198504
-0.006120599566409018
0.009495037969015727
-0.028410627244577265
0.09041813370959766
0.06118640915774604
-0.046693093725728003
-0.058368530685679175
0.009142170669914932
-0.015714839871684153
-0.04415742397621366
-0.0053151638968511545
-0.018135092338469657
0.013668078221266002
0.012030027905095511
0.15352701941938177
-0.008651882191425288
-0.09389516834203368
0.017422523643334683
-0.011920413339786643
0.010710632903128731
0.08660891952441342
0.0263065944833004
-0.005445254500957618
-0.04477495982789123
-0.00900447293684786
0.01089181784287539
-0.0530629460812947
0.031123899883344432
0.06872701974360149
-0.013193439900547952
-0.03116385261557343
0.00788391444835218
-0.006425496493066083
0.061561260475094956
0.014391185726072984
-0.05993306763595942
-0.011585127874657203
-0.0006989311717340151
0.00035450895942518493
-0.034316348101435974
-0.018616458367639047
-0.00600793491188754
-0.06847217794173488
0.021607692448628167
0.006360871206697594
0.13000044522883064
0.2119895428227504
-0.045105202502984075
0.002970935889845529
-0.03916663562524315
0.01918861218689241
-0.0489294760857264
0.021244289978852887
-0.02738006180613319
0.05720038076704843
0.016836373859020884
-0.008102653767861536
0.03221762080339259
-0.09858941125898354
-0.03004757542229667
-0.0009069109341166078
-0.04023194128471107
-0.03304235134365383
-0.07641408331511779
0.020436423115887958
0.007374466046904551
0.07130724121238219
0.049221598186256675
-0.04352559023441209
0.02613335486140155
0.03412871393373643
0.001210064278158496
-0.013599728987088179
0.028139511661480234
0.03470674486599386
-0.0041096723827253046
-0.04452511852733975
-0.0747443587692669
-0.0006877014160114129
0.016269750196347885
0.005917515849676132
-0.004042018126918405
-0.011368299017669049
0.016857214950203897
-0.011492990234762029
-0.039466407620222375
0.013484080149678524
-0.01852119859761238
0.006986427771395266
-0.013562117027900602
0.029430263488231027
0.0006125608108034783
-0.02953171105020629
-0.04722804144827207
-0.04298405235121859
-0.002046886764619062
-0.02852130884287286
0.003972516775379336
0.03238666411580572
-0.037863590681839816
0.0037952391682901446
0.003253695500417515
0.03573029517371043
-0.0017995346913589505
0.00901828814704147
0.1152504084761081
0.05720210245885136
-0.009813648116340844
-0.020353232969251824
-0.0015483833316675586
0.03571025762247138
-0.039356352255188
-0.06471413692079168
0.012111640764941877
0.009303955599986815
-0.00895399988857508
0.011372864065177814
0.0078064843710934
-0.031356689089867544
0.01922797348074601
0.0261396165889241
0.004818624921505318
-0.005155018658900409
0.004818143898788431
-0.002334661750172194
-0.020247239097889246
0.050473048660132185
0.07087074644335058
0.01542182140202516
0.03939303999590677
-0.1430109146333489
-0.2947633407699281
-0.020435974406170312
0.0016210059843244306
0.031998179819674843
-0.014115015309416322
0.01579186215523498
0.002822246965843157
-0.01151245712730738
0.001081812685724631
0.013740913069749547
-0.009670608448609862
0.023984025297349557
0.055564103752166576
0.02802085843025243
0.1435930422387572
0.2663783158671521
-0.003824700934978542
-0.010576561121493787
-0.01775341079397804
0.013002438680398912
0.009978370418098764
0.020451685490067022
-0.10842997123277293
-0.0464708144550634
0.042078950655253584
-0.0072999938865421846
-0.01929011279246205
0.02308081311258439
0.06774244211161298
-0.013452241117311406
-0.015432537192837442
-0.02457671910112612
-0.00875632203957605
-0.007522000128412268
-0.1123808410041161
-0.024851049824344967
-0.009551597997880966
0.011175708855541288
-0.015748234660298864
-0.03042683870198652
-0.005996284572503871
0.033164147667899685
0.010221564122125396
0.024786716037443847
0.01917372803401334
-0.03090598869541919
-0.021556756018738497
0.00252899168566993
0.02329348377089259
0.0023706652247318274
-0.0018593458991633335
0.0062603021237835465
-0.028916929936039552
-0.023745510937463445
-0.0051151678556880555
-0.002465276989283421
0.04105212687530399
0.01616199008196663
-0.0024328685699082976
0.013850621199856859
0.004440904941778484
-0.03617783382602286
-0.06880942053282958
-0.07578560057814154
0.01448898401556102
0.007008599199658809
0.07559283627681178
-0.032160640324051096
0.025912864524595076
0.018908600559905488
-0.007540085751483331
0.0493779734519147
0.033271142046884
-0.04097518924148437
0.03037979918680218
0.02982781233566431
0.02429634845591123
-0.12435442485989362
-0.0791205613215696
0.01206159564314129
0.00142300682468388
0.0007939343687930619
0.02246669733325765
0.11261735695800867
0.019958089898377454
-0.048628992789653505
-0.05256783087765534
-0.06681284392493937
0.006834451614680335
-0.007758440220030163
-0.022134881597798316
-0.02539479279114783
-0.008610662945171087
-0.02561696061592854
-0.00386652434918301
-0.01193243566681294
0.15021824375070816
0.08060303386141707
-0.027008810044270002
-0.006229895725673212
-0.045904367830478916
-0.061076643850602845
-0.09042554096181894
-0.021901242928681036
-0.026205309549271086
0.005591984734544827
0.16474964179780544
0.01827108870855233
-0.038966766462408604
0.025528369677678648
0.05118867457155698
0.08518040001713226
0.059389018230204024
0.08821141783196206
-0.02341913328091506
-0.000792283092826928
-0.03291438228165202
-0.011200931504595056
-0.04024925638279811
-0.19656814945521034
-0.17184309723725855
0.11470413081864905
0.057220645304849306
-0.022755485481649185
0.11719230480464644
0.0031441438549479955
-0.04219259028343948
0.15946723786195294
0.047734851318589594
-0.03394277634046213
-0.027217664499597432
0.01136612609037554
-0.0009706932737354416
0.06310549086605353
0.018180601477448953
-0.005926981329366489
0.01675634558624402
0.012617930871599329
-0.16245741999537136
-0.18341722339130068
0.21084319104891072
-0.017984170063979087
0.038145632320712636
-0.09637202433209419
-0.13880395427233808
0.016434286636442544
-0.021933128094551526
-0.03435609756030914
-0.03768711802688653
0.007802421112923843
-0.028277022037639838
-0.002672406450786687
-0.02468614149565404
0.11133642287363853
0.15465698515498752
-0.045760019142411436
0.011701769857051684
-0.050052966731368935
0.08339385702541158
0.018060097074272495
-0.012054178483259445
-0.018391627195545927
0.022791089492811896
0.0724424404033363
0.006150386108811016
-0.020824737846929155
-0.033127372904364724
-0.05094793163551076
-0.021953025587116017
-0.022273160240174502
-0.017333120633181293
0.08914050350276295
0.03852582856214782
-0.08836963735663476
-0.038242995867814544
0.02400959416385804
-0.02895372418953785
-0.07241825907068868
0.04570774992881007
0.09831624921286354
0.0018859042804034339
-0.032042935206417586
-0.013124933091254183
0.02640419986275943
-0.027204510596881493
-0.020681323773763464
0.013518029195637786
0.03315694461291655
0.00882514890564127
-0.014465542065458317
-0.024632800830654156
-0.016795699373462925
0.1065670576568694
-0.00601595012966782
0.07127935767467777
0.1325513220912809
0.0292940441171628
-0.06342381236550511
-0.005147606878149606
0.03315739656911485
0.004237815678418411
0.04440788309781399
0.01943467493645139
-0.006921138981220426
-0.02102560397611733
-0.014309246906719279
-0.007514486298398114
0.04028269126737609
-0.01027885695328956
-0.23763139481696033
0.008910732950509984
-0.001997609971898441
-0.006799418652668264
-0.04953424373103742
-0.015662599295634995
0.010314821944363707
-0.0028944098722331704
-0.08066539770785852
0.012747576806042542
-0.0030240096160596545
0.0018569198569928775
-0.02427765615323828
-0.0456839239188752
-0.029678602148392203
0.018772622790486186
0.002277594959786791
-0.0121643591377647
0.02097633797293886
0.04569221013720174
-0.01592986018896377
0.020634184509372912
-0.012610893369771984
-0.01922049498805948
-0.01871959670427287
-0.00881685164167004
0.011507015917483009
0.003352513649069828
-0.01118736476741409
-0.012747712737543224
0.010622860547062218
0.008525692149599888
-0.01795861790014661
-0.010822316853812991
0.10787164678314076
0.07897530227406183
-0.012815349942217046
0.02917810617859684
-0.026049372668011325
-0.00925031856190371
-0.01174006345639166
0.0337922446521792
0.0580340851965461
-0.005588545583731771
-0.013154241845902293
-0.006748388079479639
-0.0034947610724712394
0.035845332457561836
-0.023460950861741936
0.015239053821507356
-0.013928686275197633
-0.001911314009171764
-0.00908028045580104
0.04486529622279366
0.020289374214184797
0.008003385575450718
-0.037197117988015074
0.05276491922130846
-0.057892946219442486
-0.12220792952448499
0.040417907531361354
0.032436073168506066
0.015807120611409195
0.029618019868463373
0.030516572896886654
0.014651719727718334
-0.012059226287102908
0.004099995064015716
-0.07245088894062143
-0.10866060207622706
0.05039141220009732
0.047480503114363005
0.016739053551713453
0.004242570806753367
-0.00132108274885045
-0.02220617284564628
-0.0064188150564789305
0.010811253579269021
-0.027642901172544494
-0.1046135525370891
-0.06610907919942115
-0.04091982802892132
0.02162294595566333
-0.009926662655881465
-0.0013224251557401485
-0.03338818793532661
0.0888760587713083
0.1418166527491226
-0.013144712462805066
0.03218416625986328
0.0659380617592655
0.02717196831100106
0.01388335254677154
-0.01188667135354301
-0.07672972624524155
-0.006358767527032534
-0.007348354884841917
-0.025459730624487708
-0.004085951368272878
-0.00453233514587398
-0.0017757615221539727
-0.024694524290826098
0.00676368503157927
0.011549778609089446
0.013541371870775532
0.0007936544609267332
-0.004426067089498997
0.00362126777088864
0.028708215533506914
0.015785908355014772
0.023314771687724195
-0.002336545040069272
-0.0014128373302405564
-0.03614865333129393
-0.021735344130749134
-0.024056908323470776
-0.006661176075995737
-0.009527940214510002
-0.035249053336010694
0.06836369339330309
0.00018749331236945257
0.017056171236868
-0.005781253344071608
-0.08899784239343878
-0.0051397252300044915
0.01063674598643843
0.002756944235842318
-0.003146104573624191
0.07339618233893651
0.001377239730526368
-0.024231100617291043
-0.00459645769771369
0.040414034151014445
-0.01239740585879297
-0.03260593009843812
0.0041269417346796655
0.014833620276789567
0.027080498756656145
-0.019871591501279748
-0.03251246759654659
0.04078410869877926
0.01793344534287722
0.02114976533277109
-0.015708923571041283
-0.02626652943292647
0.0644728685371931
0.0029810321182015425
0.01882207385715462
-0.006347749148573275
-0.01664066256728245
-0.013209483866260082
0.008749774458576253
-0.010919755895273444
-0.00813995304981266
-0.02136233701556885
0.019064821943184394
-0.011462712769288046
-0.055360199096328756
0.004617041132860173
0.02732772180783296
-0.009026882301279817
0.03502879650154704
-0.00671665422272267
0.03343008433665302
0.0472524139588556
0.020745019278071705
-0.013808906228383867
0.001113732580819662
0.0002628631116948772
-0.004860112729741897
-0.0002652113767140694
0.02565069882754519
-0.018518034902218813
-0.0015273049592224733
0.009402850799860004
-0.0033959955350729818
0.011949410503797003
0.05366948734614367
-0.009038592757919146
0.0010817199226848156
-0.012618267278143283
0.03895955154467772
-0.21312801039952115
-0.10417180329179769
0.019004155132532997
-0.0138340988784365
-0.012193212542380514
0.04199874801455166
0.018053190541017335
0.03630111931302212
0.03520365820990085
0.0037015094422476044
-0.021241561888422876
0.05182843867039962
-0.22487412338338847
-0.12637000742440807
0.07445326524414525
0.086514908780859
0.04567226839964783
-0.0012107930576996779
0.05521761705367269
0.02805195113150935
-0.021953436842572133
0.010486768615909383
0.030848473716872705
-0.014060787079547128
-0.004568017125127035
0.034993845025331725
0.018337110162205406
-0.005707083078891676
-0.019949262556402735
0.046733517247654364
0.03678503992753978
0.050195888491921054
0.006860762066624828
0.037298037663887916
0.05268340570892346
0.09642592536619757
-0.013181070361246138
-0.14688787890241828
-0.06689088175380185
-0.1163037467131098
-0.02864752890170134
0.01009585225812551
-0.026980274250696712
0.06501184969717667
-0.20328388598626657
-0.13427896167724948
0.12412233887587978
0.03552696702927627
-0.08870986464955351
-0.1156635038995686
0.04481891344281905
0.20122907867298956
0.0718954042094176
-0.051811695542599234
0.0013080083123166585
-0.004453127959034715
-0.008339005879454606
-0.01009517892116334
-0.002976408463584295
-0.028357932711348118
0.0214491869233109
0.010501877743045557
0.027147625421426323
0.0025880337715646407
0.14939630197006473
0.05760441085491612
-0.022504328715974645
0.005825642144887495
-0.00045372231658955697
-0.028934019822480225
-0.0026443958242328112
-0.0056201898094860375
-0.021050011391624494
-0.06939585133120059
-0.007275509989272451
0.09205026924036118
0.031779943468292236
-0.01446980806788941
0.0332146220730165
-0.016789110463572406
-0.0006896583495877366
-0.014508445799115767
0.017513184645824954
-0.004200925736808158
0.023159939872282684
0.0484419261094229
0.005274477365407741
0.009158692317346992
0.012096277863742275
-0.022367113422754395
0.008388543953656256
-0.05582868402369908
0.00713113086925734
-0.013281555955447378
-0.004308643620275123
0.010754018524913965
-0.007450726065075996
-0.03966422115046229
-0.023316804746583375
0.012633858554628025
-0.023550124375521026
-0.033679580591543065
-0.006784944033486514
0.05712312597605991
0.019667855981800597
-0.0012537485125951864
0.0069294398058635945
-0.013226458497839653
-0.011494247791163266
-0.01016763410866662
0.008449600645915038
-0.00961277068717175
-0.04684740995900356
0.04573424599415704
-0.004259059795975978
-0.01734476262592173
-0.007709780678530651
0.006092942315636731
0.017714415924650877
0.05691331402914283
0.03210420222623209
-0.05482220446454523
-0.0012795966000717393
0.015150346109202946
0.010117320411061103
-0.044616891637134865
-0.022956922783693
0.020510145187360142
-0.03766167743001847
-0.04580755359251463
0.0405271778345609
0.012550759376989943
-0.037132571029559025
-0.02816054113020828
-0.025724834785732325
0.010633792415888929
0.017882721705176942
0.0027104826928523763
-0.02850933694227933
-0.012232215452542035
0.02407942173575625
-0.008060654748279768
-0.010242356839651606
-0.00015638495683959418
-0.006949947859022817
-0.11363708409309771
0.04761466369603145
0.032187631710697676
-0.03644938732073322
-0.034890993649194076
-0.037909227099185164
0.010963589993935709
-0.016033451657455552
-0.001480185472736944
-0.015237165480486948
-0.0005830263888311055
-0.019599251893303696
0.039971870421287
0.07665558535346019
-0.03632907992839838
-0.026171224640825115
0.13919202123927568
0.022490048261970954
-0.05175328970977214
0.007435106955884146
0.0028065053545837664
0.015098573413891828
-0.012391726648911206
0.010942593100875007
0.053374087103774205
0.045380333794785455
-0.018490574672502886
0.07313198146015881
0.18357332696536277
-0.018896354701930015
0.030180123819202972
-0.006596992579579792
-0.0468063324030736
-0.025429552561276374
-0.032401624187124244
-0.08594188723991253
-0.025736922824384934
0.04012307453751309
0.08215007842109161
0.04782481133698663
0.07134121451391681
0.026051645872679156
-0.02829575955237582
-0.038408913243221286
0.03536147703899775
-0.06423857974191993
-0.01694606785922882
0.043790662811043074
0.025464242036557543
0.015820695859288518
0.0320421615369905
0.01132894895627574
-0.05402325784331576
0.023947779944893485
-0.01676454288553576
-0.00044553074196566206
-0.09815438414297395
-0.07768849957643613
0.04211053557359358
-0.01711983937200229
-0.0055991719303471865
-0.037491415154987225
-0.04597183140707857
-0.03897951598551185
-0.013993221012765445
-0.01869807283245909
-0.025269774873748062
-0.022463862382877627
0.01571235058711756
-0.007146136088269797
-0.004860815569863611
-0.010630542325904989
0.007010866084255399
-0.05785599178932603
-0.058408548303293735
0.01359081812310542
0.0029803113419396
-0.000629731764585212
-0.002055406206212229
-0.02894496626169863
0.010381324968087044
-0.01861462683841949
0.049114861489070245
-0.008033516763893817
0.0153288957784294
0.016431459344964625
-0.024388900091033245
0.001674223493583098
-0.015856358401364058
0.07089035081230981
0.060707369133123835
-0.023356827915996158
0.00023809096916073324
-0.019241007962892694
-0.01395703116469209
-0.015324630096460724
-0.03456196568492884
0.006747661477952556
0.02875538925011011
-0.0067684036746501735
0.05701786110210722
-0.024939692314885412
-0.017519335321107308
0.0031849892414617027
-0.01726907000579566
-0.0052992460157217725
0.0384867034500273
-0.01806353888040776
0.07981560661049442
0.08666268904968567
0.001769521591167202
-0.016737507251955764
0.19509563976531094
0.1286417472602893
-0.035661736285943886
-0.03999091110707952
-0.026218889119439606
0.011751626470261099
-0.06111577486085418
0.006720086218929136
0.02980638091582423
-0.03381011653416581
0.020702783022403717
0.03990726050420431
-0.013007284035937868
-0.09980516543462005
-0.07386699711924888
-0.022740935980328593
-0.008695389939227046
0.05320680715173079
-0.048900576018952306
0.05927331349461456
0.005205563270148779
0.005094200433095537
-0.008503544775786622
-0.0035475119973385413
0.011136406221780608
-0.011274865868984907
-0.0025804284040908555
0.0013623891218348511
-0.06531262884904382
-0.06122949236039713
0.005918742564299253
-0.00551453099843066
-0.0009042384684668305
0.005700166567583005
0.008373797153879217
-0.010088807536417065
-0.014750116561796842
-0.006860983952746935
-0.026576564931480112
-0.02678535199626527
-0.022557715945254533
0.007039877741033208
0.0010363443225570117
-0.013317686134710474
-0.0316139976809219
-0.010363558298615044
-0.02783736331314937
0.007860254930221945
-0.0075508033976162455
-0.04023411936473973
0.040024889613327244
0.11943039552902969
0.03095230300269911
0.08009104108165442
0.011624318606621498
-0.014199252048761482
-0.0723932185748924
0.0042749016213460694
-0.006223132474847199
0.004804722390343209
0.008626166431545245
0.004132379099811574
0.006062463996724609
0.012285677299533535
0.020117887539755228
0.040471438528590566
0.06145670821363525
0.03544741194359685
-0.025264941905498512
0.0366626561730594
0.018877508249004537
-0.009401282800404014
-0.05166007130643904
0.0026089104917502706
0.002397332771850799
-0.0029705837497995243
-0.02457286848666928
-0.027993664662956635
-0.02031399766022774
-0.011825040598546162
-0.013893854511878136
-0.014809601107877317
-0.015197062875444468
-0.017659423483819936
-0.03831637031472562
-0.0010420068717478484
-0.0028264715205688932
0.04605672214500753
-0.015624941864442014
0.005058562024768116
0.0018869591460789657
0.07290481671312538
0.06242407419178537
0.007595793000775977
-0.019379122053730106
0.010127801560678785
-0.03294162395889271
0.04611745678214986
0.004500403615281406
-0.04863945426330584
-0.015891550241766823
-0.028547203359781944
0.011011218022116393
-0.032645736315835575
-0.06624690348853184
-0.06338995585913144
0.02302340818085765
0.039848310029345135
0.03392197608311179
-0.09313818841708657
-0.028317207342990647
0.011672278805411357
0.0001517930724717098
-0.013834682974389091
-0.004077107446800704
-0.029430443586201532
-0.03236026318557243
-0.045011242353553346
0.018295814682660626
-0.0016431031077354513
-0.010825969864731689
-0.03330920992264594
0.005554413151670357
-0.015415496275304457
0.0426535078276862
0.003540235018503495
0.11179106172978719
0.04292183990204905
0.016411872276842238
0.04338750897013481
0.14662206870356054
-0.06252929388484256
-0.0411556589947911
-0.022739514393276292
-0.015124053953719886
-0.0288751548876908
0.004684997870406505
-0.023878925215358983
0.04289498166230837
0.14562308122471718
0.07559381864415321
0.08439553235137782
-0.06128584029209307
-0.06189382274419136
