0
-0.002327701985242268
-0.03584248737134407
-0.0001825671836544522
0.027492441571212865
-0.0064935543770401425
0.010958332891077291
-0.006933325985880036
-0.023929271786544255
0.012986453579205049
0.009724485967217983
0.012948348869837022
-0.05125761241374569
-0.023431570545465595
-0.0339244989507143
-0.020248200466529077
0.010911999484651387
-0.028740721277518005
0.08481541792624714
0.1480582158877576
-0.05071187274522338
-0.027886220298671507
0.04815765331138474
0.016042796127434887
0.015302941997337388
0.05776981166298332
0.014302352620444577
0.015514553610964888
0.011883896335556613
-0.030306056609820747
0.009706671972490314
-0.026192723690306476
-0.05008993077261128
0.027169322927044066
0.016091031069614768
-0.0016317414263085938
-0.02747987754892507
-0.03670932730409192
-0.01772721421584582
0.015498422762367316
-0.0035874002748536218
0.02068399604136245
-0.039836034297030434
-0.03033437935675513
0.006653566045835641
-0.005390443969960211
-0.018508566148926223
0.03860163213969313
-0.015049968210592764
0.018520661161504505
-0.0533129860596508
0.0483507733295851
0.08399547078421038
-0.04639573099048159
-0.01788077680379604
0.07250729838973818
0.058528543587662615
-0.1307329062343707
-0.08246931063227046
0.05563143248864585
0.04805020732555912
-0.009692479475267999
-0.02957429635930672
-0.017650866778782175
0.003685343315790851
-0.010848944878077632
-0.0706584084348425
0.007545919713897108
-0.01129927570280854
-0.004627752217283294
-0.01971462619639497
0.010254245101987084
0.002748897728135398
-0.005948650638822781
-0.0015146636849943484
0.01934994573067929
0.003063016755381768
-0.04414671735964723
-0.0010316787377911902
0.00032967175110766513
-0.06810450926386331
0.02118876905514529
0.02535744021784934
-0.02310641829027383
-0.04967740278079101
0.22055192354365163
0.1760569090177555
-0.06547420884386917
0.014687055336500101
-0.05528137470808456
0.08456394223005069
0.045674506985670986
-0.039221055680890564
0.0016625658617962329
0.011829619414658644
0.009019907930258118
-0.10941380124684415
-0.016006687220951825
-0.009646589806248532
0.008472732479724443
-0.003987938161540034
-0.04690292245933688
0.04422688248900449
0.06836779189891361
-0.02877095786489208
-0.0008835243787413795
-0.03424496560683429
0.028629919118147724
0.013175459668167492
-0.0025687044117309768
-0.019940398615138744
-0.008679230602423664
-0.07022424671055863
-0.031600156578519084
-0.014000897300366412
0.010309549528394309
-0.06548476100540236
-0.0367526694570556
0.0008086041709271593
0.01630986751873119
0.06354003408037236
0.0459276963414425
-0.059728022628202856
-0.005707898698915232
-0.007218477977258382
0.018738137844776445
0.05813885756048713
0.03538167781694411
0.014850229680479086
0.020907948880022734
-0.05922760840082395
-0.02069121274396673
0.01818733521937128
-0.013670399914677252
0.026284660061503838
0.016603048506512112
-0.027522705736936836
-0.019036738968394227
0.009498659930501358
0.09063756112378339
-0.02879254843393211
-0.022079151663172106
-0.019407274763832996
-0.006529860926665915
-0.017856277959979478
0.025909838487201832
-0.003970359253033353
0.07066086049345738
0.005582528906837153
-0.0056902557043304915
-0.023414789989642762
-0.0018392977105000955
-0.020195685351843545
-0.010250664101596937
0.02629161297773706
0.03744494530087833
-0.0018392457618430804
0.05194112990731122
-0.1061842672158874
-0.04067550916450563
0.034196601922542355
0.11124446918206117
0.02637913556431646
-0.012977076345191903
-0.019144672710579052
-0.020672811856630204
-0.010429200490896556
0.01570518678382892
-0.1265604392948709
-0.13065359834715534
0.020109802348474443
0.020297583489163978
-0.04244060274870227
-0.009368722814374623
0.040544851985421106
0.031902584678599195
0.02123898929603437
-0.01735609314273082
0.024226936902510304
0.02397826297352275
0.020173084364663346
0.03128872423307921
-0.009344403285549717
-0.0035704401509955236
-0.017277578339880906
-0.037169000368423064
-0.0309464799870634
0.01794354531750217
0.05640462262182386
0.0008496028372224713
-0.02542552667623291
-0.005315889626154142
0.03559386615555582
-0.004035120472091734
0.028895422035727442
0.034287850475423286
0.006253201982638361
0.01836542337076947
-0.07002557657485238
-0.029448692396880742
0.010258824466326179
-0.02238297445901336
-0.002290110472514118
0.012104386303289536
0.025640269284561285
-0.007553775941938477
-0.009389068196247371
0.04311399723707071
-0.011531768795642963
0.029839884285049377
-0.02960944459450218
0.000570015183378021
-0.04935578403201958
-0.07977165149137459
-0.0009583519515385471
0.007786574439478867
0.0017400751868159859
0.018267388487773713
0.07699978122888494
-0.005731585525164852
-0.02271401338359581
-0.008530682730005117
-0.036173655377216625
0.08380413858205543
0.008080480800229852
0.009915722034365035
0.09701738828353254
-0.11008181773834565
-0.058815368493199224
0.016084300644278016
-0.024516794879571098
0.035591266377580796
0.017299963658251056
-0.018400205011684906
-0.03936327552799371
0.05352862982477684
0.012364491322648842
-0.01449591655760075
0.01078350437922073
0.018828356023270477
0.01903013219200121
-0.011230579620800502
-0.008942958111221607
0.00586209360976551
0.004520933678714554
-0.005625321789651607
0.002860684112007676
0.01861149134413191
0.009696156246985443
-0.005870036169767979
-0.03672844214472638
0.002799818945734158
-0.03397315150293508
0.04051261055961383
0.0071778456792649156
-0.005989061434947682
0.058765243790798866
0.009761040413758432
0.03334746958462843
0.01570288585579558
0.0992636969803206
0.024831668542025665
-0.05180607843926148
-0.011496859959728153
-0.03440090405235938
0.018947732917531518
-0.006615709319406245
-0.0124571821115976
-0.017537853666748794
-0.05760826435278336
-0.16139842144119956
0.05134959027168111
-0.040665836535720284
-0.02958607840020781
-0.0017762053237997072
-0.03051434541075886
0.12397694744313684
0.02229621504420979
-0.020699931892749348
-0.0007477374256426514
-0.07805884285909326
0.008019774467928089
-0.028404558721171487
-0.027392217335688585
0.01802697940468019
-0.019620670083565016
-0.01789690012996997
-0.0013085546644126449
-0.01949321509329101
0.011825814200576183
0.0024904885026611474
0.09126839197884905
0.04967982211653517
-0.01006228679140495
0.005678539740182519
-0.018345694451411283
-0.026614729257577335
0.020978622387755757
-0.009074845125933366
-0.005996995931778719
0.010970621488166594
-0.017740145943467563
-0.010884255363334478
0.013547444078419601
-0.027528942631709543
0.0486350167388794
0.17264282359556773
0.04373825764520671
-0.0685588106234902
-0.03855536660234187
-0.03817275035732366
-0.19134135325453064
-0.012111403840395453
0.003946270660659393
-5.439809920070422e-05
0.01705102953234358
-0.004867897473547962
0.009992161451489633
0.02037873433068285
0.013228102768693285
0.0038869641423545597
-0.02079609070996258
0.11049127196077514
0.040868507483266536
-0.019506055396309514
0.010705971174360682
-0.0039028850266262212
0.0435169053108069
0.007335329127176147
0.02235785701139819
-0.028238287835503195
-0.005661548858267471
-0.00539174743708609
0.3494137385106871
0.12759661845681947
0.026940413002837938
-0.13771246189951541
-0.22461908646836667
0.08271783090847255
-0.026403921745192845
0.004549907001253203
0.013644291371054143
-0.031481242917962914
-0.2550210352937095
0.016161885660839877
0.012792768170756709
-0.06250177744042645
-0.07790410840607002
0.008628761751641385
-0.003182977041929658
0.022465516208368317
-0.00636891326256764
-0.009379340451128424
-0.0216758587760233
0.006495914385897845
-0.01695253758155032
-0.028198541073322748
0.08549333206580267
0.059157339728385425
-0.018211624474079972
0.12963595174626816
0.0056753741344319885
-0.022046733611835383
0.14094705123259116
0.011765804486460843
-0.06943758715674486
-0.018351064788380847
0.021125906664047022
-0.18258183879076517
-0.12789522554741198
0.059823876201588785
-0.018362022539822182
0.08272093726443734
-0.03771363076954958
-0.009240979103772001
-0.05979123645559148
-0.08164126707592151
0.0030616432450625655
0.03903451065204864
-0.034423127286864655
-0.006287151792928299
0.06723883566056732
0.04389834658696251
-0.009183029799976079
-0.02018712417589908
-0.02984698809520896
-0.10159571416796825
0.04189684353190582
0.12061014284258756
-0.032340034632102346
0.014729654939549093
0.021938327018826972
0.01598089380454928
-0.03444177736055315
0.015861848036286257
0.04827002608918005
0.09615306874125003
0.18000431398251304
-0.016124477573614474
-0.01891248086317357
0.03451498344432107
0.044019590320841635
-0.007319351987477531
-0.02109021752319571
-0.008883168108566576
0.02709113582125448
0.010871319457244587
0.017395946467396676
-0.029549279026612564
-0.08901281311768496
0.06744899888477579
-0.010684700685031707
0.029241018675819783
-0.05673982894830691
-0.10993123529566987
0.051620524624746096
-0.02174051488491
-0.0283760906348893
-0.028543689665966834
0.017786572217510538
-0.025428195410586597
-0.08668288087635953
-0.13675272739213776
0.0044428293991748136
0.07247892609067239
0.052458547888607696
-0.010289753234407846
0.0340187577091084
-0.0811092600373904
-0.15786096343069614
-0.015080916261903254
-0.04669614535185565
-0.028128350126554732
0.11530871271379421
0.17817299839725256
-0.027167360187287295
0.018951910816371428
0.0788089615310464
0.036043889659283394
0.015576729731728084
0.04118037874826361
-0.011336577223287993
0.020828622431926024
-0.01889488680191445
0.06260509138528561
-0.017893399192105745
-0.034121366931433174
-0.038928538005199576
0.0039766507765611175
-0.06726470395242305
-0.021636686656937826
0.014753610160984958
0.016939547263756898
0.03116861516741631
-0.010711929056083386
-0.03285156046645099
-0.006506869804638237
0.0320208420103256
-0.015966250785365625
-0.010700494482203069
0.00707704700643661
0.012016801834888687
-0.010713128763875621
0.0165815753267991
-0.05450056803579955
-0.043797788450462664
-0.009252663719732448
0.01663417305152049
0.0373530493354868
0.10606039706089371
0.05090284372714596
0.008576935243745339
-0.10653177307715792
-0.0840904290067348
-0.02557605051496388
0.007848724728780199
0.08642671710756807
-0.051522677596810944
-0.006662151326065149
0.0261996444680384
0.029631596822763458
-0.019932422793091008
0.009117403382882295
-0.023672555914189267
0.0062047992611171865
-0.01248009113483119
-0.013927269689612519
0.004666052046405351
0.0006304668227042041
-0.02210395898280967
0.14012877063349613
0.01445660033433593
-0.029845082869948216
0.04461467825696068
0.0051709974564837745
0.01495318251710788
-0.01935931643828159
-0.00313025064395111
-0.03331420818093803
0.019427381061646633
0.0247954775861823
0.018880788807575124
-0.032284415101610384
0.026318612723684912
-0.079648789707864
-0.0036945508585829426
0.03335577350489106
-0.08121945194152355
0.008701170901655106
0.005395215028150603
-0.035431078621822036
-0.06121289738766726
0.023477731518748986
-0.016533941465046796
0.009409917116539426
0.02794885994317924
-0.013343475673761571
0.005760972847558042
-0.022744111514889413
0.005395669892883858
0.010440755615191427
0.012161626661950375
0.010363623973339406
0.05808471621542206
0.05442607994903275
0.011812350465934459
-0.005873459006311142
0.08946082580545858
0.06703364723725594
-0.04409681696863249
-0.07281184428538301
-0.03512027269298115
-0.09966454917744894
-0.08920137464977679
0.026316967856433098
0.014288309395879552
0.0007923138384601467
-0.06226910704159746
0.004673616229229562
0.008404654093459973
0.014764577941069284
-0.02647143204455913
0.02772008931284444
0.042599228842858064
-0.016550600458733803
0.03480758553274323
0.011206970128577513
0.006436862666754637
0.03869363816207698
-0.004480832584169518
0.013228038917041674
0.007534513731077834
0.021189752130750267
-0.02790283069887176
-0.015394482669542825
0.011328834275072303
0.009288246078408093
0.01890929222026698
0.02465634063931776
0.0052997131965594815
0.014770225071197473
-0.03470381057895305
-0.003726594142605709
-0.007732031985693916
0.018111834463670932
0.009681251668524953
-0.04077008946254486
-0.054355515908893155
-0.00026983635562210286
-9.00047950462632e-05
0.027913029742605868
-0.009745093098889898
0.0027352388218627385
-0.0018759530888615098
-0.0009278412785053658
0.027820179665293744
-0.0006355261741805302
-0.014142798467172861
-0.006565962086189467
-0.03570817972961259
-0.03750303322853913
-0.016759068302064768
0.029314455464284347
-0.012052379328334454
0.016119181576322826
0.027555521117624097
0.04384125498579181
-0.01237520697840813
0.020866347483531618
-0.05731925182239374
-0.1466885436571555
-0.00047670676467244556
-0.020808386503675714
0.00793219097381673
-0.027980363634482235
0.010313374979671457
-0.04456192090721153
0.0708384155892039
0.25655230129507134
0.013036816404926621
-0.022841692254580402
-0.009686060532156537
-0.0017364824908738066
0.0960761962251589
-0.008829865006509615
-0.004243139800480279
0.007208458085424731
-0.030977519824416554
0.0037394523067117956
-0.009538841162957163
0.02909028037903865
-0.05250856291969214
-0.01553478465181153
-0.007370723092430825
-0.02882853928366502
-0.043373157454816215
0.012916912569692199
-0.02485559962322043
-0.045730261452361386
-0.06883593475285715
-0.17894514737511502
-0.03149178950881605
0.02331961774947162
0.0539482495900247
0.05437318541501495
0.036830791830372044
-0.026796742694070726
0.061529936230904886
0.06684916823326667
0.029758520530522914
-0.04488722825558277
0.044374884865907877
0.1656875628091839
-0.01404573484566201
-0.017647612769531182
0.011103011178811337
-0.03106276255842217
0.04882086532363927
0.09064199287956787
-0.03288781743599394
-0.030589019223234624
0.011319611542131017
-0.022932695183470405
-0.022061578139053364
-0.013871796823664814
-0.0005430043861342264
-0.03081659612040769
-0.007081541448292214
-0.021026734558599956
-0.005445310223447518
-0.009391872840603393
-0.020914855398146016
-0.014772739912045961
-0.004025768861660394
-0.023579891087797792
-0.0036312760086526603
-0.009968243236537807
-0.014815505080560369
-0.048504713875730444
0.021024576796237465
0.10279456459770867
-0.06944127961148953
0.0421449978402472
0.16059810434154972
-0.02507207105400857
-0.00595949270965585
0.02011477511604344
0.02308982263649839
-0.05006447445896405
-0.030643861839340206
-0.0004634420323291609
-0.037594936594343716
0.0041312492837622195
-0.011647500285321159
-0.016660598713624134
-0.0247501203951654
-0.029239181641562417
-0.004725017362891066
-0.009141484152649459
-0.006682816165650363
0.012840231478102966
-0.021199247169764793
-0.0035593276476945644
-0.02102139139645272
-0.028886363481404782
0.011603330149726357
0.03715737376031313
0.004340183564468795
-0.023635231432461695
-0.03468962933973841
-0.016054867625811098
-0.005502339793257958
-0.020098387857974645
0.2246543269002084
0.09850677947590884
-0.03454549869776902
-0.011954181450340527
-0.0173660784632085
0.011038813920918485
-0.029853247653965114
0.0047021072070075574
0.006939342754141964
0.0075752572664879135
-0.040977872689980745
-0.0026471290050221474
-0.008119699476122942
0.004481001499919419
-0.02842636507759286
-0.01979855596217667
0.002430514192842995
0.019777712418323903
0.0033988034641517077
0.012695744719169984
0.03517521716676089
0.028526679650026192
0.01903991423624303
0.031395810597723034
0.0025926988625557326
0.017222978609991328
-0.06956362415941957
-0.023390611693573312
-0.007149847286804811
-0.0043415100373696254
-0.008451883371408363
0.01621205697837416
-0.03158728327991492
-0.013602718105037664
-0.01964251890580375
-0.013410646380953541
0.0049621417136135725
-0.028422688195743808
0.005619125828497564
0.013522779050415412
0.007837529059865386
0.01705998560373894
-0.013638728928958035
-0.009621293256888142
-0.04307922128266515
0.017451528202867144
0.020378476008506792
0.003269275683692125
-0.017909301932660493
-0.04827123278339635
-0.014412648213866132
-0.018211439680005
-0.019308412316877285
-0.010835342909778804
-0.04974610240032406
-0.017665042390307625
-0.003142769269084321
-0.012832536053062194
-0.008804169516684689
-0.02259159563676335
-0.025185744379140788
0.029404504149993686
-0.10817709696922875
0.10695907876217325
0.328661269101999
0.09059856266475828
-0.02396934584938198
0.029057306789709036
-0.012788203307675456
0.005650912035380137
-0.01860634405892156
-0.0005533021289681749
-0.03301302191714404
0.020838812757143756
-0.05954975762669549
-0.01686748486535425
-0.014112298531562005
-0.01751650747567172
0.015352976125362757
0.021889430597691772
0.027392384891773064
0.03994855857210078
-0.020543596888709176
-0.017680495155671692
-0.03046964348887399
-0.029807946752087873
-0.034016039054290806
0.1559649652244005
-0.0010697414357440467
-0.01229233038911254
-0.053390163438550485
-0.14326691056821433
0.02025463224858903
-0.0382900803392588
-0.022904426177906275
-0.026802850769674813
-0.024704637291030555
0.011179324518521742
-0.013657801488996283
0.021680871131225674
-0.015678732581374956
0.2695106918162186
0.12421555484122966
-0.08054923058317186
-0.12083594830325163
-0.05285878382620787
0.020593453659462455
0.003160791439238136
0.009429144868147278
-0.008630036275939178
0.006747066838472623
0.015665658045809175
-0.029994378963106735
-0.018368231134752937
0.018858023814052074
-0.02492013029388321
-0.020359902298215674
-0.0034562186105903774
0.0008409950219896518
-0.011671566621445742
0.020524395383329893
0.024340664687999773
-0.009420434918857672
-0.04087566507112771
0.04193609933619461
-0.0191823432473596
0.02205715303012926
0.07976425500287614
-0.04189544875077812
-0.023134884388760935
0.009330200066089513
0.012749144588868312
0.04871178772517284
-0.006246634111615402
0.015124486034860775
-0.013636214779290893
-0.037580162814139624
-0.006630302060851638
0.03457183380957173
0.06736178082174755
-0.015812806135055407
0.0013914584500444257
0.02051491087244057
0.0034619127282605995
-0.036707864202765804
-0.046499357275276945
-0.001745402686832151
-0.03423848232674366
0.011439087873426967
-0.0320382269820246
-0.11688484947144
0.0019672410197054202
-0.0051265632062784516
0.002976718401789966
-0.014794886410555251
0.028562496926589416
0.0015947937744762951
-0.01598605656301028
-0.0023195410063876283
-0.009458277986546998
-0.022729018892019427
0.046998814179728156
0.07579698828405852
-0.013992821231673423
-0.02597808691241126
-0.008981847683114762
0.10265741817285554
0.01841799451806647
0.007974285702146885
0.03275501335905065
-0.02835393207151684
-0.02705274602656789
-0.007531923618222841
-0.06343160743217167
-0.022778486649025296
0.14941681753239697
0.0061812214476320735
-0.012909965660632005
-0.01414814238911616
-0.06306507899066635
0.1072464341564231
0.18197532302703634
-0.0035240197718668996
-0.03806843581463915
-0.04909497392194346
-0.019192848903877895
-0.048321046957533136
0.01367856578156081
-0.027433089285523606
-0.10605454827704833
-0.014010247839320436
-0.02831924022215489
-0.013508869274665042
-0.015033568128956518
-0.013453895359442454
-0.005379327151492238
0.04577441718554392
0.02378440390537349
-0.04332788875456148
-0.041196164780771524
0.005740583652837517
-0.03761250055211119
-0.017474206218321433
-0.011497692646935535
-0.03167630830385873
-0.030901701992894475
-0.03163885791608412
0.008509380888470502
-0.018280231928225765
-0.0026492238405511665
-0.04953724686849601
0.02640761689879827
0.08020849832891307
0.15317225438446028
0.13825250190925623
0.02544250095828701
-0.02200797564559562
-0.010618349022951508
-0.017232204324496153
-0.035962669978114196
0.00844436867836989
0.03396227042996843
-0.07492489239770404
-0.08249599445496161
0.003891584216545185
-0.016507299259606385
0.054783881577562976
-0.03547356482887202
-0.021200183531745662
-0.02775413881860048
-0.045096148917380126
-0.061405584468551995
0.19839887329493003
0.03722029397299135
0.006746073052806889
0.003904627815617877
0.0369211745381198
0.019043196954330138
0.009439913511546362
0.0008724799634458567
0.004675610941569274
-0.00573013149436246
0.12965581509740284
0.02354861641172753
-0.025850814086443342
0.027655048849158044
0.06863888814469118
-0.011653480796244831
0.014057302583022449
0.0020910467624437406
0.021673960842954507
-0.03841308488908766
-0.12456000773323667
0.022214070324612856
0.004575861739277188
0.01132996329995033
-0.003375801815743251
-0.014434768850375115
-0.03177230330379868
0.09317533108370533
0.05085001599360539
-0.023117137464018007
-0.023549463760771334
-0.12252848999955673
-0.2288329341501725
-0.008711746911959585
0.047486205932708914
-0.01367441603009001
-0.00104330961617231
-0.028435758744138482
0.04972993089247431
0.05239641525274134
0.00771394412804068
0.005292448815112955
0.009450660585284215
-0.005923246813830816
-0.0009479282125489715
-0.026736338166866134
0.02821694269140839
-0.1692337112805948
-0.03322650792642102
0.055763815083055945
0.013345440908370046
0.0023116733402506772
-0.005441782109632227
0.03741143264828618
0.01579462427928044
-0.0005902966212502344
0.00838462065591355
-0.012796043678997478
-0.006552617117684979
-0.021889601698192027
0.028863714600050026
0.0023341611045996874
-0.030976846318519633
0.017010694231133473
0.013501771952337852
0.004746077911860109
0.01577819527140491
-0.006344496821437076
0.03627355502940153
0.007885029908668384
0.032820854542757495
0.035393323253046255
-0.0917037223063117
0.02898958983293468
0.014565392146850417
0.015060485146940342
-0.01596534850495735
0.0008415007989727951
-0.019103742941960617
-0.008664596461736906
-0.030431919049031243
-0.011607993114880932
-0.027077322794833963
0.06624109821350252
0.11413252705633055
0.0016624910090244115
7.920957348288766e-05
-0.015668323370022413
-0.015784953986116245
0.046210730684677785
-0.09906843783348893
-0.09469565086349815
0.034859494737360656
0.019506051382365622
0.016689359867234445
-0.012148940120927437
0.03329710424109812
-0.002970304926653071
0.03583932143143211
-0.03597104385032307
0.0025318119599632163
0.011809270041944134
-0.012229192092583453
-0.03927383962620434
-0.03557550601483514
-0.04187551958263556
-0.00585675510095932
-0.028352065590674255
-0.00926031355681144
0.04969608073446838
-0.008248259825567539
-0.02402282972700487
0.05782540631401027
0.013785431211671126
-0.028922694358817037
-0.009872578332359362
0.0020314655818304815
-0.005719435040215399
0.018708259075189883
-0.01953581459565356
0.12642625014037273
0.06300775432948334
-0.020088998764220267
0.004778734296566444
0.0031309065922405753
0.016014510592779474
0.018756770798993717
-0.031024899117467933
-0.001341646881709412
-0.007205870200205384
-0.004467960319900408
-0.0149996689097936
-0.013725501614797908
0.015559693059236605
0.011526153280561727
-0.020100012032356614
0.10639951788436837
0.06429745692119235
-0.006449031930652139
-0.0063016517643260574
-0.012245523938755744
0.020282897643421113
-0.0022847044503384
-0.003978548759080442
-0.031158173651247123
-0.010855797363633462
-0.01030846621352408
-0.016406183799384192
-0.0010941886482365832
-0.005186122517090995
-0.013238158901276808
-0.030764787196035214
-0.021264603823018955
-0.03423798715537651
-0.015234090721866916
-0.013584231586954784
0.0018627083953019282
-0.010778019727572518
-0.008811939003616296
-0.00357734918779694
0.009344066392828303
-0.04459795791808382
0.013724039303352274
-0.012195049768423127
-0.028366570021228006
0.006083748466525396
-0.015373431978691695
-0.03536320633291642
-0.02118958985413959
0.006045334069672766
0.09493117642106241
0.007233182735580154
0.005099397081846211
-0.0018488114351492338
0.1610431058233493
0.14437985658914249
-0.015603737875098108
-0.0967612405844683
-0.1592541599864056
0.038467598184327316
-0.003670857449811052
0.04159412432084438
-0.021752386673804365
-0.011231057371300571
-0.013985438192720483
-0.031142363906795596
-0.0444956181713597
0.04880446379425739
-0.0350308472982666
-0.054701259361039756
-0.012307562989450354
0.015986467402308736
-0.0006003732757414124
-0.018898078995001566
0.0005194560715409705
9.685349718529807e-05
-0.005851273047819571
0.03593911151388619
-0.038123936684999866
0.08005293632981751
0.10083024181377154
-0.004957694494113786
0.021146341854051554
0.057034106409307464
0.0280655028152531
-0.0006475018210571298
0.03330841917614649
-0.02567454627064706
-0.002506249461745499
0.022527266630717198
-0.031929016907509426
-0.010638957427606533
-0.029211220496899514
-0.10460531709590018
-0.09840909771938401
-0.010637519662259008
-0.004072600100950393
-0.000324033483222813
0.03391351979322203
-0.008802095277675814
-0.004796961878764129
-0.005369646193342298
0.07493654833172277
-0.019884199276891792
0.01520020869994981
-0.0096223441813082
0.023118692741719182
-0.07170202777710719
-0.0007153387097727321
0.01884440317293806
0.01993931805858939
0.016484414215020463
0.004974724830549681
0.023632243506451673
0.05453268979878767
0.023023300022449775
0.04021384219645124
0.003911833337533056
0.0038324085958414385
-0.007214008616302572
0.010264700312756598
0.009614809191291152
-0.007995975569805249
-0.05109884855745806
-0.022644395522901224
-0.051036189503677526
-0.02037481625544536
0.011333652000226993
0.011600390713876075
0.018434005286861482
0.021548565194022016
-0.005101036857333406
-0.008962068124021765
-0.046786506224982295
-0.02567418646996293
-0.015588777358781489
-0.013804552598548453
-0.008690662691263963
-0.012801496827283298
-0.06913156372398693
-0.02665158304423845
0.008434539097091819
-0.005149586943740045
-0.03269723050230488
-0.029586580847678158
0.013155376657950791
-0.010562293058790447
0.021903742010279583
-0.005457484273412437
0.11876983492856498
0.2052859236568633
-0.03263638361280043
-0.015671732780803277
-0.03047198543263064
-0.0527376649448876
0.052156903101118535
-0.02552560505696863
0.017876896306681364
0.14583943589387943
-0.01328585016130076
-0.012329031309464368
-0.028093729294780188
-0.020458129377194857
0.0072573021077571125
-0.009620915011652539
-0.038961163822904356
-0.017329465196086496
-0.038528920796301595
0.0065180653908932336
-0.019251121094389406
0.08477005658938029
0.003296832943199549
-0.006106240626818745
-0.029775875383406182
-0.0021230285942740535
-0.0006374702147414376
-0.018396706612258763
-0.0043606901845129435
-0.01898817932015142
-0.021206812385080473
0.017388922400033986
0.018931370701777868
-0.03085983500387332
-0.03760956402057743
-0.024528523745855096
-0.020245820600054178
0.0046067966218919405
0.0012881310415863323
-0.012746616257791995
-0.020076667123076937
0.07150155732453084
-0.04594782095166621
0.06271087951551035
0.24720495813080526
0.014526947092434508
-0.02700034160795952
-0.0347013004619684
0.02602916761220348
-0.005618606139809389
0.03457585541199157
-0.009905293511342577
-0.03587539442420694
-0.02331430313634355
-0.0019957548822481692
0.03110348466288507
0.02706051684129622
-0.056901872097392295
-0.01165826089397691
0.013809611634468444
-0.010619475896584313
0.048376998731540714
-0.05936514561971283
-0.09522515114363492
-0.013552113797272154
-0.004506977077724047
-0.0464004857999867
-0.0033478106383861552
0.020930616809680662
-0.019496921748823934
-0.01063630682430859
0.042522745707930784
0.035076165278317056
0.006545688951373131
-0.009068073131836784
0.006588340316774528
0.08831108128587352
-0.0007004288860505575
-0.019752173858327678
-0.04666396682354784
-0.03167128190189394
0.01614599391023815
-0.06740131669778027
-0.14642624640975407
0.02341352899323375
-0.022910906897096732
0.00748109978205698
0.01397790900966852
-0.015129673372215005
0.0014835592907607574
-0.0023171170848704506
-0.014272641300970309
0.022497690550785394
-0.05212042358448682
-0.050207073110789605
0.06007340118229504
0.030098348113168458
0.00980073869654531
0.037483305592733156
0.009429310674858901
-0.014279167716721379
-0.03815117685219779
0.08654278795125493
0.043798942756690606
0.0004682161131702815
-0.01880152793386471
-0.0015511605393649344
0.024077631666381157
0.017518760631681396
0.006019257855983955
0.04211911710049684
0.0185164984326512
0.008050567554258852
0.030818926901101825
0.013700679728574945
-0.008469142062446058
0.018944492195271296
-0.0043077043944378945
0.02128127883409091
-0.05913412078102137
-0.02451049579091418
0.004878269751476282
0.0055234517820732885
0.020184535212221928
-0.01036807218200628
0.003720098664018124
0.039692861753508224
0.06118737972200891
0.01379424051610891
-0.09778545821890684
-0.001658853694557993
-0.012120397748296622
0.06773938520356758
0.07717073362267671
0.05004752466002082
0.09153260140691255
-0.03470148440297138
-0.030271960634531494
-0.00955964575134704
0.026922572255066272
0.02733645755400094
0.00847717268782765
-0.01171634261458737
-0.0523522472331488
0.004925121791683648
-0.00504365307634687
-0.24635988635445163
-0.07086332053593175
0.02915386088801662
-0.0017412074318124734
-0.11325857511378846
0.01871741552050397
0.03231356928024294
0.0028894358612147394
0.01079840001553632
0.0015009669830123988
-0.06537207115482445
-0.24394160078263466
0.11273363058601242
0.07474084671358812
-0.005148813766634062
0.044109269347818995
-0.0007364411943063697
0.016986754009689794
0.011832967532711361
0.006807697148845582
-0.017424764663757055
0.0012811238074530997
-0.009878837413574496
0.021779598578599527
0.009192908294593795
-0.026258374601115998
0.039469305326484405
-0.007208142382797441
0.03013771892742313
-0.03314241157623433
-0.018680719035075472
0.0047836498537855545
-0.09343485772749656
0.04617258212608079
0.08938759912154884
0.0029228910488935528
0.029672801468723784
0.018367481929159216
-0.018010474993984324
-0.0565418673175356
-0.0051044075440568
0.019249259050203332
-0.00915830380151467
-0.02179035731662569
-0.01654495079885219
0.13667494360022747
0.07466804221437344
-0.00640853829466278
0.033936041283953694
-0.02846146994146095
4.535615025765708e-06
0.0013791395572859647
-0.0006373111835015822
-0.0329000723151859
0.02291637956506043
0.13141672565038032
0.019394853742811587
-0.019880764102639056
0.011180838786709339
-0.036933849215267475
0.009913249625882912
-0.04015814828094638
0.021009654847639635
-0.12202092331154943
-0.10326982021334886
-0.07057416438689147
0.008698843208880015
0.07061621204618673
0.014753963053478796
0.0020787420783277594
0.01001800232761069
0.014526407026812793
0.019700964029815634
0.015081328718831813
-0.041622409865841654
-0.0012420881941979003
-0.0025278114633220695
0.007658318882787838
-0.014950340883249393
-0.009215921635620912
-0.005577440652298068
-0.018803441627240514
0.08827852547397912
0.05467348992360734
0.006618097134655331
0.02692151124030161
0.0023762684225874116
0.01831612854734113
-0.022558710477354527
0.12787550851624263
0.03271809673997646
-0.04169356081080607
-0.021735552502206504
0.00018075534470229243
-0.028747785376763844
-0.0019922782926117895
-0.03225090168861018
0.023036907975015865
-0.053529636636207384
-0.08318322467345161
-0.026525985327398933
-0.005153391461127119
0.05871084936602635
0.000352857277735551
0.01666396930854409
-0.10416522563133171
-0.013578358689523633
0.019590130294589142
0.0014326193752715736
0.016469067198351794
-0.10213377107792661
-0.13344423843684883
0.039095948951367
0.006866710388523002
-0.005657383615311479
0.002079012263872919
0.0013872574227103858
0.010508683377964036
0.030283710309999795
-0.022684543774966478
0.010585083758167043
0.016113683914798903
0.009873302132265002
-0.02221776478130115
0.010859082411736451
0.01784901825743755
0.030969594842548187
0.04304942085895742
0.03632178619159167
-0.011101076162468233
0.030224665662588582
-0.014043415820534488
0.07080083278790743
0.15244574742643463
-0.005377488564771184
-0.017046698883953895
-0.03423861832228567
-0.014968284947002619
-0.021431912584969095
-0.013204206984461597
0.013134064955077816
-0.04672182695408754
-0.11054012031234443
0.014028630614243816
-0.020071831914062394
-0.028395248436500806
-0.040272015464687456
-0.01410278430178892
-0.0009645973097989274
0.007145938841015235
-0.011321161293712415
3.942958577659783e-05
0.009042610596413592
-0.0026837702347698947
0.027667626320618366
-0.005179944930003908
-0.014001638927366392
-0.012498879400858013
0.010342146231814052
-0.019153689901830064
-0.007103288209758225
