0
-0.03907682526643317
-0.014285250777164124
-0.0006977172788503314
0.017569087260263898
0.005255720945278806
0.002205048641966041
-0.010323817732340963
0.0046151360849062155
-0.028959522601020075
-0.0038835461902464036
-0.01585982833892503
0.031128476802441817
0.03117908446940126
0.01180779171464621
-0.030564505593967266
-0.005574897878898365
0.053469701323694996
0.04471528384364755
-0.028655581132709818
0.01990666392440554
0.07432436392213808
0.022305240057497816
-0.013207969990703934
0.010944793421286491
-0.05108744536106914
-0.032163308272519876
-0.07924924439214204
-0.048905845765184246
-0.04385598784429666
0.08500509648362288
0.13864921343527764
-0.022694726615341405
0.034375973027921364
-0.05376044171707588
-0.00833056747089914
0.007034189567490182
0.011571791990660368
0.038060797832428786
0.004877248313258996
-0.027355032858703048
-0.009619944385429327
-0.0042416431382617924
0.0030502320435862144
-0.00573811287509934
-0.005665511494659487
-0.08272984052475979
0.05431776661866689
0.05591256858273264
-0.003302448282569583
-0.005814330790809287
0.048721057158595746
0.02259715532588087
0.002718759493986532
0.005548388289419164
-0.06408888763257539
-0.014590861047534492
-0.05193972793396823
-0.041791108851927855
0.048854380957997476
-0.08564345747535697
-0.09501096411167863
0.02436215175100814
-0.007994734146238936
0.005397705634485942
0.018636393429743003
0.028407642280004128
-0.01419320674127159
0.0016575637702856303
-0.019296451397470913
0.014495670497718102
-0.029801161829802515
-0.01736024047107714
-0.03434519906777736
-0.017043104886778335
-0.007247999055822965
0.0248217722913182
0.024092710614711108
-0.009888993505395257
0.01973596228643372
-0.013555516971318302
0.0169664527213725
-0.03298765022989402
0.04515047381320984
0.12782747477360726
-0.0023336711220131707
0.08615810315888664
0.015102168406168967
-0.024981335576923686
-0.06427523035119184
-0.008012217264629303
0.005113451024688898
-0.019362970226782916
-0.0010081634526247051
-0.003911036070496238
0.009534010456450212
-0.03434936448065373
0.006192811276018386
0.023258812454633137
0.006510965280519259
-0.04240381400176344
0.02102068383549685
0.020476549297067038
0.02897369199845521
-0.008135962781410088
0.018647618512533857
0.025365289998181068
0.004048186389358211
0.02700604773783086
-0.010081478335672417
-0.011684226611025658
0.021569679797613466
-0.01849944477805315
-0.007947943597982687
0.014883956222941055
0.042769224220279844
-0.05038152894073925
-0.04241812248534201
0.006025200253239587
0.006023416457618819
-0.040068135065153096
0.005859257899224144
-0.0034299507642607035
-0.022810703970148425
0.05077231881057791
0.028964806793270344
0.0005904051984615749
0.054821080109619516
-0.028227047778923556
-0.028320538980106284
0.029151473897130374
0.008186699836796773
0.005806917004983576
-0.012483172510429139
-0.17934131775141185
-0.041740597101666777
0.0012153716056216243
-0.018515692935005566
0.007015031118997908
-0.03895623518272903
0.007118953135915066
0.009998965233432666
-0.007440019520985273
0.00760050532584915
0.08266114547329238
0.18716311987069642
0.005099330533719476
-0.01595330869500123
0.0010191172610852332
0.0013151017348799088
-0.04094793265226728
-0.02977328717110944
0.0023129948048949715
0.044193138037464025
-0.0046416597848742015
0.011667789391759772
0.020414801874211744
-0.020140411690595626
0.02419648901822642
0.03844332388805359
0.017490501947949325
-0.054284274456651065
0.007136420096276613
-0.030705883180204264
-0.010150331002653314
-0.0441704744334808
-0.06404117814361038
-0.02169821423052505
-0.09955593720179204
0.01318644490165224
0.01622001270597653
0.0001326891498486982
-0.003199422448107953
0.021558862386439753
0.006150910334741553
-0.05654497935869524
0.0014410541856058805
0.022931295210465066
0.06941598932139816
0.024051216907879057
0.0015011192777431314
0.023536506031259858
0.022625429064670625
0.01697265776279417
-0.023722429466026682
-0.013828596440698856
-0.027468310657748143
0.02265014223500332
0.04845492470135932
0.013687156240385589
0.045461013533460354
0.03272209834201996
-0.01060650651393979
-0.04178302123914652
0.011201573009562371
-0.006134433363014373
-0.02179104832203895
0.009371016589881051
-0.004858329738745733
0.01584110125044378
0.006226554562523423
0.0004104863997710617
0.02997227511712323
-0.04190539773923633
-0.0204350466889455
-0.04476376774159939
-0.023993536225553686
-0.02209919533127102
0.005753433435712318
-0.008775127159550346
-0.0013155240778022531
-0.007321952791333479
-0.0007129924426637106
0.0031433009709354236
0.01865222386445751
-0.06492508725501606
-0.043960094200346835
-0.015504938329865353
0.0202466033186443
0.012897704242698857
-0.004352867171680309
-0.021244436711193977
0.017774728805900007
-0.020594018242319562
0.058814500497882435
0.08157005357451924
0.020937441285383454
-0.031826159703483924
-0.08492197558584844
0.0026834864710485774
-0.034542726634119454
-0.08645173912680747
0.020019561126884928
-0.025078925720631567
0.05751636712506292
0.11097047015099581
0.009497811293461698
0.07214219044966007
0.05663700588165647
-0.06000135383442316
-0.022343727477265256
0.012067356287748479
0.0244297384643712
-0.03801071382432936
0.014031675755636021
0.08312293814326349
-0.01315625948622761
-0.02490996054398704
0.05792505112264213
0.06822288495925098
0.02389840453956621
0.060854470674009634
-0.015311718539814879
0.012489512618461217
-0.004610178757310898
-0.009134781660394619
-0.004205044343440953
-0.030476520084366056
-0.009932651623996992
-0.14873473894978254
-0.0380237287029867
0.021601922610954134
0.005722507529250622
-0.017905324478434518
0.005185605811236251
-0.03526721398673257
0.013223071569072195
-0.06226220140579066
0.03347521190703469
0.019972372968770653
-0.12942491630942263
0.06322211289525045
0.07556103365740448
-0.013095200694246334
0.005251419484540841
0.0037608774672464027
0.018710640298967417
0.01011759778013344
-0.0013650594673905775
0.0023512171363834324
-0.009477889587994058
-0.04496308940486863
-0.02813191063409337
0.00751146058374477
-0.04588730546592185
0.010241883067482683
-0.030757141793424377
0.05221430474581221
0.021034528081907755
-0.029023913950620345
0.01500031935449046
-0.010296943162056385
-0.024671008354642688
-0.0002891145947965354
-0.004281360240420372
-0.012290790849025695
-0.013387437509856026
-0.03620564727337099
-0.014762997441600147
-0.05807594221203003
0.0004818648833037717
0.08060435521577465
0.04984887457085048
-0.003565256933118119
0.03657364577178028
0.013987393937676777
-0.05328002511724443
0.04546991863938336
-0.02409703344480113
0.09106510971041155
0.0679222641428828
0.01655914087283898
0.01480217113342724
0.08180971860084121
-0.04701228906294366
-0.12522172475782292
-0.046566924590716076
0.03751005284255661
-0.01436028683526715
-0.04063911413334928
0.0009371113628186385
0.012728127216352664
-0.04917735551726547
0.028793983590409317
0.05601239321681502
0.0031978519556784043
0.043291500424438
-0.08401407831928369
-0.07820999211121084
-0.03028951442869201
-0.021046418514113565
0.003972361100467751
-0.01096354151004353
0.009252392097621976
0.06493196841187843
0.025592140729840878
0.016615877196428645
0.03412220226831688
0.10298038813451522
0.16197690706631976
0.03384533677380021
0.011650849171441451
0.013610155977460868
0.006510548676296021
-0.0159957352001129
-0.027608942281142017
0.0073586317484771145
-0.005264978556771431
-0.020744686668447872
-0.013389019453644284
-0.0246888348859836
-0.02098084253775294
-0.02867994424389089
0.05277209998255414
-0.039280742209488274
-0.13622819303529204
-0.057281117510755174
0.02269561520795812
-0.004153490912011543
-0.03740571309606877
0.03518933911697022
-0.1616312435426033
-0.11815867057079481
0.05734452973247037
0.03277246868730723
-0.056674462407070705
0.006111834371696347
-0.01397269055466227
-0.013016413046775668
0.08593437299563282
-0.06701171757016988
-0.01291501431209913
0.023200971665188055
0.021727267615082667
0.01983965830385334
0.08935318351772693
0.1618290284064091
0.06008359351278837
-0.010982169609145439
0.034969527112560767
0.023675178948355337
-0.03100565312453421
-0.02694538391456877
-0.023103195801646
-0.005942767368650638
0.009517913120585923
0.03227980041424344
-0.05231685877833098
-0.030756593936908855
-0.015837038972976992
-0.008768770278246551
0.004782838421213453
-0.023371284814577273
0.016657795943671568
-0.004493769128103237
0.022748966146528604
0.029747275033537926
0.023827106674317408
0.009542783752062063
-0.012275545700871247
-0.014370162377273477
-0.06907742232219913
-0.03799786274373469
-0.007037252785587083
0.0014238166866228695
-0.002368476254014348
0.004961420618680698
0.027370836630694863
-0.01340207151098777
-0.028471953321095204
0.001171880788227803
0.021243401615309587
-0.012809677348152984
-0.020164788568197534
-4.685754404225502e-05
0.0038517809078079733
0.0013502733004450882
-0.02155030072166794
0.012631252788088344
-0.048892233380613465
-0.015863710390660524
0.017724016688160718
-0.02692933679382299
0.004881457941707851
0.08049700988154741
0.05382252601476011
0.018516107163651294
-0.0028438572423747015
-0.008144150373421984
0.005718035720595744
-0.021165359859103363
0.028821442465576535
-0.008615416096277678
-0.030119337000199864
0.06876917836987799
0.11400337501225685
-0.04443150941330642
-0.022213991123796177
-0.021340618039268833
-0.03475224741898022
-0.009630760504653238
0.04582950736121644
0.02678362095600189
0.0023696731365832444
-0.020321031211411947
0.00294212447671352
-0.03715513891594161
-0.04753586607413651
-0.0025978484360392223
-0.016850661357302323
-0.05282647955241714
0.013359474464828332
0.0019232886873309792
-0.026047525923007266
-0.0032551615794230784
0.0008897122193916286
-0.030283750358524555
-0.008630970061675852
0.009348207086910146
0.003734845441665987
-0.02948068178101851
-0.013646865028118104
0.16010600027067107
0.06657645280421393
0.020250179563460532
2.76765829369494e-05
0.047738370247732
0.027492426240360208
-0.07585585953207254
0.020110242870834644
0.01854876426138063
-0.023964674889482694
-0.010291411875220284
0.012958114091495209
-0.024377993653806076
-0.018283876384746486
-0.02411795577038199
0.00786774505984022
-0.018709945580826136
-0.03395047870741465
-0.029265917949646128
-0.01828068372642262
-0.004960245065337406
0.009450823841824975
-0.019839756646520768
-0.02469597774563721
0.10125010058209159
0.023875867384244607
0.005119015581926073
0.03760789063934777
0.017732645605706886
-0.03783965178378817
0.0030026831775661986
0.056425641271079914
-0.013265258772960638
-0.03347314972545219
-0.022627416012683046
-0.022026333296476484
-0.06326207021741503
0.006027362747088506
0.007555505301388798
-0.03793273586736548
-0.0014462326343174996
-0.01953258116261321
-0.017748925955851362
0.011107056827308396
-0.00624010698215892
0.021499669550312434
-0.00011804156070824911
0.009223739407539804
0.02518098057830934
0.01669826869778729
0.02590318333052023
0.0103764607628553
-0.0054457381737065816
-0.011554893128375383
0.012833690205064243
-0.02929199846112211
0.026119294840254367
-0.016464025067964926
-0.07833763404416193
0.013982549519156435
0.021882939994928092
0.02048830339008956
0.010062430036150673
0.002973594525016216
-0.03206749076902477
0.04430353122729051
0.09444470098115998
-0.02222104933124159
0.009101191156498399
-0.016452737991603936
-0.018902467677426142
0.016995273015043114
0.005496669379650535
-0.0038562213811883825
-0.0030620282925368915
-0.01249668698209431
-0.0307583327934991
0.0008682247220081566
-0.008230894881275739
-0.01272858285076835
-0.01598793444750572
0.00929088351743599
-0.003523524351357636
-0.007622411465520793
-0.00045606777114090547
-0.02982532585732883
-0.016239385771097854
0.08822113785875065
-0.040548729408749665
-0.09743308597650947
0.004439337761571668
0.047573969982256895
0.013279805915120714
-0.021951132479551508
0.03996206804803978
-0.0029772833737743503
0.09461901688200267
0.07849360832431977
-0.011266757402479025
0.041602598524939874
-0.022948221289867805
-0.01801133303960778
-0.021572522547207477
-0.01622624860405974
-0.019458962999911296
0.01666979240191305
0.056033670785713745
0.007156613349356404
0.007865215479044273
-0.05796400830570333
-0.03339684265198813
0.0052375389632981235
0.020662043162323864
0.04031587196096745
-0.0023892901815256583
-0.015100702043628728
-0.013089638915038743
-0.03312150789900117
-0.009569225826058717
-0.012410411928138377
-0.03477075657176568
-0.11588509024232103
-0.09400620864759454
0.02959612242427099
-0.006116241387234463
0.039803177941226404
-0.05595727940945927
-0.01666792067919556
0.060159357240312454
0.03405867587646644
-0.0036439571969910157
0.009888509949431874
-0.009959871923139949
-0.009341480158537885
0.04926282105950759
-0.006473845076734554
0.01741503006992977
0.007116094785727307
0.04973111555242967
0.14516009774748267
0.015730268920496938
-0.020764000630188024
-0.0003693664692512688
0.01709745670835471
-0.0097477327813562
0.008699451089175038
-0.03425394281283749
0.01515455912284491
0.030503780296232765
0.04976319389293902
-0.010897080530001733
-0.006119732353729453
-0.03282561914214025
-0.06259633440204036
-0.034312462679498355
-0.04927209073786447
0.009609977195981985
-0.060437919450099346
0.020776497871269076
0.08054866843768474
-0.015176214364617068
0.0141440890684634
-0.06007664785112519
-0.060175853136385786
-0.019360470417007163
-0.011217285658472777
-0.013812348389498
-0.06520562415563896
-0.00464862819175376
0.03795818379355914
-0.00792820036639477
0.015494011010767077
-0.048866629677571397
0.027277032010598515
-0.03153951773107561
0.004757837571946742
-0.04542224618175733
-0.026718954787619296
0.11424659905145766
0.01075698562811
0.005473954400337124
-0.0364767772985866
-0.03970396156379156
0.08647601234142076
0.09023445003335337
-0.042201112910614916
0.0019276776946152141
0.01620401768855686
0.024508364296522735
-0.029453367727072573
0.0020814837482968002
-0.015303603791882631
0.09885120067714322
0.004219682820553701
0.009702837990974562
0.058869714873557556
0.028155160232592007
-0.02430247566656566
-0.041189192927402016
0.014993355339434671
0.04204756131767645
0.0054510979464814785
0.007622785454563824
-0.02038062476652629
-0.006364714661459507
-0.01075557421298446
-0.003303023539302445
-0.00378452487877893
-0.011644396138292018
-0.04414025382378373
-0.0007010424810986287
0.020755922149242757
0.15483406185693385
-0.032586259903291885
-0.048157447787274384
0.03409950169763132
-0.03978609757173512
-0.04256036139197496
-0.009414455641830213
-0.05006723891183023
-0.007164902409966146
-0.005517606653721234
-0.04418160820736956
-0.08563077994201433
-0.030963526309835208
0.012692853071499916
-0.014436213474316966
0.030945488619064928
0.009209516081114269
0.010131065253650925
0.02977424465862822
-0.0026717280204525246
-0.02830859176252728
0.008200151848844716
0.008746715285692546
-0.0553379719122467
0.059834796784325676
0.1042786452105
0.11983460568413022
-0.013336301906622902
-0.021150268116594408
0.039731367826426424
0.10023321023059831
-0.02899375825970373
-0.02662388945229857
-0.01379131807701634
-0.007314433160684818
-0.007258829735015747
-0.011830417953613904
-0.04169794714371427
-0.003071672346548561
-0.005937407453111295
-0.04245472901498436
-0.03219279602989899
0.004493344501474433
0.06380390639431485
0.0034439670698851923
0.022124761661710658
-0.013451814262175142
-0.04270195576762885
-0.0036692585490293835
-0.06346919287580535
-0.07824653465435531
0.011359396146322366
0.023082687336573145
0.00856005624413974
-0.009934343172703518
-0.04125059050460024
0.01432260010968324
0.01187433177240734
-0.0009942642484666586
-0.013254381393755779
0.004552627500124157
0.03672593055417854
-0.01872806239075237
0.004505618575004028
-0.013671164095792864
0.013307406213731273
0.007571566507428513
0.021069874104717667
-0.001847362394032616
-0.027870637348340013
0.004980616133622536
-0.01851628887941562
-0.021763305135326327
-0.022520014233452193
0.0005838176566402385
0.013351402299226283
-0.0038493263157158555
-0.02113801695045062
-0.04122410372008656
-0.00010081617870520274
0.17056317377963792
0.010805536986929326
-0.040785998678440204
0.04906946186680751
0.038778890633734395
0.009645451548197915
-0.11504144305866068
-0.06106515059525052
0.0334119647803492
0.02116704415945734
0.01592454662255601
0.008311899521477031
0.00950892364135013
0.02113133388696556
0.029353847148216965
-0.032008600798203175
-0.03965574483670427
-0.057284824883717375
0.012995906982813365
-0.007477201563650559
-0.00810339157035651
0.017709418792288812
0.08866414621103369
0.017557616542408557
-0.002976836350806935
0.032592423267113715
-0.002374735045662384
0.03364450129425118
0.05915769875323831
-0.0156233644679882
-0.04515377103112363
0.009483872916255107
-0.004424020669385754
-0.04189178994694039
-0.0022200214111801017
-0.021595609643355156
-0.015256342077081191
-0.0037966767884120532
-0.061550332059481835
0.02504252875925768
0.011289303621871333
0.03460990633300733
0.02735838130990322
0.005437708270565257
-0.025383657999629116
-0.045010650122696505
-0.010881209759001477
0.016527234328683443
-0.001593630045417401
0.05032186806844835
0.01804029767216805
0.003591370072971905
0.013795073674950482
0.015534731979382583
0.004325592716725373
-0.006888638173267743
0.0012187889412136957
0.02031748639635374
-0.08575221466208646
-0.06230952178155924
0.04786732518576279
-0.006022423836106614
0.011717513309359604
0.028667765474428245
-0.011837638062779038
-0.015315194481906639
-0.02115014124554974
0.008156433316838034
-0.0006784910357522197
0.0002494254425484312
0.0006958594892461993
0.0078015226136804484
0.026492371431878936
0.0585367631599566
0.00412791995499645
-0.040603651154824325
-0.027400799940302277
-0.038476946205990306
-0.01963970679678268
0.019325967954632928
0.023090296639975465
-0.044511348194127685
0.043761923968764306
0.031048485608373703
-0.0019619324334364694
0.0017517635942944192
-0.04719365009526335
-0.018305700032451522
-0.003893967872661632
0.017410974287336754
0.05343991674452701
-0.12138659391960244
0.058623078098082544
0.030739891685110314
-0.1185288644939885
0.030477250939334774
-0.0017759910516770734
-0.013512455987311298
0.00895468822181683
0.004934586495124115
-0.04090346494360784
-0.02008491440546805
0.0011236327626544945
0.007027812577905373
0.010446369728317303
0.011139482510917151
0.015695879696750563
-0.01386990058720407
-0.008940205933590043
-0.011897296488883565
-0.03583819651231504
-0.016173735755268884
0.09360011941291758
0.10495102309436843
-0.03784189627709842
0.03358663001073966
0.042525292707963916
0.02602093736296645
-0.027625149649508875
0.02524523104840766
-0.023269040567553224
0.002249481116667386
-0.0034780501500871245
-0.03331332429962846
-0.02898398203315248
0.02338351775334214
0.024296691687665135
0.031032651060775403
-0.007873351267115615
0.027786278693032723
-0.023710704557645002
-0.04157271660888767
0.0007620218889043199
-0.002763448000446865
0.002608358876868945
-0.01024779796278747
0.010676410692865922
0.03275100094691988
-0.049627747555937005
-0.03564393728486667
0.08389344574811787
-0.004449793540681405
-0.0279821965143389
-0.059589279672536175
-0.04393890727596516
-0.05306656492367395
-0.01996465091344769
0.03424969481317429
0.00806627932656294
-0.002178158814382079
0.020140594566478605
0.050345796784746585
0.026479136833542007
0.02270308397272826
-0.013900027076057057
-0.03038431775564334
-0.004628217605576336
-0.0029661733330135294
-0.014897446282396185
-0.008427392063368665
0.08489509024889728
0.04326376842166692
0.03279760720721578
0.03651764508379843
0.04394985689019373
-0.022190039726225384
0.016148696701610135
-0.12592440889780326
-0.029855750957478295
-0.015585720608344475
-0.022724701861466575
0.03306775555370058
-0.03819670055709566
-0.0066789650568404675
-0.001272308734209917
0.035899674070112166
0.019081282496425746
0.04255295363076654
0.0327133817840696
0.05205314267304837
0.00038512811606696283
0.019943299300190932
-0.02652722866580039
-0.0008080825743680673
-0.027856895989408104
0.017640588281239645
-0.011894016360584937
-0.08344180528593757
0.0214550355855102
0.014212095095692132
-0.015047428831016662
0.004319315466590999
-0.02345472567505827
-0.057779418234341566
-0.06120368481339597
0.000956252990304447
0.03498541707630731
0.011885022501302321
-0.02087725219887409
0.017895671166087517
0.04463443467420934
-0.016546952585226156
0.019358475509346086
-0.07482104954591609
-0.06550299343143334
-0.026632406269657873
0.024519376147160127
0.04231356795541057
0.051066999413912836
0.009215988122629314
-0.0362896922261991
0.02703577549308581
-0.009980051495501435
-0.006144544345506711
-0.003907955714638019
0.013186391303659603
-0.006850183925357682
0.05388232223819091
0.01601035277706232
0.005248825330344656
0.010697641728493846
0.028515539321766228
0.022036579380436915
-0.008034811191552593
0.02123475469860162
-0.01443517687829231
-0.10692183323618522
-0.0065597693627395875
0.028181103574649886
0.03675695301159798
0.0005162752270753726
-0.07015738878249304
0.021878897348148525
0.12298860538505091
-0.020107603230350917
0.014379679219602213
-0.049023890007833915
-0.0067409938276741625
-0.17824106489826264
-0.12584562366029983
-0.003028486565776243
7.579026537216737e-05
0.040422025715639576
0.09406542290969648
0.030501747134540107
0.04496429086727455
0.019623136358286
0.01084432673470527
0.010526659357487004
-0.03604932475490762
0.02341854454660383
0.02283653329598876
-0.008277929259855063
0.02583510417665227
-0.018546890490003513
0.011053046652705498
0.016844752485212732
-0.0020015259378817042
0.008726760176267256
0.027810651809062226
0.013782918585538376
0.0968891795817906
-0.051170907758870475
-0.02616860142814552
0.023102983693284455
0.03762205933027172
0.06531864384750938
0.0373520929297166
-0.015493979338441734
-0.019205233452904705
-0.02430868717047148
-0.18454046880495004
0.006064446501231998
-0.037115640574967336
-0.02301569220308223
-0.13805635003483752
-0.0364593042030857
0.04469628354558853
0.001965089161378647
0.062009948944600206
0.03022566041896366
0.004026020529445217
0.0014391020412658274
-0.00876715655574612
0.05629377491178169
-0.004687435772115912
0.004783203753834592
-0.006313833006519327
-0.0409827033343498
-0.04379783125756674
0.011220488915560418
-0.016316474113448408
-0.041776864569309215
0.010897970109411575
0.0890517047440537
0.0782356787988624
0.043451216482927595
0.022756036038372906
-0.030690483545054933
-0.021609254724119144
0.04435732077699317
0.013747007507492862
-0.02502073532532752
0.017798623605127042
-0.05315927805913856
-0.04044549622300039
0.003524407661085122
-0.020724902581742217
-0.010502773243035949
0.019326305777262485
0.002128111775176318
0.028605160741397812
0.06791665110244773
0.04844637377456306
-0.02089585842535772
-0.0430660263486609
-0.022332259455393765
0.004291480524438555
0.003278329799780687
0.005152755168054994
0.0009910560299803022
0.006557389624393113
-0.014691965650768671
-0.011465286108607505
0.014902759238346578
0.028850548990385888
-0.010461848133902591
-0.04892069739096487
-0.03776987258493157
0.023280453128465786
-0.0215548554387114
0.008553265453851119
-0.03482639334134188
-0.054388938463909735
-0.004043453082779175
0.03222274714756105
4.066172196635352e-05
-0.00014540486771032703
-0.027943261749746925
0.012569437386856704
0.09192612911170181
-0.004421825742758739
-0.06013722629333077
0.040742109901750825
0.027833443551651512
-0.03405652053658075
-0.026677478671107223
0.016289440609148994
0.01613807702783018
0.01142557026901351
-0.016926787732546023
0.008031353023389236
-0.030162028726959618
-0.03177151751834094
0.018135263769837647
-0.029966610321940715
0.0013136240871561263
0.006947638078493485
0.012791790336203897
0.04010384434086348
0.04319860650457034
0.01157389541380182
0.02716041596353784
-0.024473084359391356
-0.007612520999720068
0.0036043980550875643
-0.02350096331074405
-0.029025506435081953
-0.004280302926838847
0.01654144805793843
-0.0579503173542454
-0.032996895060503004
0.016315462507866616
-0.011662762690022387
0.026367566957300394
0.1178157851812723
0.018547828806154992
-0.03921352869881014
0.02276430957536596
0.007408551650668981
0.04432217301941147
-0.023898450628587135
-0.05861982870945717
0.046268965211505336
-0.02534246811485668
-0.02263915441682989
-0.00499955213808462
0.01277761200009659
0.001696932645847633
-0.01803491026398865
-0.04154973861764664
-0.05718620364195685
0.04031249965427336
-0.005712168601127413
0.0777694899076095
0.11746923262667956
-0.03860213296481594
-0.005974840692417318
-0.021419839615196307
-0.002162944328468363
-0.009038903580833287
-0.007222643868102831
-0.017873332896189177
-0.00847711432298328
-0.020503445307296257
-0.023402979858870302
0.0304651115827411
-0.030715367516715445
-0.02609455043372167
-0.020705464635595392
-0.0020467105176488623
0.023403273517562308
-0.04287684667753106
-0.051207679438834273
-0.03538832859175167
0.022751860032377315
0.10826855911401963
0.04354470506677905
0.050769208685072544
0.022588575595021157
0.0695256938360074
0.030767349713790713
-0.07205853789841782
0.025563147668351275
-0.019672705683193962
0.007685742283042844
0.033653208637612675
0.04625199950670784
-0.011205759828298481
-0.004572727240630404
0.02039617728235239
0.01900681708180684
-0.0148196875209382
-0.0627613584766991
-0.05968133239409529
-0.0769663090447306
-0.006641634039590469
-0.041182879200189156
-0.03561255153444843
-0.03740346387542722
-0.026930652854067334
-0.019567395539374054
0.015145785372115913
-0.028363567397506412
-0.02923061894322137
-0.018954858482203664
0.03490607888647221
-0.009796052146023956
0.011745675258509699
0.047351387110869704
0.009585436007613473
-0.043057263977435305
0.061922320151264275
-0.006421880757847579
-0.015637794540413814
0.04922792495864779
0.0428197579093971
0.05583776342604216
-0.03577722599453382
-0.009836357087232324
-0.03719982205802881
0.09430162809738589
0.04189293231994548
-0.02439711090450823
-0.02143029039403737
0.009808178307632795
0.015046418196919749
0.02523265220825348
-0.013941506229634252
-0.029660564424917536
-0.03383972189435743
0.10920157606743887
0.02923613837474918
-0.025062815148432668
-0.027394314247249987
0.0009400840201552122
-0.006163271004935582
-0.024542269123875336
-0.010344288058345866
-0.018920865490950185
0.01709705292908289
-0.10417240340990377
-0.021348075278199236
0.08455822426742157
-0.04270532610374897
0.020377776470797748
0.05163710039897102
0.03372028048238534
-0.01399357014970163
-0.025435932299750882
-0.06084568333542366
-0.009998562224802545
0.04437542882391964
-0.0039008745465470424
0.0016871045301270803
-0.002782887653986312
-0.004364410680898708
0.039922849969735025
0.005767595984326629
-0.015251215637603167
-0.025701584479198344
0.08684248247709869
-0.0012468013918511616
-0.012786921242348466
0.033816066757758535
0.010995485448258306
0.022932642734910767
0.0049055970053585255
-0.0072756257808290455
0.011076315163102032
-0.02740320736644184
-0.02090575461919229
0.0037852916712766234
-0.018349680015066237
-0.21230078367590563
-0.002467639028188289
0.03844859222805932
0.010476876687311542
0.010744484555286642
0.019055825025924174
0.009230845679503176
0.001040068862779493
-0.02104919906770987
0.02051419015830987
0.025110617747651044
-0.01566823347851633
0.01809766546661921
0.016889188409215602
-0.02208400101707661
-0.04709588805132681
-0.011797275288220561
-0.053012369174975815
-0.08961640437055582
0.022616793942832874
0.01592362634858695
0.026143826023542295
0.044614137066767916
0.029880156897931377
-0.02657190302494478
-0.001593301766970784
-0.026078254595923837
0.08639655888185097
0.05403354573866536
0.006275285493863026
-0.013857123341893086
0.03131177606088391
0.03792490744504951
0.024545353682232353
0.014207639672305821
-0.0019803804079574954
-0.029367691879025597
-0.05556172574168315
-0.03697439148944908
0.023545474376361734
-0.05764816807696739
-0.003656961318358723
0.11117786288504695
0.006258583894071747
0.0033190326061373764
-0.0351924470272644
0.013179408457114301
-0.01924267192830512
-0.03156787155018105
-0.05721184744948907
0.0962719102968764
0.018199743085966186
-0.006762784567323198
-0.050331487865034885
-0.02993361630311246
-0.00393050272653449
0.01678182032040779
-0.004153497565815752
-0.008373929835483206
0.003043052046166341
-0.007264571924850977
-0.03965398437701667
0.062018693708853295
0.042563256389852845
-0.01796673099868957
0.022917143983273325
-0.0070038462617731155
0.0020532654747149274
0.023818525110343318
0.026378068862556146
0.01632265634714772
0.01580988895774853
0.007525346794567292
-0.0414610043322718
-0.004503998327378409
0.049547005002421804
0.01141104771335663
0.02154124079002071
0.06946081597223917
0.023683859295033256
0.026719370522089295
-0.011501285097543175
0.001990869012899921
-0.03866354466589319
-0.010818805364814499
0.0015035015988470394
-0.039403600754079365
-0.13276168895038928
-0.0028973251977564753
0.03672601057532207
0.018468959258886853
0.0029931883312118534
-0.01507010568364081
-0.03346432472990151
0.024764503676132324
0.0013613487032989383
-0.019101351194938145
-0.022927957490623898
0.05815624607803476
-0.12269712281502348
-0.06511602354977637
0.021769843050998685
-0.037723175010636024
-0.022170109233603415
-0.06326100970587323
0.04525987942916882
0.027277621325628273
-0.041995666851086556
0.003357746919262677
-0.0278261951875328
-0.05158638997324121
0.005014253545825636
-0.03098299879492917
0.05224107944938445
-0.007194410641690275
0.04673006503244924
0.006468812215028949
0.026188797276626187
0.10318009755401042
0.004259582383683955
0.012688218481825652
0.006655725486694056
0.02569020073935648
0.005872569615158678
-0.008860884460410836
-0.024175163546895997
-0.031830147989700186
-0.0014748179046189774
0.0009260555302321037
-0.012969005015203369
0.006479795721199007
0.012845736056550634
-0.04348158730966142
0.020217766019240906
0.028490938347681675
-0.004210396665524673
0.00383616470845643
0.1391149560506661
0.04205153932278503
0.01257613945764268
0.006490959309223005
0.002361874976609865
-0.03144945691911464
0.0028317094776354875
0.03810769354283011
0.01378956425288683
-0.02261260988910824
-0.023709459806635694
0.008658483468485951
-0.05147538363831929
-0.008608010919995312
0.002669932753400945
0.018997792604581194
0.03443826308929351
-0.014423348280697962
-0.047022203204941194
0.004634884097518641
0.04420716810324893
-0.008657619658712132
-0.03352644420403063
-0.038975065469779295
0.009518488535513743
-0.09502365114974856
0.005509047204804194
0.06349216714734958
-0.009707641683143574
0.027449776372229916
0.018403615311917337
0.028252736702547458
-0.0017143000780915532
-0.02827741310521257
0.0062733599897324
-0.002819720603643201
0.004679931147261166
-0.012779609568622391
-0.005463023698066684
-0.004510943867899296
0.043926309373372496
-0.06882976480018331
-0.09468233577104089
-0.017346358776036363
-0.03466647920936913
0.011134931304465634
-0.051458829531981214
-0.014366490277173474
0.0005538100154714265
0.006036296227416407
-0.009932357129569854
-0.009267957330832884
-0.0033385047609907547
0.02565721068223632
-0.009239964356357792
-0.03489208504880824
-0.013234259015822378
-0.019611529375054452
0.006369154552460192
0.030663087796511106
-0.017089490323302203
0.1265232588078988
0.02947072860231424
-0.041787191035500874
0.012515533558337032
0.005391509456169465
-0.008780268180535218
0.15871398918420637
0.011283229131398408
-0.03899191873697523
0.003833789901387901
-0.006401386604324486
-0.04478657938712504
-0.005043483833484019
0.21282325819898334
0.007834643346475764
0.018987484847664396
-0.008729518128394162
-0.0742742469861032
-0.14278808422381362
-0.07820276567748477
0.07209577906753538
-0.0295539692712584
0.01834988157227092
-0.013427536486371239
0.007116439150158538
0.12527914228218962
0.04594212853002661
-0.047443290799079704
0.02323084971849462
-0.02632490803491752
0.12174516117827164
0.037847815467970614
-0.04253959008010869
-0.009863349590394855
-0.07688189403739043
