0
0.031948262358165634
-0.028155346799083533
-0.003587895167099463
0.023433296228320067
-0.03892107462128374
-0.020699246786534276
-0.00026197246555494634
0.08001030802035708
0.026905949270331637
0.015439528596406063
-0.020221161325043126
-0.2293368732580137
0.013224243720481829
4.4374320521978356e-05
0.005248389536992715
-0.0473350450354962
0.02091516964246536
0.1865924072884142
0.012237525449419558
-0.026014147162004893
0.026201898458295774
0.019390041754383802
-0.0167676075970543
-0.00259136999951226
-0.005992356113605939
-0.012778768297952709
0.046290452680439645
0.060857856742318354
0.02414954352283005
-0.02429786056713447
0.09566893875441834
0.03450984388060229
-0.2606545919376034
-0.02231060175354644
-0.08001147392747816
0.01279590625013978
-0.003368092030217108
0.009076093443366016
-0.003206032941307035
0.021347094638607123
-0.008563882270102819
0.0320349359109169
0.01093906156105487
0.1642623110450278
-0.13049474937724886
-0.15691824500900783
0.050704370174009035
0.011527203263718835
0.03673144947894654
-0.016654508914849358
-0.004901726441328084
0.011587019723889301
0.03029381229872918
-0.028429017879570053
0.011385860107531865
0.016118016702881467
0.0055983284464888716
0.012032569006939399
0.03377058733340399
-0.0024182193232622187
-0.002494697864565445
-0.05225158274761436
0.01706554772337815
0.05339597513314889
0.027118149484397565
0.005994472546110461
-0.00652732729832422
0.008901650806708404
0.001026325136519994
0.010345966746449246
0.006729417707748798
-0.011398017677349269
-0.0010660242316029322
-0.04164472628866247
0.013817635210907947
0.004594302871225781
0.004047653942298795
0.007060314651957491
-0.02105797160427636
-0.019308175418115095
-0.022520885292015777
-0.06665275716617343
-0.0842595433823633
-0.005611843623027268
0.012028001128292536
0.01908791593823455
0.002956934254580228
0.048149738652016806
-0.007542061537562818
0.03462395824114476
0.1309544463912136
-0.009491185927941896
0.005234526559048959
-0.009658745637492376
0.09046586101968615
-0.0034126204483277108
0.0022469235672174953
0.03472049193496494
-0.018606819571137117
0.017315108655625532
-0.01738286309315476
-0.02799315814220097
-0.026711550920449904
0.0015892771199436599
0.02953632015265792
-0.019363101414346922
0.001001704000201988
0.0005492958079697782
-0.007681627273686145
0.0130653183433797
0.03860811877280576
0.01725922504795731
-0.028466067436951823
0.007611114224334422
-0.0375556131380108
-0.019901185315650657
-0.0167989007259352
0.03035310263330652
-0.12348793515708428
-0.12389881315599054
0.011597851114082758
-0.03826153718764114
-0.036357214470537184
-0.003770098171851243
0.01070585898646042
0.034508658656424065
0.0036679279931961825
-0.004325524905712456
0.023136161113202783
0.004980791537890838
0.04042764321287177
0.0028141416647020382
0.022726102456401984
-0.02871161363613171
0.0029262335544242403
0.10209403957753509
0.03358985615508553
-0.02232829060085733
0.05054871668016229
0.017911409129643063
-0.18417275376490877
-0.010137265685758066
0.010840292389469973
0.005904745159195075
-0.00764065183451278
-0.03894350867290823
-0.004639833608394664
-0.021440059327574354
0.0053062433900401915
0.02528795454756208
0.011072656544238252
-0.016643752442969957
0.06723286121798061
0.030171483986857626
0.011711174372031757
-3.2961131640746276e-05
0.016525412250039055
0.006032308346625915
0.06794915706178543
0.016172493832599312
0.016361544870205327
-0.05755242795568823
-0.019370218019585786
-0.09311925851759674
0.020102774646655018
0.042684481584171347
0.005699014864034214
0.04225890582520598
0.011080951011515289
-0.024497652248086445
0.009411638008584522
0.04089146355098215
0.02444067061912176
-0.012814746227789714
-0.0023948208496858783
0.007194602889726408
0.013897070129459572
0.05201851301491735
0.0299347850712709
-0.0237405976512024
0.0030171178262239505
-0.0032492955083424295
0.009187616726459048
0.0068672352326054585
0.03156212589965233
-0.014302742886109934
0.0037309040653444735
-0.004557561194621575
-0.02389033297274984
-0.08618399379801796
0.061200745029667804
-0.026815299609089908
-0.03395663760345664
-0.1621826266064109
-0.08516998387097015
0.06617753772070221
0.03905831374866551
-0.00419569020955321
-0.009349527963674392
0.0031892262610274877
0.025345807887091988
0.012029426846826822
0.0005274617195542855
-0.001999473260416653
-0.001982338992767662
-0.013430158959558153
-0.010294336526858058
-0.0002723937613195517
-0.018830744999426247
0.028605406231811847
0.017068748060736175
-0.01630450282277656
0.035158814889070224
-0.022189981350752255
-0.013168318738401593
6.563017533472262e-05
0.028130224340613408
-0.019452453202051658
-0.02678376139324085
-0.002635551669894216
-0.005114133551422879
0.06000486144765173
0.047298100618171524
-0.02733302394258913
-0.001066043212169217
-0.14846077056784895
-0.09258179706279729
-0.0048965495141282045
0.017229613989521907
-0.010158591209927357
0.0020046616557851888
-0.007965071303137825
0.056857561722530425
0.08275314641779272
0.04755962906364434
0.018203536504315658
0.04914330630512324
0.06216091898170276
-0.010339727387668772
0.01928178018028702
0.030123630545527167
0.030834479161913068
-0.07277470731819463
-0.015753225439320666
0.004862914882171021
-0.06992053354960073
-0.028936927226671884
-0.002118107697359136
0.029678970999950906
0.007612913999022215
-0.0068280540329569775
0.001719059911856253
-0.01180766545965882
0.03234361237491427
0.009015704612294102
-0.019986105498268004
-0.02303462364408073
-0.0027674011968617787
-0.013873139823557777
0.023422356299602265
0.02637730135484099
-0.04915256657542541
-0.026829996024263104
-0.0129950796888098
0.012292998354481157
0.06273079667994376
-0.04014368463404995
-0.008576821012954925
0.04014133229491211
-0.0024118149152818
0.14188434266052938
0.06748529209586915
-0.025108192114654995
-0.00021147629134109504
0.0034739152298395117
0.012006101366321865
-0.03556570301255913
-0.009134858503047221
0.01015699627376007
-0.00578391190677263
-0.08375408030815344
-0.028954800865018605
0.01597584375823939
-0.004289516014466975
-0.03936547659000797
-0.050623663713989124
-0.006680180872123081
0.017290188966397394
0.00780185066912893
0.021819267872350872
0.012383899894937869
-0.004332665111584293
0.007940092217848553
-0.005381041716876726
0.0032508768892974046
0.004335829398925369
-0.011078504841196962
-0.030073396254174663
-0.019363168016616795
0.016300788794691816
0.044073622489464906
0.016945366511055302
0.008630957277619502
-0.00494737318797373
0.004622505257890683
-0.013617289978454433
-0.04318265791489798
0.003389089097457622
0.01004028266669725
-0.010090125235289056
-0.01754406996317469
0.01579746963767376
0.015947620009998692
0.01982575760455138
0.017479375648472937
-0.0031266463619226423
0.005146445949018411
-0.009864093118766033
-0.01704554711586932
-0.016865961776873144
-0.014964757474690683
-0.007375278462608319
-0.004471687830261976
-0.011646033774738931
-0.05260836860870532
0.022825068993717376
0.027153166430385043
0.005387848643224127
-0.010284463378042862
-0.00453879350834675
-0.010557238123040082
0.002597180203766087
-0.009140707288066437
-0.009892319573530577
-0.00917111736291353
-0.040160560799223165
0.016905822378640748
0.021786072932290325
-0.03365806804189109
-0.004655705671775539
0.004483414803144005
-0.010165344587108917
-0.020602307808107772
-0.024949624033507607
0.017432788583721142
0.050996968772364155
-0.023322095168902917
0.1373086978756345
0.023213681954981958
-0.0006591847395832108
-0.009234729715047813
-0.009227586886231856
-0.06731978837249383
0.04588237676969399
0.15057970741862398
-0.046571233202883214
-0.014188296070845112
-0.020155554503962305
-0.00881061740172897
0.005058265183243569
0.035428559102311095
-0.010688778898090863
-0.04127275478831478
0.014751170257662911
0.007169243519972319
-0.016394859017517333
0.02600164804337906
-0.019617246494978712
-0.0406911171871769
-0.04838436490021195
-0.023832833458238042
-0.03200382689735289
0.03758988037469334
0.02605368928731192
0.0024342958465395532
-0.005667189512201835
-0.05647728226680893
0.004776248117566218
0.023190029827400448
0.08222051301670286
0.051824773769977864
-0.04374025992674527
0.01793669475396386
-0.017307348839405656
0.05997769693472889
0.02606159247908892
0.00040282081737380023
-0.026590740323601172
0.0039555615717195205
-0.009544436833980539
-0.004684499433782432
-0.006616346748118344
-0.012466786277930537
-0.030962527610767218
0.022838642565174296
-0.013772702881830702
0.03378646383441319
0.013728751851424945
-0.035943470055879584
-0.00856423245078437
0.022382451122279046
0.08879808077107149
-0.04163409921975212
-0.06609573932349119
-0.009301040431553354
-0.056452255805924154
-0.060115516427269595
0.054837336321665694
0.01391807723458058
2.712730638109746e-05
0.017603721828141114
-0.03482131190070982
0.026894433449707426
0.0010729860052020982
0.0014229526732967722
-0.012368690733225426
-0.007146031490157662
0.022519231440151565
-0.02219950890727678
-0.015664607136695922
-0.015093424596276862
-0.01122201624511788
0.03016647031821583
0.021041024336507466
-0.02927022101588862
-0.013279123687324281
-0.11153537694548447
-0.046382273178385454
0.010055915581025173
-0.022288265063123966
0.022092509886753393
0.045521156477693316
0.0347006285697655
-0.02913814993016964
0.06623895753743002
0.17824496728643244
0.009928746581340934
-0.00834017919655106
-0.022410878175214692
-0.02047283070023661
-0.026510101766328037
0.014600141142209908
-0.0038729453306378036
0.014257497335682321
0.008568400870655106
0.00787540928519849
-0.01776875806030211
0.03957195862600831
-0.0069743089195294745
-0.05197123948609613
0.010262958016839642
-0.00854464296546961
0.0035338584671017696
-0.013038808017408546
-0.005760459354794489
-0.038048501937744894
0.013233348996905524
0.047542418313527575
0.016511980624447635
0.0008249880291877555
-0.015408873273666926
-0.033425404123488184
-0.008890401940219624
0.025787014898331722
0.029172144195536476
0.011300100444534542
-0.0059938519981092495
-0.01069692150255692
0.01841907434106273
-0.018482498947921398
-0.00861315008371725
-0.005603724322643984
-0.011724328047044399
-0.03490221438188471
-0.008051042629401452
0.014181719098409314
0.0030923522294569517
-0.027631790664346435
0.050187922737876006
0.04219566639147857
0.02986021807953495
-0.028610379170650974
-0.04196366914272683
0.033604055726898105
0.027682021273779268
-0.011372203465060446
0.016903626523219157
-0.002746026115267497
-0.03525418069247533
-0.019230894369665814
0.00436397145791811
0.0036704804558711757
-0.0025364175505790923
-0.01645329722081308
-0.017188387488226382
0.009365437702759419
-0.002093856986670862
-0.005256261764005533
-0.014870870364741535
0.0030271576492178686
-0.0038172280101386414
0.0052515934769331064
0.017523159730486862
0.023317504852246224
-0.01984955506842862
-0.023077995879973827
0.028766622050857133
-0.13052882323166334
-0.1018125502914746
0.05509859556061934
0.1566008997093238
-0.02567204009240432
-0.002345474959535819
-0.0031675326342324376
-0.04016527735097682
-0.008940949515409047
-0.018228874421461393
0.024980772038243598
0.005562535813743573
0.010389835559160019
-0.006059913793354704
0.012898647870479518
-0.02804009654263272
-0.016754692293422146
-0.005561316442745228
-0.002591220614465341
0.0274991577230621
0.014281118862146159
-0.02373790129495903
0.018625626237055576
0.029075794307291812
0.06958600677234207
0.019276519374788734
-0.01062004572287984
-0.04939643152885567
-0.014530112480054213
-0.004533675702753134
-0.011787431788288293
-0.02381776973722633
-0.013440102896941416
0.029248544247783066
0.04072765500747273
-0.018765345670735217
-0.0238322083540388
0.0488677244374686
0.11014198599884516
0.0010279015407564725
-0.035288481501339564
-0.04452300504599964
0.019355012254956918
-0.027025981570935335
-0.029670816916146803
0.022919093177094483
0.05050888134248935
-0.02362830794230619
-0.020737464765525664
-0.01588079252633159
0.025821572939451504
0.006298842228070587
-0.04077921097015675
-0.019892727015448506
0.02162913309054711
0.005697402368975897
-0.0067412807702194166
0.021035320516651416
0.01892879068961039
0.05128925253606335
0.014018848539682098
0.02098315704174347
-0.018890929234608153
0.03117910567442857
0.03011111501372631
0.014373974215056125
-0.026500894289396344
0.005715277510151885
0.006919329993678717
-0.025224549374803257
0.010210188007537261
0.011736801502404253
0.03089329248555323
-0.10280861446554988
-0.07863000278186394
0.011457734865307018
0.005286335390580407
0.03799061554311335
-0.09395718556939064
-0.011207419449708916
-0.024441608543720007
-0.02390412576910466
0.011637774706151042
0.03834484914137303
-0.016761781517009387
-0.04168257833038425
0.006330252566393703
-0.004758635387558849
-0.0015928688761836297
0.013702783121655519
-5.318545518406839e-05
0.013320839930299179
-0.013671028787188405
0.004429280695779321
0.01123911606909973
-0.010451823579554365
-0.0036101369625100663
0.004642129869619539
0.01724895943956359
-0.02673147342177501
-0.009203965525339561
-0.03466308480712715
-0.03003798473426744
0.000981080208190613
0.02223082086498699
0.029269857382693495
-0.034994499259872226
-0.007338981404717576
-0.004637216928055462
0.021344611386590422
0.007253231628096037
0.03796350882018948
0.008540293894511468
0.005809050094630362
-0.03864019614644731
0.10114279147686198
0.13427386109610578
-0.022103204819350752
-0.03489036093413766
-0.050590279918834975
0.0326842551687634
0.023248318220427496
0.022893189063605247
0.021538706481212293
-0.0036172960699763744
0.03358175530390448
0.025805133830580564
-0.0024636511423340914
0.05847006170254849
-0.164054213778513
-0.027133646364271926
0.04123385638486006
-0.029157656224356995
-0.00031723921261972877
-0.04644275840279597
0.042524546094385114
-0.010775940604841976
-0.008940343081631571
-0.00047863684229610233
0.0489589837190576
-0.03337096753699468
-0.020739402087428343
0.027205132326797193
0.008181905067472304
-0.003525549172134028
0.025480945885208293
0.011641762625643835
-0.041488337319127364
-0.023825627095978325
-0.0011745093413392481
-0.01862444933776972
0.010821045903516702
0.007388496599568414
0.03402780142725765
0.053661045050842786
0.0030215608673582533
-0.006871131151171321
0.01684027241188964
-0.030757100565825642
-0.0012342182638274161
-0.1301154776513809
-0.132937151415162
0.051516871685149256
-0.0015383577198152247
-0.0017000457314999865
0.027809170766987867
-0.10176037095643072
-0.04213526683819594
0.1893518681910727
-0.016840142519408477
0.016160211396962585
0.008180859844206046
-0.0004933266380293582
0.010298016683045258
0.013712330429976381
-0.011742974798871441
-0.01577896083239962
-0.011056612363088199
0.03495133216309975
-0.012959841515559341
-0.0038731106030529257
-0.011251252799986242
-0.01828763745182407
-0.001611639167102969
0.00669266266112994
0.004812505057056596
-0.011130842008648447
0.011225225050108142
0.03365934014297295
0.00991240549710447
-0.008505950575611473
-0.02621821483326118
-0.031446714412742174
0.011490173816287735
0.007360831890500698
-0.022419469011355084
0.018487689043729
0.17665448810699735
0.09191460331496545
-0.060518434169469774
-0.02561405467871196
-0.014560896886359061
0.010984632771822182
-0.03517619789995127
0.015507032597345975
0.00629411466516721
-0.0025006952886659196
-0.02748858903634557
-0.0033232149450592077
0.0017973483733924867
0.05184947468556243
-0.04138195783107195
-0.03293724969152919
0.03194880096105142
-0.04931518867627495
0.0014527276199195458
-0.011338885929633153
-0.03388241018596586
0.0008873854272122434
0.018792042148562574
-0.014370410168052721
0.0021269508322403095
-0.00045684609105109425
-0.02042953439073554
-0.015704320090808563
-0.03187842551533479
0.016641049735488186
0.008310552158171182
-0.05581690804334006
-0.045392494864556814
0.021788804259639524
0.001062237888014999
0.029399166788316593
-0.008222013376387493
-0.0021829012502323645
-0.032004648792032124
0.004746555154615073
0.04978684343301591
0.04469712414732895
0.035255955265237345
-0.0329996252883388
0.004268828689626155
0.014993158792224296
-0.010727345817677486
0.008933964579515757
0.1720760498027475
0.03868644090337667
-0.045073649550575114
0.03494331554388082
0.025229737404580586
-0.013261498763214074
-0.023781694560594528
-0.008040045526635925
-0.001233559750520411
0.024305513265419673
-0.006051703265045949
-0.016109334267009986
-0.04843611073388704
0.023171831848238376
-0.0213213860595943
-0.18495475352703333
0.020840363240083978
0.0528781018084885
0.011703724327605976
-0.004366778011066731
0.011563848192030901
-0.026303116987536557
-0.02374163325722661
-0.01476794877837203
0.0012271300636992634
-0.010142970295880663
-0.0028211758221870537
-0.030630882852212226
0.03748717713913748
0.03879771332249244
-0.007353735640901247
-0.03783981269847251
-0.03623352699515668
0.06425333217340476
-0.025828296824077123
-0.02292141417283495
-0.010032664443171616
-0.02158392566914585
0.03671961265984146
0.07331340467603868
0.009435703265889122
0.07519271357056215
-0.04522184596676636
-0.045867761463005384
-0.06030127714155383
0.008093220518587905
-0.0077554833294252706
0.02640416703568753
0.037378667848869465
-0.005863314039705333
-0.02503836524383943
-0.031295067755640706
-0.007902023033673353
-0.0057121770886204406
0.001627400516259657
-0.003966073721629457
-0.002616451139981777
0.05942683354092345
0.02207617697847409
-0.037290682944132424
-0.011034339953015282
-0.007039086428171199
-0.01682834620755466
-0.02165344169837637
0.027280743018192725
0.02872140199084857
0.03529634025347486
0.03034374630798363
0.008280702264948267
0.016179763955886727
0.0004638464188266906
0.03275242302090633
0.024995490579600283
-0.03753403471027081
0.016845974429316683
0.002702111000302257
0.11658097088622085
0.13929674686286003
-0.033059796301694935
-0.044561207232197336
-0.003146254047655718
-0.15927504612746707
-0.17352044369675249
0.026543918066037606
-0.020188645243521087
0.03742239271652349
0.010245186920281807
-0.006006707410995694
-0.025282509277099758
0.028367838894136535
0.018495152854264504
0.011489327334637216
-0.002623951485692805
0.0772711664707484
0.00975112475384794
-0.00999787041890267
0.02899246706971737
-0.0034071519556771687
-0.01656639370329321
-0.1278508982251927
-0.14867416705464737
0.030988521727602147
-0.0005662128320900201
0.014877040050479552
-0.021529467387275292
0.0034181178681812877
-0.007226116104216229
0.01088629138682153
-0.00557288923486922
0.09631092668182036
0.05466187383548655
0.06672010550836838
0.006685054909033106
-0.018222310798952018
-0.00858004952938391
0.013341141444623476
-0.04073682281538832
-0.05841911778571003
-0.0002487266733312848
-0.010121734753334628
0.010317958785493719
-0.006172507457010845
-0.039705348151019476
0.00975268785658406
0.02773311995360353
0.005543668210402368
-0.05971813070278891
0.03345458910775693
-0.007373022252839835
0.035977750075592424
-0.021115090555805495
-0.0038412403647137693
0.03715556517237067
0.03669237439033117
0.012953118318997462
-0.001447864774354698
-0.011575799329134322
-0.009981693555011665
-0.007824671034727627
-0.016815804033114997
-0.01056454145973433
0.024063488263387986
-0.022887856959418005
-0.010508573950466445
-0.0017801336178039438
0.11793603821195271
0.025012866455071368
-0.003959982370917618
-0.012215869409426924
-0.005299449317336503
-6.990386997439723e-05
0.002771025154062036
0.015794974198967294
0.059212438295407635
-0.001186124707672241
-0.005575980694126164
0.0013537815538353177
-0.015470532670258746
-0.035299432712121666
0.06496071985126732
-0.0013702705671391176
-0.10441119759869452
-0.02327527300439488
-0.032862411272913054
0.009703629836866522
0.013370689123049943
-0.03650477040203282
0.043187422807855015
0.06526715308828936
-0.06869905931567298
-0.032610723526661674
0.010780224124540407
-0.01303903973486196
0.010137503581813248
-0.007018612113301773
-0.016804406664530303
-0.029813230566242414
0.046990990817857854
-0.07896655735768726
-0.037269408694321354
0.011553311650049053
0.06345247281899533
0.03189447904349561
-0.07174337710937728
0.030018847288236464
-0.01774655411589326
-0.010774262578646278
-0.05462840847783491
0.01282036316309351
0.1468754829626965
0.006773864864592198
-0.004675749444991759
0.008210866526951001
-0.021343704117326022
0.0025748367595126685
-0.04612604069376707
0.00790233396417313
0.0310998666121034
-0.009346146686206551
0.016667060989996478
-0.043170794946638336
-0.03318998236576197
0.016574520493238456
-0.014287450618192463
-0.02043752290816054
-0.002055587560779364
-0.013788407382599586
0.06841485685465938
0.02919987805182488
-0.00019605930748017793
0.06258733175650912
0.03339927216179878
0.0038467686209089167
-0.04241650282469695
0.008044484395614207
0.028786798704121628
0.013419773078061775
-0.026256650607779795
-0.003202248004305989
0.019712508931733284
-0.011930786363235682
-0.020877355856806345
-0.08500037361479375
0.04251085147723293
0.028940407428529883
0.0034489112858221735
-0.027401053770898545
0.01830643809641283
0.11230297475540196
-0.009828252235177389
-0.010694265364168912
0.01977985131190727
0.008660397322062686
-0.02510600633447979
-0.01816516249426292
0.010047702912302853
-0.1471718494113375
-0.052035830144334314
0.06615204288742524
-0.0007549133670283571
-0.011497726524684672
0.016366290430902465
0.011755771107369998
0.004979798239017487
-0.023004486175618514
-0.037429130897732074
0.001052656392673706
-0.01730229535184296
-0.016704880462903363
-0.034841618748554
-0.017968453525407737
0.007546077701280757
-0.02178132994330199
0.03807147841848091
0.15148921321418513
-0.021823299548316827
0.005782056805047744
0.013241185776859734
-0.0374412421939877
-0.02732851544801736
0.020937572690827657
-0.01373028210328342
-0.03284988644087298
0.08412436904773593
-0.009997976128664548
-0.06227664909447476
-0.030296140255506587
-0.06065301615257242
0.006705964091370014
0.018111284090835792
0.013157059818466092
-0.012003637418367668
-0.0559155680582944
-0.03131275052768813
0.04327248923111898
0.013728427744690956
0.002872804724126335
-0.05324840033204111
0.06871117105838848
0.08225888981528277
0.10683393843738734
0.045307241869849614
0.016066357955272306
-0.006482573128660169
-0.04205096343064997
-0.039713938674195474
0.035311716883773554
0.05123467484160668
-0.10055499809272317
-0.030087661483652172
-0.004244276252541115
0.008188210437171571
-0.005699332707535663
-0.014097904332979107
-0.0030808323530762925
0.06568288001019165
0.01684334340124009
-0.05841449257436839
0.02497091498080661
-0.019684223483512262
0.0006247966525703488
0.006630333610921844
-0.013983934729537168
-0.0535073123762637
0.018789548833907696
-0.019368516890536196
0.016271457614452936
0.10448178451313893
-0.030717872002061702
-0.021205768457541577
-0.04123769101281586
0.04804816126667935
-0.016106308209596604
-0.04838588733443937
0.027494633500501856
0.012543647697352436
-0.014969693106654393
0.03377410403535394
-0.010241285754368242
-0.01850727587061394
0.039673839691405186
-0.01414056977376011
-0.02030964112269887
-0.006044784055793986
-0.00895037270834384
-0.003186925166433964
0.009403257989625114
-0.017804793204548794
0.01873877124391922
0.04312623645320007
0.03730890555236995
0.04408830223522303
0.0456436652160793
0.010351387322215286
-0.10746966802460135
-0.0028177787426101994
0.02689196272226176
0.003849219148607388
-0.09537335752318844
-0.006360405056604702
0.07788048194989766
0.025774176251116897
-0.033032910486544165
-0.002738117589019587
-0.020342361078919402
-0.04578882079284403
0.0029282552925258727
-0.008419563658441773
0.004572117998441145
0.04292670225161999
-0.024953153375851328
-0.013197285507666343
-0.018748666377086946
-0.009386032947933894
-0.007585929782081704
-0.039477588233280056
0.0036620191606026014
0.027355447447005504
0.015319253153901353
0.00812633186589051
0.020581889321219436
0.0159225684738416
-0.06233023544127231
-0.03457905116791383
0.014858617083075072
0.007710365896889782
-0.019038275771974013
0.0016570835253494007
-0.014883966996785345
-0.028843922220229055
0.0038404341077628115
-0.01871076707998022
0.04369234653496084
0.023643973574207965
0.012448812791050243
0.03659711810689571
-0.004127646228094307
0.0025415300679672184
0.025878081910037952
0.014556608979254258
0.00591591302497087
-0.009862082428538914
-0.01734586104939783
0.003765756727302533
0.005290562111414955
-0.015037861020968013
0.0035883360323549452
0.03229127823734478
-0.06079657417585654
-0.04248228585523128
-0.033608980236995
-0.005880006944997354
0.014500141480048419
-0.006149549701971963
-0.030322340192222397
0.019784231197790915
0.03595221838569586
-0.05361260386754888
0.0806064806176453
0.19230117515475484
-0.025300658370401283
-0.031218200535365583
-0.010787692274638612
0.008212044855810067
-0.016743933565967307
-0.051274465397691274
-0.016605779231552657
0.05945722989097048
0.014098444097103128
0.01213257121632253
0.04491734299084475
-0.042925120256877565
-0.022900065663768548
0.023532237350011902
-0.010498246344638517
0.030402548844301627
-0.007460520701216128
0.008611636986047076
-0.011283878505880415
-0.007734602840810368
0.02041015719478897
0.0634937118591631
-0.0327102426496638
-0.0433863523220793
0.006318621204538597
0.02197202905598947
0.040620069951708096
0.008662417349002768
-0.10741102403204728
-0.04954845240998234
-0.002438499573505137
0.01809755694144065
-0.014863823593427666
-0.030387335977382798
0.025214590801330677
-0.010698473816584637
-0.005258653767397136
-0.013433089578553527
0.023835705163794883
0.03254433748507818
0.005124879139449374
0.016913189337916253
0.005739874309607635
0.06665164559160157
0.000260944166989908
0.023432677200016974
-0.10681903811301521
-0.1282581729727744
0.05995288227708204
0.06592424371129939
0.014216668435021016
0.015002699112358017
-0.008988615683350416
-0.021286839075115936
-0.0670412190621286
-0.12092454482618897
-0.03724932211271862
-0.07279341679002996
0.041860452418180226
-0.003813795689267654
0.03795721576619142
0.009601725448268915
-0.0036272431606836327
-0.004257525033403717
0.006419464000049228
0.013260896729260944
0.03827102969445643
0.06293168077173125
0.08257808230471542
0.014889281195170015
0.0457676082243943
0.031270514795161554
0.025457208647215065
0.01506717245818078
-0.0093792515986603
0.00831832645705479
0.0203913775630856
-0.020932246924487787
-0.049230993957314534
-0.03142639165294079
-0.005765737385215197
-0.005374710790991149
0.04712112682189064
-0.04700218364113606
0.0031222859710268625
-0.116295782715067
-0.03463529555856434
-0.0027084742435816715
0.02357440522458563
0.005399422664837279
-0.013757250610324514
-0.04499557618195477
0.04483107449384285
0.02764988149754964
-0.057175000410451274
-0.032642372350861495
0.03875757148750593
-0.007425510599632608
0.00142748099402845
-0.0204829637908724
0.009139946628670159
0.005353689090780302
-0.039587241576975817
0.007801331503470936
-0.000528080757688287
0.013199181503432657
0.028741010843566832
0.015640980872009734
0.019384823148173403
-0.06589617955828116
0.015614170849036069
0.0002478684540720268
0.031845881838671986
-0.019296481066721258
0.020163450807142293
0.04165333979059359
-0.01224409968626423
-0.013389655457370097
0.0426433100735514
0.014285557307556998
0.003901365439563915
0.03874172519316236
-0.03817101813631772
-0.008203157876172132
0.00832555267050078
-0.022892872755755873
-0.009531585157962779
0.03366040517500529
0.037010161886535574
-0.00671115406081644
0.016988456523383457
0.03552630432326913
0.09019128958467558
-0.025101332492983148
0.011777111292984822
-0.0239307998051311
0.046104936272674986
-0.11116098022029723
-0.13463528840984568
0.036401143490563385
-0.028190551419106948
0.08935158987355638
0.11694682753577426
0.01986109172758576
0.090980450054704
0.004979477149908638
-0.08473870439773287
-0.02579654676689174
0.005392667918796234
-0.008386466757754962
0.0031269349008231006
-0.02640781598697017
-0.06068287684587635
0.0030899239434673312
-0.024494634812599354
-0.028700014752217787
-0.019420076268437454
-0.024602410941345795
0.0253854921474853
0.010294053867770459
0.026261111709220276
-0.07830903279371845
-0.04128417264253629
0.009349024717939042
0.021127709938442756
0.009501391228716745
-0.028975386548464696
0.006746154833053697
0.0028974483045307716
0.0026493515709400967
-0.015308805522982487
0.0038304255690668997
0.0008717716118719435
0.008167401094551713
0.03242195194314797
0.017360369132727003
0.044548144275786364
-0.030253330689908278
0.04767024389423714
0.018920965924725003
0.03824793937783171
-0.06276302127956358
-0.134302606121877
0.009121882416551524
0.01008469811283962
-0.031067201034020234
0.011010222588485068
-0.010282626777578616
-0.010995875690838399
0.008767180636461577
0.050440409255261075
-0.020509100683513637
0.007643128545429614
-0.02168541539851347
0.12244260728769228
0.04063940257561403
-0.07925229912390327
-0.011094673930783833
0.041472243971794505
0.02455932109416817
-0.018187305682249362
-0.0033308636007914915
0.005252820768080773
-0.02045286661717757
-0.004601091074844607
-0.04118386517428309
0.0018821664136867947
0.030478886301229934
0.08237488768409906
0.012216007166462383
0.021229841068170163
-0.005798242918761176
0.027633566107796576
-0.017900528799519495
0.01605733980021056
-0.016960216953831833
0.027668931736791715
0.015449580098377356
0.0338242893581573
-0.06600074190169442
-0.018492151509328276
-0.006144304473238722
0.06601967157486789
0.07018259023430566
0.017675955454275707
-0.0965813637885449
-0.34826911204527716
0.03728598493171253
-0.005754889885202861
0.012089376542415955
-0.06338141783596646
0.017059520121483162
-0.006418938261497536
0.016012672437954498
0.024316013150571688
-0.02940673728601246
0.015657763563362605
-0.003768847259229523
-0.0030358767771013697
0.03559198900183402
-0.010559485945147194
0.006624898144313825
0.0006232625849831305
-0.006998943758882735
-0.003965814695118021
-0.018215337528776625
0.018856784091054103
-0.00108429759607766
0.030119984845929263
0.006615044128966599
0.06747575434788439
0.1427980693835298
-0.009573004612269108
0.007783202910741749
-0.011740588921043816
0.042461676321320106
-0.0016463649462182626
-0.04913099174592242
-0.00301931389518965
-0.018949046724977867
0.005635533839459791
-0.0014860720755661525
-0.033598898696914375
-0.010246391324545521
0.027021987080982603
0.017514321152193243
0.11287651651398466
0.024877916339875634
-0.06741059645455837
0.021139962826128973
0.014642836968629993
0.045468781423178325
-0.11613436857020278
-0.021249650447220596
-0.034434792441361335
-0.07867406616838152
-0.017925406408334576
0.008932629782830154
-0.0031452204517121198
-0.01853635980871234
0.008457247213964117
0.0241850349788907
-0.01829540992070804
0.018229983818030426
0.0070050850267302815
-0.06843164472342536
0.06876685992799213
0.14247463427046647
0.04525033013363465
-0.04910788536278871
-0.09953617370848745
0.06657165825464076
-0.044017246885015536
0.03098393966394404
-0.010225938022787092
-0.0032187482967121106
-0.022192401962921524
0.012636379932378055
0.0024578133685738096
-0.037530827653813596
-0.022707378721323144
0.001076237816681579
-0.006074495225899857
0.030148656126140528
-0.012982768871453998
0.011876827029146038
-0.022141358732707096
-0.0190714833210245
-0.04083889298824628
-0.03146568209054479
0.013923543024073807
0.010757608815969242
0.009328394030625051
0.0019323597653195025
-0.03994667134912275
0.01676292553478367
0.016838354881318508
-0.0426968354573194
0.018200763480369895
0.04150345324515291
0.03524233061695643
0.025451400886545895
0.0610333018713435
0.03718217011803308
-0.00912139135888349
-0.010027261965940289
-0.01006092095597276
0.0012696465002734205
0.005870289766221561
0.0067047934726082725
-0.017310001488851878
0.004953830656866726
-0.03272887219583681
-0.04024265560678727
-0.00638897903466237
0.021122595455372824
-0.008263431779953586
-0.006627228596999723
-0.03209735541868045
0.01413186424635362
0.027736613215782614
0.02081888992068096
-0.011748732643198197
-0.015000440816142858
0.024076991712888934
0.11279293785566927
-0.017901423742574647
0.011855595666596585
