0
0.0074510924037546975
0.01860723181033805
0.01436099145463297
-0.04353660520822984
-0.004161741228695519
0.002385539830284147
-0.0032009530743496123
0.03383352854577407
-0.027043326637766023
0.022207517374814648
-0.020051427888199642
-0.08748566282381684
-0.019385521256709757
0.0007578501273490791
0.0010291238637121266
0.058624230341508904
-0.006147412254367635
-0.017014118440141023
0.03623297460775036
0.05816989720193598
-0.0275821724401472
0.03509448445161596
-0.0037840489944265315
0.016995897398813072
-0.045391026679572045
-0.0071691054191098695
-0.07419542598063508
-0.11510028133977547
0.04887052502139273
-0.0332334820924838
0.008687633176710868
0.012089536430715439
0.0033758791535032353
-0.014086749039817579
-0.003861353912294263
0.006363384273234618
-0.04509994846903321
0.008408009943864106
0.038396223330673336
0.029685005794434054
0.0015825274511836115
0.004617670462887332
0.05034266852668189
0.022193356207947268
0.0025172508275455733
-0.023492485476802636
0.005832921750971575
-0.03349854769485042
0.027120975264466853
-0.008602176890139642
-0.13642964417524608
-0.009210316425210481
-0.013406909980992896
-0.01866343947874653
-0.007160612337244696
-0.002056856759867081
-0.003172306226369302
-0.0152158787389671
-0.013010474811167698
-0.00016695807387377646
0.049991348712894665
0.034769204635706284
-0.005780883113432057
-0.008613798120589546
-0.020577359011403566
0.03659486213196064
0.06391450938323441
0.005595134807872911
-0.008540779084843983
0.0167601225937193
-0.006358571523552114
0.013473815889119703
-0.007485373638881136
-0.009760543234802821
0.035730244084380594
0.019766612561509817
-0.008131716914290942
-0.032526499332451185
-0.02481143615856928
0.06059298789896893
0.09182222007147965
-0.0335296830151147
-0.01635577867388239
0.005192149769954649
0.021328025815370782
-0.03635888663373235
-0.003964703459560008
-0.027802888911133014
0.0020710718668504524
-0.013718041240761631
0.02375498811562967
0.004912029361717932
-0.04349655237328616
-0.001383782234159993
0.025801784625892905
0.031135424935807114
-0.010587133610295152
0.015080453472858335
0.050883450220360955
-0.028470808844668134
0.1310913521109071
0.04414623233308825
-0.039190034482257725
-0.024569436298025212
-0.04706951615205671
-0.0246545799543249
0.007456310784430541
-0.04003014230264857
-0.01460985054472699
-0.018952058856207134
-0.04006238205904245
0.021388663561886907
-0.007810955561783494
-0.0010014948226574642
0.02616780831005854
-0.012126244785643493
0.023272814352698682
-0.030992253948599918
0.005484775302356218
0.019656809080397766
-0.013962435153141264
0.04406142515274486
0.055962906801201515
-0.012555711863851323
-0.00875970838196468
-0.04369980796815631
-0.041011760742851656
0.0021099674350732477
-0.016572856085429032
-0.008895508640402495
0.026043915234412667
-0.05411931174965062
0.005516858932007401
-0.03693373238329253
-0.036814745244987165
0.03247594074163662
0.0040795005152029305
-0.0045382421020474595
-0.02102284283237107
0.056199786271367375
0.0017375498182790295
-0.022123704000696354
-0.005509702718061923
0.035480582387310125
0.029029243471488463
-0.01761398827073856
-0.023065482610358828
0.011629780634441728
0.000466457942013722
0.03514753735936415
0.01635575867118449
-0.04354363513828466
0.044942566707030965
0.06617427008697575
0.0018886672519362149
-0.06671503816519056
-0.0058963484142311355
-0.01036570332591385
0.026388521361469006
0.055321312690814695
-0.0005843646789765098
-0.02923452108152252
0.0235172563048743
-0.007009528755741213
-0.07599172877754265
0.041909777001491816
-0.04210955950891129
-0.02433713576067558
0.04089690667513475
-0.05520415335302988
-0.02042704525487229
-0.024354524155004338
-0.02216090968619031
-0.00960559354704968
-0.008482026203232027
-0.013040348736560532
0.05147154251465166
0.010596703860707803
-0.01244358018902448
0.006065905816539249
-0.004669268245390271
-0.004149027129476235
0.03147929408418741
0.03149409050087396
0.031121859742872984
0.040875539163173054
0.0058390422533550375
-0.008988353819879981
0.04443098803298086
0.04587136794666311
-0.07289134651858856
-0.036483747504308425
0.004443798072113306
-0.03724146586774949
0.01068414977117995
-0.02120977009215709
0.01174141766074593
-0.009432634201674475
0.05668432160973951
0.04712171995171684
-0.021228859824052544
0.0064551890611260305
0.04843506210032994
-0.04040253062702097
-0.00978865199446474
-0.025097371176752214
0.053983178387291164
0.001770453430512062
-0.061341581874601654
-0.0012401051731833184
0.03308040197371524
0.10940804679512005
-0.05588971355163888
-0.03981453708571689
-0.07207430917229876
-0.013439796807060247
-0.04393699888239385
-0.03120693014156381
0.009794887278041259
-0.05190672677991316
-0.020935685001186102
-0.0062319622970346015
0.022572463724969755
-0.03798656496012767
0.06385400886537447
0.10873778711789724
-0.024588932580700676
-0.012856709625167235
-0.02959338978884682
-0.021732960829190028
-0.056631835016079164
-0.0010617958277316744
-0.011728014861465077
0.021215157722358775
0.004306672246376095
0.00561064530889912
0.04718338663819497
0.0524776761501645
-0.00174442290389283
0.020524608203849347
-0.03271411050421378
0.0025589451335566666
-0.02989533193700712
0.019814931954738973
0.03360794834522409
0.044520627476980504
-0.011883911287502377
-0.013229689499735747
0.029840132921178188
0.022151189950825035
0.009840162007278025
-0.0002557048862805962
0.011969213387503036
0.023058487688347822
-0.05132264110301438
0.07028931184555338
0.08967826040282419
-0.03200012280191558
0.02606311443259501
-0.006906036061587986
0.05214514196553185
0.0025454784323862114
-0.05376029231248104
-0.056559668123428754
-0.009043436320028532
-0.004280980780596234
-0.035477400344255616
0.00529687030189961
-0.03619770448673984
0.004360242783331824
-0.05692087782399598
-0.008146448965951217
0.00011657387719192019
0.0185758158031344
-0.07721304989376182
-0.07710773295852022
0.05826898863400792
-0.026485865461498358
0.009402588453038827
-0.05224407800281026
-0.053801893790453637
-0.010302532483721679
-0.06404620932845273
-0.08231991721666357
-0.024318131312249937
0.04231860891756694
0.04626650036255217
-0.04641051069058302
0.12182247816381557
0.020835708240457176
-0.07859391240088417
0.06688829116874208
0.03971055055082505
-0.04039584043387708
0.06855483729049464
-0.0036565103927531837
0.00414138804560647
0.05137026023127982
-0.03668092991391077
0.021929507168004295
0.028090952097890195
0.032388605395797604
0.02149236328875615
-0.11839724075808777
-0.01875912884684756
0.1603804777944256
0.09189930335696227
-0.0330457815159329
0.026715830764203995
0.0181649865237226
0.22328464751592253
0.07645393653103347
-0.02110244247140367
-0.002397040755528394
-0.08186198237148032
-0.018462948127455085
-0.010363148799356244
-0.023649491922786498
-0.03920320297746888
0.012760789351336618
-0.01832520513607283
-0.05347643705854835
-0.023753622468381416
0.008949696228791734
-0.026884943799203247
-0.013657491286392848
-0.06751962731403696
0.011522306163645364
-0.0006424756794159537
-0.02918796689412534
0.00313241685974514
0.0010181181456285424
-0.054188101968646596
-0.01910135204983707
-0.04232409478903245
-0.02531247046189301
0.02025833135365941
-0.0022095961965561076
-0.043759143201050586
0.024276560373779274
0.006139173483165379
-0.01992513504995017
-0.015005779023356883
-0.03666650150280891
-0.008834765833024942
0.06725216040241673
0.03727717486188877
0.02304622054713642
0.03003786325118438
0.024774305662258713
0.013817414514845992
0.0091041990456277
-0.03653126122856774
-0.024657266704554273
-0.014161182310039702
-0.006626477428461799
-0.01180855931342984
-0.029018584494884845
0.004615201300595382
0.05764800278342688
0.010682942485868478
-0.014418624983956805
-0.0035623131723198664
-0.01634657817373413
-0.038639354050479004
0.028798249910763542
0.01954786217500763
-0.04000661287146956
-0.01256030638208192
0.02306284326092783
0.01645015500260796
-0.02884636747840054
-0.012172046859028925
0.13688119526237227
0.10624650316294551
0.07102737368012914
0.05200596783060602
-0.0073153229776550975
0.02360073402957571
-0.09120690455205305
-0.02020733597122378
0.028582283755227894
-0.012109761937882118
-0.01342605474383748
0.00911247250345571
0.016938046579722116
0.020675059304927055
0.004903307925780765
-0.11559677389821918
-0.1863517486792153
0.01775104792645601
0.001726865509445879
-0.008217066076791726
-0.08922894523505957
0.0021931897013598776
-0.03635418461082084
0.09381433304329034
0.033045342934515894
0.0015260333115349387
0.0007127546653777283
-0.01525097015751729
-0.0006286809294653645
0.033946632194833265
-0.030581717650708135
0.063640237020752
0.13440654609572752
0.02337720188567489
-0.043418221147124035
-0.15080846854643234
0.01612482615199191
0.10358044820735625
0.009385898824826804
-0.014478700733340014
0.029514084857078147
0.033884345320047006
0.005789706375817545
-0.002797292125855408
-0.1645778675406013
-0.009357417048265822
0.062166130099207566
-0.004215030638907883
0.0020962085175080343
-0.008759008925040526
0.06870201989713351
-0.023060059733673935
-0.036781925548602476
0.15667608035751368
0.006603142388517151
-0.006658967204272314
-0.05058023441318362
-0.027769434392744326
0.0012426819415568956
0.022501701419204895
0.0197428982076349
-0.0227283842293951
-0.1332308354917677
0.02464766187383591
-0.0665593850182181
-0.07561275523055452
0.005857252038968545
-0.011839316164274595
-0.0013653182671877547
-0.00022290681194307057
-0.07459896542198151
-0.06716660025111028
0.12818503134777798
0.12930076557378667
-0.0018087364698424354
0.020854847807807733
-0.003022690949434289
-0.023020846181423773
0.01686858709578302
-0.014572564443521866
-0.020992661179982126
-0.009878801366796338
-0.01377255465039495
0.012500392378782891
0.035974535773878234
0.030504960433220294
0.008536833064712068
-0.010745110683666253
-0.021253306296682813
0.008998842336595246
0.05764944509473414
0.019267002335894474
0.0332196849422555
-0.033996487609278654
-0.02474231233280572
-0.020984837853915958
-0.0014945123895897135
0.01044815718466477
0.0061544918082911656
0.032062037101774236
0.0050198800089606655
0.004375051184447037
0.021155131204677085
-0.02383261762976488
-0.03874504160833853
0.028525313569251278
0.028206868011556214
-0.011764464720816034
0.008346764011206716
0.0003882396781877316
-0.009910713298353961
0.053371543246005564
0.06025251869260751
-0.031760467894047184
0.010386467534375603
-0.029049437410620393
-0.007951926165277077
-0.04561561389863511
0.037000696460664374
-0.16175410247612923
-0.08450861630880122
0.022928508809540744
-0.014090472736964864
-0.01376455534317247
0.0046420321188499775
-0.06518155801922784
-0.041454775877439065
0.06554440897148153
-0.03570263495443202
-0.018766647115462325
-0.017600955747515773
0.009313685967859402
0.010879023346820163
0.05708150920855092
-0.09744372990608476
0.007521746023106835
0.061136899256661055
-0.05147565241851946
-0.0098883299585381
-0.0075087263195303105
0.0222700785282409
0.0037409377187858426
0.1740288173554496
0.07974440395456295
0.02241819505996603
0.001126124041503418
-0.0026222073753863684
0.0470908820946593
0.04159007738545452
-0.02056150397076896
0.01645466382465591
-0.002597316974335669
0.008912062397590442
0.03559055869985169
0.03240494571438177
-0.006429208357738722
-0.05584991231845977
0.013541218117019728
0.012902033079302376
-0.006019777061347249
0.051607257522457435
0.018797990572440606
-0.01007859556365368
-0.02023325020970476
0.028194854534689347
-0.048654052614798105
-0.035662322838568
0.01055372674581635
-0.011479539084147119
-0.05393916140057841
-0.03862744592847401
-0.14858270691761724
-0.06019024437242677
0.01298146708899075
-0.0053290037903667015
0.015674989788308075
0.015321119833952655
0.022097159301446304
0.006579151284939939
0.041066965447428036
0.08141925621114925
-0.0018458230160807577
-0.008574938989440744
0.03834393108857709
-7.049793518533051e-05
-0.0050599949156560665
0.018448897231825356
-0.039141390702472564
0.027499586631553705
0.007063079025782411
0.01806908088814211
0.013325477346929886
0.01571763836725807
-0.026434068741935064
0.027425112330396132
0.06334407616858365
-0.008897260911417048
0.013940426788621682
-0.01203746160152419
-0.07370428851874561
0.0035605410043750415
-0.023978903465719924
-0.027944807759340124
0.024701148407005317
0.013762235622764098
0.026101273277155074
0.0006865528919850931
0.0021735538445187886
-0.16893155332853665
-0.09062851835848625
0.008970561423715145
-0.0316319507263055
0.03312915590468817
0.036668776045276255
-0.05403964030509326
0.018425521792095546
0.04803190056746828
0.005411319322906994
-0.021790155505206955
-0.021607828520286875
-0.011930583536373243
-0.001129969235744556
0.059887039111479495
0.024490584204480827
-0.052272679529205134
-0.04837697408223791
0.03743211438634385
-0.0020108112069126107
0.017809573839418173
-0.010556284180986612
0.006882067402823064
0.022589212494881834
0.004056306269874918
-0.0015550002026180393
-0.023853536147756673
0.029677979842168165
0.03092249877521957
0.02956845402307221
-0.011135788939515449
-0.01395282909466819
-0.03482994960882619
0.093646667431245
-0.01002916445434274
-0.015068568522680997
-0.032879546478466734
0.03573417720034738
-0.001194433754912259
-0.011334303339022946
0.017796301796611458
0.06067410138734957
0.003263692852837302
-0.01820098646736223
0.001894846600107565
0.169678227298088
0.018538382040778248
0.0013974088233191626
-0.03660252218989557
-0.011101262245621302
0.024826892173394517
0.022288315665779677
-0.10461162699286602
-0.13432843479775106
0.03909531354652419
-0.01442843486219682
0.006920204594996643
0.006520032863666787
0.042899780853449636
0.03330496753927382
-0.012708811751971314
0.005829905386034612
0.03627177497148535
-0.040814769080093356
0.019109125756930932
-0.03620111609977692
0.021580068005258704
0.008267653103889903
-0.025812957700422842
0.019222705120793996
0.10465679848545564
-0.020022429688550652
-0.13884340880982274
-0.0614702315935726
-0.02800332351418255
-0.052154726630327025
-0.1123713393384552
0.0336755770886345
-0.05072502641544633
0.01486293922756071
0.024225335943987788
0.028655438372722115
0.008678571606734341
0.012257611826866273
-0.01879209975958528
0.01331031362925578
-0.02183501231221491
0.015462074893738844
0.022513639045681256
0.016456242979246426
0.004308361932032599
0.015308571623053385
0.0010499349184079413
0.01658488639626367
0.02994727270383612
-0.03140428088480623
-0.032112574708550556
0.0334673559205267
-0.01352481446823338
-0.026365842720556944
-0.014501597914772487
-0.027534856827096228
0.02321560599027841
-0.008649209297625743
-0.017603472052952727
0.06181924814413293
0.0825497951074866
-0.008695662057219077
0.04834310660826959
0.04395684201442595
-0.02836582813494959
-0.026671341738026263
-0.004726684787475997
0.03326265612290471
0.026639165347818704
0.003147898686993188
0.0005967544410961951
0.014333439707416563
0.02727181359768134
-0.003736529481554382
-0.015510505248719596
-0.055908145751766974
0.0190829492721155
-0.0012251121970027494
0.016491354319942936
0.01493871046026633
-0.028031688375034534
-0.03458434974002215
0.005317226773444799
-0.050014611711153505
-0.06586198442475595
0.020557637464468512
-0.03181561044868552
-0.005814893489368024
-0.015367929894436009
-0.00929667751662653
-0.01318160120921472
0.030660665426742777
0.030145219045649256
-0.004884466053207062
-0.014430931205949406
0.006107434820384694
0.049270058006838216
0.12650794861517317
0.04840419546132571
0.0831312711533666
0.023222197150864838
-0.10331958295125229
-0.06917543481064183
0.006572756880050275
-0.00993470745970259
0.02212935544001436
0.05843830412857704
0.002447444370710173
-0.011248877943251107
-0.01932998455109651
-0.08259277503545943
-0.0013740514738883767
-0.02735302312685685
-0.006943247282169767
-0.007488517967674577
-0.01553775996314524
-0.01214740539875609
-0.008754897877371822
-0.02118222709312466
-0.009161339205529064
0.00521497936807742
0.056813876162835224
0.015470588724393513
-0.000379020806244627
-0.031401045603899
0.08072459510715524
0.09725860056785347
-0.026851232218093428
0.009342957871054308
-0.16722422399063244
-0.08466592120090718
0.0006867494201748372
0.014609328781865253
0.012380498574733655
-0.015943887472209473
0.04922494897723573
-0.022842116434127254
-0.05558552119044696
0.004304461689243013
0.017985093187714334
0.02070567034884335
0.060194503966494624
0.010249169515250366
0.008130066306752101
0.004079408167550539
-0.002616054629168867
-0.012087109012924561
-0.02823579319263959
0.0037818967451893433
0.04361829288027078
-0.01754958206952003
0.02693023129239622
0.03339584995169375
0.038052596946449344
0.012686399028165242
-0.062313364929661316
0.019749834419752085
-0.015068171615545842
-0.007449673486039213
-0.02846315423498707
-0.0901602561023164
-0.008185681569052649
-0.006605437008236939
0.028197336254864376
-0.027779340337127756
0.02224665942655384
0.004038420718324768
-0.01496363924094756
0.05168469586674708
0.013378828238337739
-0.06860963581311315
0.09796695923994547
0.011921610203199503
-0.06462025949264796
0.004244356080411149
0.003900656534098307
0.023016328231001804
-0.018944396811713768
0.06705602775724206
0.08009305462939935
0.005040821656640133
-0.010887848484170702
0.038446749620841617
0.0027736697586854867
0.011809855011335007
0.007107631621960887
-0.02753363874179123
0.022770937244782713
-0.07638293181242674
0.004854118682181072
0.00916964636720273
0.01644372523716008
-0.01186815385487511
-0.01932880436977024
0.08512897828179897
-0.005979466641391444
-0.0015033312598728085
0.03944098396401878
-0.05290047515712128
-0.17018482525412587
0.023488518889682557
-0.015633341597124054
-0.01579809306587149
-0.0019591364843442646
0.005226046605848201
-0.015885913027040198
-0.028217715028420635
-0.01492465107916324
-0.018583655449426684
-0.014728998299721208
0.008165703581139312
0.0012070731934951233
0.02407967363686232
0.008240745355462651
0.06309516226560426
0.022932343818951945
-0.0053465420092014306
-0.003428402168941359
0.0223801485580248
0.001686537647556692
0.002530675145113296
0.02797528939859856
-0.019538571811231267
-0.024222974426406824
-0.030025051150647936
-0.009921922147836031
0.0107579837582387
-0.030075474828952346
-0.07808741876687754
-0.12221671196542777
0.0009144825876833273
0.014229030665378922
0.07830170330888786
0.06505676977289028
0.005626556084795261
0.05570289650504276
-0.0018260214807082104
0.007289113619008376
-0.034997749426839204
-0.006295340729633379
-0.014490170657913795
0.1110498196359144
0.15769325367870982
0.037348996182513486
-0.028496061688989143
0.01818217450016351
-0.013100193496793552
-0.02941704643887972
-0.035523537026399994
0.010500993987552889
-0.02996866176239335
0.013693251277086168
-0.08524643868325735
-0.09488391111121575
0.029682069798826635
-0.011148511054400286
-0.011282541585409827
0.05198222765284374
0.02089822481341688
0.00420148168946671
-0.05225185158368292
-0.00862144597334216
0.06955779971033639
-0.001713213177993583
-0.043320192270000835
-0.011978843895529416
-0.01004754321722227
-0.015882423228291084
0.01814057495427982
0.014915272726118742
0.0281956423134228
0.043501311207741714
0.0029447518733380198
0.005784249453799786
-0.0007754932454618441
-0.03593678871062342
-0.028969509322986083
-0.019680072982771052
-0.029384379221871277
0.0017692909368936896
-0.03382519858454108
-0.013340836603229135
-0.09955028976442795
-0.010207654772877339
0.0037913487036787723
0.026913831357298506
-0.0017072198968708764
0.058598471092948065
0.016958569375664156
-0.005386343617321272
0.12556776517241272
0.006860290481968493
-0.024030251398564108
-0.022404978757985732
-0.02637556364841571
0.0007324427134332017
-0.002883662817678697
0.0018385504959589833
-0.008947111490500132
-0.014824413766448798
-0.016082422539166134
-0.008796208623435595
0.011830229530023547
0.0014420958333151226
0.03353996302878438
-0.024721653797881004
-0.02240385782200533
0.08277420744343875
0.01069061867861593
-0.00782772092424394
-0.01087677588303504
0.02672532304459009
0.021260834193320526
-0.030742658733402546
0.011521410084864655
-0.008783983161103943
0.007239249063156537
0.0013927639809229537
-0.01475699102995696
0.012497301019184807
0.05265761144992951
0.12904384457702472
-0.009674587898313141
0.01859769065817638
-0.04540711744634125
0.023214427171867058
-0.05078573423709382
-0.05975188807811243
-0.016111664765471906
-0.10005605721546386
0.08998501570904575
0.04646067776694313
-0.01713566415651045
0.03248809820632158
-0.025041707625750434
0.012340900243442463
-0.048501224234193514
-0.06396741854906866
-0.021832851045244624
-0.00723598763994128
0.01579500110339201
-0.006635960313994066
0.0526300112051618
-0.044063087435735115
-0.07801665904165768
0.011618990141323981
-0.004125638395025411
0.006345319005968034
-0.049873442733929234
0.01905573010942868
0.06862122299182433
0.02912984597720623
-0.0036889887410542603
-0.0033171360453377718
-0.0013734975898537737
0.03402359373964759
0.011624270572425195
0.005667595734864405
-0.009113391389928657
-0.004168935045059452
0.06959663934261284
-0.008152791839195343
-0.019347413664025034
-0.04020833733314224
0.06015137397956109
0.0831425770250163
-0.10061127052414309
-0.10923883013806825
0.028156927480349297
-0.04862216681895428
0.01328637598713826
0.15996474618781178
-0.03079766612569091
-0.0212434076527358
0.015014794815597777
0.0313722438361371
-0.031737455020745334
0.039274685835414117
0.0030739320269287333
0.044185844762069285
0.0021656135506891265
-0.06569924597100583
0.0004917437177656181
0.01603486884079697
-0.007226482507086166
0.02416496194977065
0.024777848123491094
-0.032116495787685925
-0.05901407252360274
-0.01563926485601841
-0.022217112662885063
-0.01983742160452224
-0.027446870128712695
-0.012532905008038987
-0.016692216557988578
0.029185211965065034
-0.003276711514617591
-0.00156103079727178
-0.02563449551661053
0.030947247669300185
0.05266357402535022
-0.0814094411296482
-0.05661147637434852
0.010861198238496276
-0.0329003438136692
0.0041566199683964475
0.02109338196058999
0.02497561149959975
0.023092118376942538
0.039012178160444555
-0.006478193969458275
0.015306570136175507
0.035190450419790756
-0.039263525291229576
-0.03005550764861823
-0.005894337243093141
0.04079605514492223
0.054364455129739205
-0.007372409645949443
-0.0016104146414600098
-0.0012839592111049446
0.0023626273508303842
0.0731558740852466
-0.007853151736873242
-0.015839375542238205
0.030108888163934897
-0.05170407639365451
-0.08554343805532014
0.0055567997592553394
-0.016351731345196796
0.04675247598124151
0.02214878788291522
0.0859173904525594
-0.028855573715907447
-0.0393280350192799
-0.004629257702996058
-0.005799667176940974
-0.026439166776905658
-0.016343505844817058
0.015339793729943017
-0.00937846220512906
0.07343298431931791
0.00623986507976569
-0.028903205140717935
-0.04348178914683005
0.02644855988992787
0.057894170726499314
-0.0159121696007826
-0.15410579959286871
-0.05848529737094439
0.0008900657607931366
0.04238065881918507
0.020722670220151052
0.05167735193939063
0.019736833070773122
0.02993474456168289
0.023888991294342233
0.10937965205528462
0.029119638635006315
0.014904340038293344
-0.01718793513960735
-0.009659677045825564
0.015377274878856862
-0.006201836424275607
-0.037294018605320084
-0.000296141189426188
-0.08155635298393493
-0.048319776446800744
-0.12037794940772314
-0.13465629097143916
0.03184066545807255
0.028375903525678044
0.051546883516217064
-0.014637345565659007
0.00320549522928032
0.014438250774343997
-0.028647055327687635
-0.011313622563885318
-0.007412604174760903
-0.03234362879743896
-0.00010450585004512259
0.022095525357066572
0.019733065411157817
0.001616920936832902
-0.001727451442058444
0.019624597357627883
0.02524599683690896
0.02359774157750206
0.09017400119487086
0.021369412962414718
-0.014591790159312964
0.025458290669354632
0.020762573160358205
0.023838416775741677
0.034248300295959856
0.05572944661294533
-0.04233080230095666
0.01081153286095002
0.015602559513710286
-0.005985795019633693
-0.006586806161829112
-0.004842330765119804
-0.01550604345433695
-0.03835645337521369
0.0072424285105778825
0.0010745715137848086
0.03774871332602496
-0.015642038530894076
-0.004094842266182555
0.01264647911354745
-0.07312173451326992
0.007380279239636995
-0.017960344085649456
0.03257372126957735
0.05564591072228697
-0.0031488286580896676
-0.06358949353307691
0.07037440690054571
-0.018237574788411155
-0.0827406426081858
0.0064395205952701715
-0.03673848467424345
0.028292430151844912
-0.0004996342981364885
0.025726502118741338
0.024134357933131553
-0.03557523754169095
0.004663920275391232
0.007957127518018687
-0.028010644712073665
0.017023159732563947
-0.05285486500440244
-0.002886669309711418
-0.03099386281605198
-0.10412843059295072
0.0003029949728234444
0.006104363186572544
0.016228558395978983
0.03954044354009613
0.0024404173459125315
0.03418083988083364
-0.011016212300460718
-0.00945446070162877
-0.07830749486593781
0.0061821782492264355
0.004577902565846121
0.05153342440372782
-0.024381476021843988
0.04041823081144308
0.05495541244311283
0.06072544886724081
-0.005972984018719705
-0.019668031870749947
0.016536312858117387
-0.0016740380542502287
-0.03302961689446535
0.009534647709053849
-0.05253853615856744
0.016666255126942083
-0.007387697895459874
0.05176850278234668
0.1398283496799506
0.010196976251645562
-0.03480923753336037
-0.01541038374821385
-0.006076566269371421
-0.0004068476084947189
-0.0293109145892163
-0.02972647507854538
0.013441625517906982
0.04708151671694716
-0.037930235162085046
-0.01914442211835183
-0.06875558113984077
-0.014116870565488264
-0.00117391480209354
0.007785407443962538
-0.017653016310888132
-0.05494672830930779
-0.03549882788616228
-0.005821226377182348
-0.04671540160444758
0.102641190352998
0.15827007244188293
0.017333196823858556
-0.023764479899912
0.02157898593534184
-0.006855417301614945
0.15401299562637288
-0.05679162698176053
-0.1321375627364645
0.03504386903634355
-0.022966567042866322
-0.03350523164823728
-0.0078332452646013
-0.013976029584139951
-0.02270169008728704
-0.0090168228713859
-0.028286401541439583
-0.006233545313448807
0.004687270975735731
-0.01023502846514941
-0.027094427582591243
-0.033531304955558776
0.05025052227973416
0.04486891565429884
0.026239273013390456
-0.004155281014312184
-0.00688168735301502
0.008182925091018338
-0.01083105221142001
-0.01906544677071672
0.032985849626314845
0.027239947202387947
0.0008777576640201264
0.12656698458637083
-0.019248133532031787
-0.04834207910886409
-0.026794509960481244
-0.026373233329561884
0.0038193010291934014
-0.008760652868932491
0.00918049764289828
-0.0748230375358967
0.042963145271019666
0.023624833803292982
-0.030877338257068176
-0.015591874144430723
0.003494573165978966
0.006769084405236628
-0.03417069054550386
-0.005244563937824222
-0.03298069510440188
-0.018167645656108705
-0.04026933336057257
-0.02257225979161467
0.04606880815289508
0.03653489291375408
0.02916657427638947
-0.011648354274455052
0.010240255998314908
-0.007743751752100199
-0.011999198176959668
-0.008073589531557842
-0.009141179515444178
0.0419026622642168
0.04244010600324681
-0.034300032896457826
0.0005889497433640319
0.14432801120175748
0.015275803350580255
-0.013086676190158124
0.008413581453796299
0.004343972087827545
0.07962771287864119
0.030617039571863288
0.07782603105732917
-0.02039745530771967
-0.16095235728176016
0.0015896704486006465
-0.01808690057675525
-0.023368713394576565
-0.0018990405847545925
0.007528738640302693
-0.010655152249316307
-0.00868165400006811
0.043416848782661645
0.00954361385168814
0.022195392664664883
-0.0067464772147075944
-0.028754508279215153
-0.005539600707804459
-0.026710358903647823
0.006422050531388429
-0.029563751798825345
-0.1401220952168459
0.010421954228982967
0.0162036252363079
-0.0009003643602988941
-0.016529784393453487
0.013029545994871102
-0.01987726952459628
0.02819398626045331
0.025121997179637083
-0.01724042784876013
-0.037780337800777705
0.1432564622962332
0.08899904394729104
-0.12237446678028138
-0.026193021222067122
0.047542597187679315
-0.010479764437270575
-0.050606215664601675
-0.05467987755426944
-0.09214163693636489
-0.02239465552561029
-0.03155318618081792
0.018304280417125132
0.05669671822647763
0.06588617354820638
-0.006391909340373388
-0.0533836586191244
-0.0013252860107862295
-0.001905927586165653
0.011273092074542442
0.02353424111695371
-0.005248989976878352
0.01073674011270019
6.484079097150009e-05
0.03422941704323434
0.03156024689931699
-0.02569457572780074
-0.015653451020683946
-0.002299578435721494
-0.003497738395177631
-0.000517584869980463
0.01073372239634095
0.008127747316861611
0.08312676074138488
0.0578144654309781
-0.0006074022742264389
0.0018790827397549058
0.02100880289475614
0.013558206002042621
-0.0037371749122574955
0.08911376340873207
0.04368921177859122
0.01993117540506016
0.012315297450184852
-0.009497085234074528
0.0026640863158380024
-0.007973664505932409
-0.034007115072997876
-0.017830794139220577
0.015458234899645639
-0.001637205573792095
-0.06858184689384061
-0.011675855600807108
-0.036481379293164494
-0.0475929364460783
-0.04811131651337815
-0.10645635203005421
0.008647790883178047
0.004372909006422112
-0.008188010072238454
0.0011819113653552327
-0.01402882531835194
-0.008068566986803947
0.0006026773277999281
-0.06259100554820674
-0.04436300775673953
0.01870098931405185
-0.0145828645684386
-0.06276945369981657
0.0006149220346631383
-0.008639830704668026
0.1846601950079196
0.0356096475654682
-0.0283036715586537
-0.006913822236387216
-0.019612143951136005
0.04545465970680718
0.03210556418846602
-0.005740256759208761
0.07671035275741173
0.06125888366968374
-0.003178638723102422
0.015335829052896703
0.011454248244811683
-0.008446686732843533
-0.014736296861342951
-0.013898932088539642
0.0015372148193029927
0.00535833681666223
0.025271916628870218
-0.019067103964108593
-0.04763185336536543
-0.003734508012334172
-0.010624490593870004
0.031581451490964356
-0.020554192616634097
-0.003117646972468473
0.03825323613214553
-0.042930775463941195
-0.07104054622404109
0.04167603066136438
-0.025004322182560716
0.004619684678551029
-0.009497406831246065
-0.013724819297802372
-0.026791523003411997
0.02752012597565587
-0.09379164948839461
-0.020255691955387782
0.0019632550483729807
-0.02312853608001437
0.029493053512151417
-0.018415442243432084
-0.007517554861213441
0.24387306403475004
0.0701867833560662
-0.05447582725368638
-0.026080302260645786
0.00139605810601278
0.028304589098521554
-0.03127988013196301
0.02718673503250017
-0.10856949787564084
-0.13669727556012878
0.20848279789762572
-0.15421446925953536
-0.09476908799334459
0.1451543515370949
0.05072261575217301
0.01799528969737582
0.01160773638073236
-0.07418126475887712
-0.004581927292549111
0.08124702669314898
-0.01036681445984754
0.023702364646292856
0.05229906516102822
-0.047996804658789506
0.05584526672877884
0.10433796304396056
-0.034228377863178394
-0.034965069993888
-0.047551297182903705
0.02302292496735992
0.014162207935548198
0.010339438372305006
0.003963296339697469
-0.02766999455572075
-0.061854433954985355
-0.0053018216151430675
0.017685873242573723
0.0011883665279944933
-0.02416665010557413
0.03318116525803557
0.014940992611621243
-0.05527842542640675
0.009073218637990014
0.09674183150141778
-0.0036102724033862436
0.037370340879533955
-0.1978273005650386
0.003716122338423293
0.04680421608192827
-0.027248620367343983
0.003659675165588768
-0.00955945280885313
-0.006150960598775353
0.016905960189379354
0.04471975134766004
0.06481763323041652
0.025616649711444818
-0.0722067103353424
-0.0800443812897184
-0.05185760384774715
-0.17221464014835844
-0.0004472642587948171
-0.008607792186902658
0.013692909787697164
-0.03610233095823092
-0.005010990983207644
0.036849263146847465
0.004586628087756029
0.007027186198881188
0.013054951035731802
0.07418012958583747
0.2095486567788975
0.03345110796640607
0.01125417995843777
