0
-0.014150103477705586
-0.04393540215358507
-0.03879505634906365
-0.023376058528293994
0.01807999821031736
0.033988675693340215
0.012414077674163025
-0.06821200029089786
0.10639865451873026
0.12430185136419812
0.034355650691229686
-0.01788575997635416
-0.009995162225830018
-0.03530270067476716
-0.07751011251687683
-0.02265480473157147
-0.024922120897937744
0.009059714979673271
-0.03926265662377355
-0.027825262350475447
-0.015262816173718052
-0.021512220680526585
0.1288207199274382
0.025182097223468924
-0.0241015951237505
0.016059718123922248
0.03448392583655458
0.010153531652334496
-0.017710653746337377
0.018586135977515197
-0.012873843556161462
0.013887078348813656
-0.019516656829894244
-0.01250981211631439
-0.01699468209337589
-0.008870594439809972
-0.012892882888137855
-0.033371080750783176
-0.02322599181121516
-0.02094743411200229
-0.015371523553687762
-0.04768454031893326
-0.007504679504907819
0.022822165023829534
0.017152553792566808
-0.006689270850674624
-0.01435462319509602
0.006804721719749962
0.010498836740370127
-0.006151104299572413
0.014386137962274777
0.014056710666433056
0.022134528166111903
0.016232720142628793
-0.034371057567132345
0.0042322596281388946
0.017187260038618965
-0.003893137368855614
0.0005876773770080034
-0.07377755426323436
-0.001915907703846099
0.025083174975320546
0.06824245648870317
0.026218820344637506
-0.04258153368883287
-0.02920359890016693
0.016232194680551572
-0.00915668526472988
0.1174461306533648
0.029062773936221566
-0.04214054616365053
0.01444520694454795
0.023447693206569722
-0.01214449508916815
-0.0021596089315204323
0.010561539380741938
-0.002502828313779167
-0.011212043211807838
-0.0027291729521762304
0.019299451878099953
0.02672048400270253
-0.008734371786575231
0.019505217976097104
0.005574553168984477
0.0012582481409351624
0.021385689346316114
0.050594248696496785
-0.1071170582388281
-0.059575150174680506
0.012614428999511486
0.01092306884405161
0.0032480676046071507
-0.010319664644470988
0.013120345899626951
0.03155148313211243
-0.028749546280486416
-0.003337285821022506
-0.1420101226335135
-0.015460598142885914
0.0061137888274426025
-0.0007729050110724324
0.030850102220003263
-0.023582842895721427
-0.04099873508261203
0.00562471503501185
0.0431603914841002
0.01632121404453532
-0.0190844007080033
-0.032851888091059905
0.006714917138393489
0.027874366431710887
0.023806611146358254
0.03358319581218712
-0.030877735393599604
-0.05610944296847947
-0.03202308458254276
-0.006568175373845
-0.00803529238957967
-0.007501977143989379
-0.005914285452883286
-0.0035799807671618765
-0.0043839454312189765
-0.024497250250551845
0.00022218543851785965
0.01697690763329627
0.05610055412977774
0.00045793617447309937
-0.0023386063141447666
0.039340151704632315
-0.043783056755503855
0.027972267846213306
0.1033675560409454
0.04707004107661609
-0.05062284519343016
-0.07854774702465063
0.007740429204508675
-0.010647155109730735
0.047725766161668265
-0.016778056331132954
0.06390946638011583
0.022728760290696606
0.05522772954173626
0.06054955340429968
0.030225182552562402
-0.04225173139147946
-0.0014662120587357107
-0.008983925843698002
-0.012095162538530733
-0.009196946541190958
0.004059932624705205
-0.0006813241893335358
-0.014649146753829287
-0.03679076593331085
3.0334524710119058e-05
-0.030296702510555662
0.009217662534240806
-0.020088663602648042
-0.0035984545140791044
0.054700848426841316
0.02465890911757509
-0.021308968590336996
-0.060230143315688926
-0.04013089629572589
-0.03550869356780636
-0.05982614395765846
0.056739585746892925
-0.0033389713671958332
0.014450342636161516
0.0017441599635851241
-0.014562196952699053
-0.019136014197747835
0.00898071285628542
-0.02638833138353717
0.014872675199190864
0.006552669458331267
0.0058570099697673825
0.006694987672230253
0.0547126379321931
-0.01304769498906772
-0.002792372452883389
-0.029715874104080924
-0.04593433507090556
-0.013355142415101176
0.0023743031679591305
-0.008835451748430341
0.039505421908647496
0.04674852786433556
0.04293049739306706
0.05095414495581121
-0.017739010227576287
-0.027687578759638648
0.003228855967844786
-0.013622844294965599
-0.027067290288479068
0.1445600170054315
0.005358937673603154
0.010735257821895664
0.0033052931261935573
-0.07206004934767944
-0.1073948513443056
-0.0011215830229057173
-0.04626682133422643
0.015322818377424783
0.012566683077423394
-0.005756049367149415
-0.035878907764555226
-0.05237722188774284
0.041739633050075414
0.04009937314177947
-0.013392863323515664
-0.030266686297324683
0.005286158823205984
0.07214564136278433
0.05494053869693962
-0.02974423610770992
0.011265331592434613
-0.027623440645292055
0.022516806397296356
0.012745974011995042
-0.0020767271031826525
0.003827164036633699
0.015471372361225472
-0.0009663409705393171
-0.001971291716692485
0.004137332919524701
0.006079799391093923
-0.10955822073037214
0.00010724696319983869
-0.0028594609263513037
-0.02486788364037088
-0.014564026863317292
0.018959630247364138
-0.004151162287965499
-0.004581488431690146
0.005627173726596554
0.011195539283250022
-0.025495637734323534
0.10538335386399703
0.08343207601800436
0.03651105433734808
0.03114936552610464
0.009133544697189043
-0.0032799271284294214
-0.004626487056747575
0.012336621599359554
0.01392908301017857
-0.093413595823737
-0.004825918009214936
8.260200514511623e-05
0.08165949958005729
0.030649110532484442
-0.015296439506063578
0.022824164018003554
0.03322714480626273
-0.04656804597332899
0.031014197214140494
0.02641514666572111
-0.024844840380412254
-0.03890640628219699
-0.05265044528919577
0.01673207938507577
-0.029023303564154043
-0.025464942857041855
0.007479434286266887
-0.015077082592468274
0.006809134801170994
-0.17367865924002232
-0.05343503649903321
-0.02017941081566487
-0.013720709756954438
0.008825196811449238
-0.016938588854161055
0.028830988392712743
0.05411465497037821
0.08026324000861831
0.020920280380440207
-0.00019157214508068595
-0.02498928151032961
-0.027112363674288112
0.014352112027185652
-0.006385162623842374
-0.014827161866997245
-0.032266798500323636
-0.006335581547739771
0.01910427041600506
0.02500679003660629
0.01568805438574167
0.0016105504489544297
0.00019357759338477562
0.044823086845100835
0.01725686806463448
0.008148598533310573
-0.004330944648942745
-0.023661322135068417
-0.06824139889425221
-0.03627411982940913
-0.005449658858312906
-0.005795040024085569
0.037386603135390085
0.0068841552135248864
0.0033354478867164404
-0.04547454226594521
-0.014851462450981213
0.04036551413423076
0.0074688605435618855
-0.01375625268205071
-0.029251508388439
0.018699566801442455
0.026474915008601614
0.05381394762792151
0.0015760456622698562
0.0020892203280494064
0.05437444660725879
-0.0017919849747687433
-0.010716518025377191
0.0018314870930088464
-0.01338153042562134
0.02660990659388078
0.04141983000619429
0.0011698276233123844
0.0065099571489417776
-0.04799004458608841
-0.04675782870020259
-0.021921127212063206
-0.04125664264038448
0.12990503532463402
0.04076107940005743
-0.020034725228508143
-0.010896509304841907
-0.0042853716887148365
-0.050138556465677164
-0.06444632532908573
0.060109273075511616
0.00696554506071093
0.005614888850562822
0.019397553789249577
-0.014500181652111357
-0.08608308563624022
-0.10854998362970782
0.00429403114967457
-0.00919763348317722
-0.004964602924904877
0.026309548883650533
0.010533233465900585
0.03895483633555046
0.04434947323205006
0.08832597665331017
0.034418677007556714
-0.018745788561730932
-0.04883154697981075
0.10341525712670475
0.10703045472413925
-0.014808885854822996
0.015472511044911565
0.008745900327478026
0.009978188129448829
-0.016252292014663123
-0.010865216610557227
-0.1653713463733049
-0.03875029942691383
-0.020205274296635833
-0.011364688625213478
0.019552935607161533
0.0014535872816338815
-0.03685311889893973
-0.02145942684229355
-0.018443535388635482
-0.008980462439426875
0.01721579044689985
-0.007187965534121143
0.032097289796589504
-0.006582728230144267
0.015423560498254319
-0.0021454861367805793
-0.009353869577876832
0.05889853414846161
0.06113360084794424
0.0066429623831441315
0.012206696355512511
0.025786235204909816
0.020536713810267556
-0.10984801304107922
-0.10413079487114973
-0.014830126205202215
-0.011689668189859519
0.003352611250643618
0.03000931947970008
0.035546788924471065
0.020771275134500673
0.01417839482331901
0.009321823853938387
0.020927767477305254
0.01231854451467971
0.00733062831514412
0.024324692587330287
-0.0012390178386784032
-0.08732100417063744
0.024360514971436046
0.018703914421499896
0.00972969508463451
-0.0019738201288992904
0.01829268401505806
-0.022919561034630387
0.005535041789855901
-0.02147671678852336
-0.020536295794214905
-0.010061442674639293
-0.010414493801955466
-0.03825626797717381
0.013222616751233027
0.004585202528359895
-0.006546032538363931
-0.017570722224722595
0.04939496563294734
0.051921637983353176
-0.0123889932182828
0.033965184740874156
0.07767166588859362
0.041168494844629366
-0.11364641919781052
-0.04889420292865002
0.01059400624910728
-0.008305174331184268
-0.003789590657284797
0.0027402540824321615
-0.05198305211679554
-0.008382571388467878
0.01995985513285745
0.013301570973362608
-0.0319079167211883
-0.007067676458574868
0.023017877252804183
0.02204795570554083
-0.0009205949686128681
0.00522055627213083
-0.009132912232126476
-0.008584475760360293
-0.01733925670467627
-0.03045025173800936
0.03754062582219413
0.028443453572379304
0.022554590415725245
0.03063882832116276
-0.005731890970774096
-0.0035692807140918358
0.02513345048144474
0.041237485447216775
-0.02494486471462321
-0.01228573067389644
0.003019067646114299
-0.009696794529135844
-0.009238193736385618
-0.030054704727375474
-0.004722871884702189
-0.008154735126454484
0.0062501974126793645
0.005328352372179238
0.0014835846207001888
0.023763622173672522
0.018886494478897696
-0.09269988330070598
0.10666303111745726
-0.02064192218547346
0.005102115463404488
-0.008985171718482255
0.03887599530248316
0.031259840942856054
-0.03398592234533597
0.03329390945548328
0.01554894367764619
-0.029786600547948416
-0.06191765416578268
0.009001549367064144
-0.0668310304448755
0.021325687949882214
-0.015752605318479662
-0.07647610418201206
-0.009682896860460538
-0.0006839520023241772
0.03323095394021208
0.02151363182156883
0.059906923538014675
0.009746372442428783
0.02224850605859234
0.02706398159787338
-0.02556398365829283
-0.030970382676396947
-0.025916572991169427
-0.01244569346070879
-0.008435940291088583
0.013452011835865764
0.03624114934334758
-0.024559386499389674
-0.002173882921661307
-0.017161470282129034
0.014485386903969333
-0.023040559191802312
0.031031510888787094
-0.04648078271343294
-0.06638664086070095
-0.14046644499678518
-0.046135546099031935
-0.023969791140934706
0.1600305351735923
0.026827888958639388
-0.03372317115089401
-0.031048494686767496
0.023641154237558703
-0.017696339945699795
-0.0002607780739018017
0.15146392042879586
0.02437655646659594
0.029721259070119556
0.049205425124675385
0.03714906436380657
-0.04027041311313479
0.08757981291844948
0.04484210145592717
-0.012275816813070899
-0.0013496779204189165
-0.040699558655786366
-0.03697027683902334
-0.0015459693666398065
0.005913679746759292
-0.008128920019665552
-0.006441924378505054
-0.010976331649810126
-0.03568533831921012
-0.05622224850556812
-0.07673881503532776
-0.0019920690299233645
0.0036671615769635732
-0.02584434676145148
-0.005094883732290949
0.003301178676411434
0.054240368443965827
-0.003735898275558557
-0.011638613662768601
0.009638943322990041
-0.02473231271530827
-0.015269804273093619
-0.011199791728466049
0.007291795388062116
-0.05569655285343172
0.11730664881168074
0.16937621361417432
-0.01998875412073288
-0.04900312684063595
0.01020593881583515
-0.001723206051204949
-0.041478033628362464
0.009831801039168727
-0.0027422029763411277
-0.012743182554760967
0.03563617391498543
0.016751427859230252
0.009732534783429947
0.04343121958243082
0.07848717321937836
-0.02066773864191542
0.024976689161060012
0.014451089229411284
0.01032865321963095
-0.029939553187161575
0.01139372031329938
-0.009447485227033588
-0.04258821223766578
-0.1444344957471861
-0.054804485984378475
0.0020790718142487566
0.044837517455926706
0.009397833198096955
0.026629131673644172
-0.00718718973667322
0.008488785528536174
0.07801640733874823
-0.028440631393862513
-0.013844232199275183
-0.0014165137407681613
0.021194885519280584
-0.011919529428718025
0.021170014441676398
-0.023849798367617733
-0.05418065429307387
-0.018037035384513834
-0.01594700658879492
-0.021382376844441994
-0.0018800586762511549
0.038313243628278995
0.03165906998830477
0.055152755128594855
-0.04526139696290364
-0.055990697475806095
0.0358572364348861
0.11189026066260786
-0.026793465942902512
-0.09214222911101815
-0.060953242577665524
-0.005805596564483541
-0.02844372640966085
-0.03984816141289607
-0.0033581679889189615
0.02940877231272081
0.0407541773759843
-0.026303412593200345
-0.021800474495823625
-0.008232167398751544
-0.017870994563174314
-0.023724430051884106
0.008352814020774424
0.014514542338044532
0.029141100209429185
0.014559330043646446
0.01209923803698352
-0.05370091568854438
-0.032462366803125225
0.0316127559671515
0.031213975730658986
-0.00849985236973457
-0.04401974110467721
-0.024922512435787338
-0.01608337629940939
0.04182047522282157
0.01997635144211586
0.11300192838417814
0.01601442981144565
-0.05176348984726811
-0.017588275973811126
0.0028738861620972193
-0.004693591389221694
-0.03317337629858837
-0.0019680783560355164
-0.05687078282956847
0.08997416904969112
0.027710273813738355
-0.016791724469039968
0.004954276993688874
0.015408328025504394
-0.005218169024502071
0.023909717489301156
0.0004333631485299083
-0.01946229327998731
-0.03932439361103127
0.12153969121274322
0.055643612774684645
0.03604131396983061
0.013347925742314916
0.008712033527874773
0.03000486422906745
-0.037391266779720767
-0.003656376588913553
-0.007016127939349378
-0.00849050430345151
-0.015649898592265333
-0.04631168553707111
-0.016554538199057178
-0.002076594049598592
-0.011300055309235285
-0.012053823825997262
0.011259978603822675
-0.013637723165504398
-0.06222464018240576
-0.010262795528730833
0.015340387994050474
0.007829238648287839
0.004363833581198106
-0.016817757691220903
0.11915825059787204
0.06074103256839485
-0.03175240947592312
0.0391248139430943
0.013352359768194726
-0.025998538028639582
0.04426916089164109
0.04810663740352089
-0.0304091157820614
-0.02508932905141731
-0.008363480614628003
0.0017325852950643842
-0.024781946703099633
0.015892636811502246
-0.0850588385903155
-0.14707807641508663
0.006262313874826171
-0.032566873487311895
0.04346679193763397
0.025573685119954583
-0.017354451343019082
0.011311663565678752
0.034161653723072664
-0.004690702339440188
0.07758963641804949
-0.003286502925468114
-0.03388474650555086
-0.00683840433776843
-0.009916737958674402
-0.13479698185318725
-0.055483244119980284
0.025928086232124427
0.021148130849678023
-0.007606242004330148
-0.017292597427477203
0.0023231985987598736
0.003476680890334071
-0.013959923016510722
-0.07149616761942171
0.012943092919046124
-0.0007568581481388267
-0.02080819628985822
0.042419612315232585
0.016399274025263474
0.02086562653113232
-0.004725648366248491
0.1378101057695338
0.0282387336646787
-0.019145469653707756
0.04915677592403054
0.0014187906506480457
-0.014548596827151233
0.05402967505496624
0.029024709545403135
0.005215517477614764
0.05266382104937227
0.03132766696399487
0.03704664157504801
-0.021689161045116864
-0.03743416937457483
-0.00968043930066097
0.009782914907747808
-0.06217882000312715
-0.05882932469453963
0.013236750551245733
0.00877410825425126
-0.008640919800892786
-0.031134109642497347
-0.09083058793240363
-0.012265324199882233
0.023160020158728284
0.0072113094528740065
-0.015081192693417485
0.007744857985240403
-0.010672668420373429
0.010027248178097978
0.005883491176924705
0.0038163988652150658
-0.016708151266787076
0.02947899267699035
0.1327633426444003
-0.030407569118458447
0.010336522055290008
0.030694105176939723
-0.00811692165939525
-0.008045999047192451
0.016382814056450486
0.014780961644659755
-0.02476019096618628
-0.03228129113524792
-0.01454153945562292
0.04529707625316671
0.0003822543707204466
-0.06080263571974984
0.00035647201084529085
-0.08519377753433587
-0.016140868046812643
-0.021550275045539302
-0.006673809017937061
0.03460559605606567
-0.01106843546846772
0.00347571925803383
0.005984531645182718
-0.04353574295500463
0.02776849931949494
-0.0026986663415242626
0.04199834515680435
-0.00896324086165698
-0.0022934771619475113
-0.013163016592426375
-0.08883515970707954
-0.011644901465533822
-0.00997277792146855
0.022168418743542872
0.06289280585871213
0.012556228600978365
0.0221561302537018
-0.01248100856868827
-0.010782154914134034
-0.013763450764996276
0.008270317785441518
0.033990206836391035
-0.024108228476164534
0.06317773514027478
0.0066925900328507724
-0.036760352532337996
0.03840967544816987
-0.011197189136196202
0.004666219455964662
-0.012122000026087626
-0.03147922448065736
-0.0005592181330368696
0.0600111544004685
0.038383350302622105
-0.01378854430875087
-0.015850715071907055
0.0014777488088159054
-0.022727837026142797
-0.007348237477907468
-0.014806937582213329
0.029146468293461476
0.032433599675807875
0.08206104241554356
-0.0132250318293786
0.1001834255410893
0.057573864750868446
-0.05207838686188201
-0.01644128217561414
-0.01968570162107668
-0.036257207667571054
0.029999463367730246
0.008287248134778429
-0.0015664476545548024
0.016067333921677248
0.00946983856716224
0.001153626366205456
-0.02978957575142638
-0.11034608161974446
0.040131429321124956
-0.1339036907004002
-0.170518574263376
-0.0019018837821972502
-0.021783364173943484
-0.023353607038708875
0.006064345232057152
-0.014035153021409699
0.004772014690195097
0.0063025891316838105
-0.0022009558144584634
-0.009542757126368895
-0.03160408153663761
-0.0002186576292928239
0.06072730046716673
0.03160379477946953
0.044486573133240497
0.03754900511682873
-0.00813563144437317
0.0206005157397031
0.037647456894494266
0.04022904767402628
0.0991262018858734
0.02139670027563057
-0.03236240408481778
-0.020308061571658622
0.00034123565172969035
-0.003555123389254554
0.022263689580509213
-0.017593774151426086
-0.051571174346055564
-0.026904149627015924
0.09583623278434564
0.07600492912671537
-0.07493604793338575
0.00856609556353852
-0.03699169870336995
0.02352839109307869
-0.012629832769233108
0.014896413186496564
0.054305905863406626
0.03374706752779891
-0.104920705298605
-0.01591771933945266
-0.004422004903890946
-0.05390027655494562
0.011310275205033131
-0.05352820100915041
0.1128204561209981
0.04134377849483536
-0.043111630870008216
0.010340709914070186
0.005666866762537067
0.08788955709704893
-0.00946400945496383
-0.030275642816471906
-0.017186112955758292
0.06682242333996953
-0.09712685129892837
-0.11426890167139905
-0.026271824531596554
-0.00735370985078467
-0.00422330416055291
0.05210228381325902
0.0639744653395421
0.028730799748308375
-0.0033909001371646473
-0.019165709763695783
0.005223961541220783
0.013869814208715522
-0.08521465877001613
-0.03502743823876497
0.02821443630170268
0.018418389639593066
-0.052327365208927695
-0.012138671490136026
0.013522341678626383
0.02323634124216788
0.040866147083231545
-0.012718183815748053
-0.03321279650321634
0.001180399977728627
-0.017492481003094598
-0.0036899168502185636
-0.029604148411829324
-0.0013148914077456965
-0.04235427694153072
0.06387307946321372
0.1366047874166643
0.015856773497760362
0.01812491246839117
-0.0020351053490406446
0.006708761883426913
-0.03015972345472228
0.0383274759247204
-0.01429957557422788
-0.016459774680637813
-0.015069795429811525
-0.010262646151221442
-0.03886835836889493
0.009222396958300641
0.01447019920615745
-0.019203350885418743
-0.013677205673576968
0.03800194780629547
0.04714540076586611
-0.0020346515908958
-0.00962003472916087
-0.03979784210795908
0.011796281519696085
-0.010034781350660875
0.0052104216612018864
0.02284534265051527
-0.024983058711153947
0.01633831528413021
-0.006632995601916466
0.017955546925784664
0.018271152213613955
-0.012162111620983043
-0.028334377199026043
-0.004339126427883733
-0.0074244907142500625
0.0035047257419475574
-0.038335110051497034
0.03670099611386335
0.02698228991037225
-0.07105253436700718
0.03942700712247089
-0.1631246607630823
-0.15211122795844903
0.015170508542302319
0.046885655622248716
0.06809898474524781
-0.026050763157916473
0.024695825566205074
-0.007052937565615898
-0.0007230927925121461
0.009548773712551988
0.01765309923392446
-0.017418868721892713
0.014115239905142745
0.033885980715671116
0.02619709842927369
-0.08019843126656856
-0.000825585111846604
0.08804381647207923
0.1344214388871082
0.035574969181390546
-0.030914671655455694
-0.0009411401688151857
0.01328051832963695
-0.026919109587436634
-0.03919372913988169
0.02013993967587444
0.04789700943839386
0.018340415052819047
0.025713735128405104
-0.0027747027415227186
-0.0029260691144443866
0.0005082079229984278
0.04258753720703392
0.009168115885765278
-0.08148926962535676
-0.050437826054549606
-0.02563928069807036
-0.00943105262052636
-0.014520219579143791
0.0185207324372316
0.060665898044916275
0.0265652266306027
-0.004015958555970659
0.030028045992378245
-0.025037948706167854
0.013026833413044699
-0.003236948910042883
-0.006609910061113279
-0.0005858536550898609
-0.015461953679820388
-0.11308795079130951
-0.04280780756633037
-0.040381814960651616
0.011509199133290507
0.01986749050488618
0.017395062138205904
-0.03706435193014129
-0.0179019741509059
-0.003346653496438912
0.056009108787141305
0.02667631188698074
0.015306406273419582
0.017025560738216705
-0.04919113802484954
-0.04023631720034942
0.00016377466351314798
0.005632831061708689
-0.015020788849822624
0.012727387391836936
0.12851293054436702
-0.008819284211794775
0.024051911112778945
0.0453402595978842
0.021938786911379567
-0.0883108771792242
-0.1387792183274397
0.034870864737358606
-0.002547087632383823
-0.01332678844338757
-0.03365319310124461
-0.04895558797519608
0.020578810933865366
0.19905337712174995
0.10289528045014829
-0.01532142591757915
0.014780144363272176
0.007307498193562405
0.03362809334795216
-0.021527526378359387
-0.004347451485056136
0.02480786719071284
-0.01708274096968324
-0.028511552429948718
-0.011845571700893207
-0.015281668565958858
0.006629092294328786
-0.0002134992785562808
0.004742956362564886
0.00835450380020181
-0.012606833625025992
-0.029024452087260243
0.04739816417278033
0.024705223826819757
0.037162655136752876
-0.11306382750722156
-0.10619271376439791
0.020332099456375097
-0.007188651574874492
0.009768901761375926
-0.10870557404939318
-0.027907023890602674
-0.06973163078580301
-0.02334258721328806
0.01653066906598012
0.05053006781225314
-0.012401324061782404
0.0047751661515626305
-0.009118081807779928
0.06657289201507986
0.07039764779227527
-0.03768495982127773
-0.03560342684265728
0.009699441344331105
0.18381098650578903
0.012720845485052692
0.05210953000256497
0.004413439819873825
-0.0902455211688586
-0.0953461172487119
-0.14461123102056309
0.010196649166154186
0.149732909054317
0.006166131059835166
-0.049819668759022384
0.07477415708940285
-0.011755194646560174
0.01242510475117553
-0.019055576971088554
-0.0050183435200562235
-0.030376925014367392
0.016237937945358643
-0.01209055719212105
0.04402324654462911
-0.018752939670197206
0.022327491459584514
-0.04713568026408984
0.01702012060340689
0.08300174652387445
0.008626589475398379
0.04109621964594747
-0.03386598705273457
0.08826730865707037
0.0632053350221595
0.01669065491834525
-0.008004363496552865
-0.05457800168557896
-0.006309173878204016
-0.04607725368303817
-0.07235001705346089
-0.055810299253758945
-0.031301484119520724
-0.01929513795979185
-0.020321061330071048
0.026844762711351586
0.04679832610454839
-0.036373427149376726
-0.03530483314405074
0.0364369563485438
-0.003490777934222043
-0.00719355101293809
-0.010078899035755885
-0.03125306246963019
0.018046917792582072
-0.02665314099009053
-0.03152561896995971
-0.0019847853459104958
0.007448635252053871
-0.015565766262872297
-0.0058019077345571905
0.010156741964704952
0.0049499706944440966
-0.039216828604728526
0.06924926455878688
0.025515181918848738
0.006988319023887929
0.051658954273339074
-0.04115137559423331
-0.019598825106981403
0.03952576895426547
-0.012906953374926181
0.00024216344879974955
0.0559668582717324
0.05396210936700951
0.032828019080022114
0.01362758401964185
0.026162660120824074
0.02609440303673705
0.010162893839709752
-0.024310429087357196
-0.13477792897173407
-0.031108893713487684
-0.005794368718275205
0.031102254385503174
0.010339469030579956
0.036273733685676886
-0.00137819471947711
0.0026820716874751947
0.019333315848830895
0.02869247301314302
-0.030938168679045197
0.04651008614995659
0.000152841455445504
-0.017903239540347154
-0.00036500611467861455
0.032573908180094674
0.03798978809409681
-0.18644236450317575
-0.09226253856325795
0.006141779043383424
-0.07031810801271238
0.051294519877569895
-0.02343107220706229
0.04947567110907879
-0.0019330931174589545
0.03287942748546418
0.04357326320775063
-0.02634208733631112
-0.014419719102677952
0.04844356964494207
-0.014875743211237583
-0.0013732952666200245
-0.005765473666515279
-0.012381747579116698
0.0018752917134568594
-0.004727880109306419
-0.013071289286383162
0.013062287360809948
-0.024971596658574787
-0.004804944157652255
-0.014003350917823251
0.027120741251367843
0.01636418660629715
0.004383962904364913
-0.04207347269695262
0.15464928296530325
0.06921913707512595
-0.019294425636856245
-0.013450919587395598
0.0013255235492071692
0.003534265537552332
0.003544540341083942
-0.04306189526819168
-0.04123257341171809
0.01165282116336983
-0.020646330190413394
-0.03747966384507757
0.03961835783735648
0.0284128592344289
0.035953652290702826
0.03107987952735856
-0.14017539272954155
-0.02279229507688826
0.05192979745196861
-0.013498919880864126
-0.04550174846307586
-0.00736289407648797
0.0022170095011512896
0.0017286147021617622
0.000620927770685168
-0.002816200151259976
0.027059617550321713
-0.03615062747183872
0.04258957592047816
-0.016811196484078143
-0.04387205652155475
0.10717588314172267
0.06288325259153033
-0.012166232668392792
-0.04139248119416895
-0.007300849061300227
0.019577975877179684
0.013446306851311637
-0.04504803761553644
0.015010329345628742
-0.005138740045928499
-0.007258409214898342
0.027477344170246443
-0.050033026651992406
-0.008942212941244627
0.02847875991509513
0.016328648780263758
-0.00663575518838419
-0.006212744966980571
-0.017775957897122024
-0.003179454016741239
0.007052421937098095
0.03840239525754373
0.025912298917009878
0.002791636684584717
0.01864706154956095
-0.009655916315120089
-0.09567304024036254
-0.02837486768031387
-0.018222730918333718
0.01337561085603031
-0.005360275834861225
-0.013832687780807054
-0.02150083243338286
0.0032793880219311226
-0.0004075192099406328
0.04000324274269369
0.018747748513720804
0.009456026598457894
0.11562875534173406
0.07470497262155314
0.01459247580170749
-0.09602031458451533
-0.04148051342475368
0.023353053585613327
-0.044099797459846886
-0.010222780016436285
-0.026560377621140056
-0.06432224781049847
-0.09499681864739551
0.011214235615205407
-0.05517826839417113
0.04402016049047753
0.07951948637874817
-0.0004043800884128787
0.00020006899091871405
0.02432773300830671
0.02044740999267052
0.003886303202408856
0.0011139442894461018
0.015552347742632073
0.06812261209510603
0.09112470187955252
0.01218240810953058
-0.01441999941441809
0.022414066831149895
-0.016256108012906032
0.024535968579019848
0.0570260111321837
-0.04622032092862258
-0.04118616836234682
-0.014000219866379612
-0.042522048500532775
-0.0765607179310993
0.04166015172929244
-0.03237120751437537
-0.0446643437682776
0.02693509730854363
0.04104306453055177
0.004627083164310184
-0.02468934079642033
-0.008325573131714418
0.01973409279031602
0.007857516847692165
-0.0034740659979677537
-0.029816301963399287
-0.02424227434388429
-0.030417703458538305
0.014632493835872987
-0.01932075925402046
-0.008640594073454272
-0.0648449302232401
-0.004405016912266062
0.015162355325355807
-0.0034240291620587656
0.000364656905388392
0.07176845203054637
0.020534222960779027
-0.0036598579369367767
0.037603214075587615
0.03112173846837004
0.03161411071851764
0.03859646416864548
0.012074663344385938
-0.012030345819705116
-0.018053825766760016
-0.017348746260337788
-0.004318320553064932
0.02812943957846729
-0.016824388324256243
0.01460851079169177
-0.04990141068995163
0.037935351655180374
-0.07448571936023347
-0.12306403914578752
-0.008357494918442593
-0.11056825273488113
0.038151364354706764
-0.0008245599075975288
0.0325455271968625
0.04634930813768202
0.025608636394445317
0.0016376510835190772
0.025485029246176332
0.024309509902920714
-0.018100590334868487
-0.007710712531412623
-0.009149695989917264
0.008747640525491679
-0.0015594237609748332
0.0011020691858979065
-0.019849004080407722
0.04867562146969012
0.1259391315634238
-0.00012531321937182404
-0.02567901444467144
-0.04632138791425364
0.007945770233525117
-0.024607634473570075
-0.02352508898213623
0.020673684506660364
-0.005031252129101821
-0.0546385764468893
0.02542022015995
0.025119805361131703
0.005031629851431272
0.045406090635686555
-0.032401750745149414
-0.06268439695569138
-0.023635235895150725
-0.017530456690178463
0.002793868204695086
0.011874483319515839
-0.026942445699615725
0.05507628820870927
-0.018328352593641215
0.035971691481966064
0.1191938165244057
0.02421361718698512
0.004504008227999961
-0.0027709381361602278
0.02066648576992334
-0.056694319246522025
-0.015182802581146715
-0.0036057554936007067
-0.007897631772060447
0.009618409645396191
0.04117203138614446
0.054540847241815286
-0.020808101795396557
0.02214586118946439
0.0009069769333145838
0.0038437836237591853
-0.01892329080621144
-0.01714570239894706
-0.019929813353455807
0.03349265591746456
-0.018138991032788716
0.048082514931356436
-0.01588323208337182
-0.11678169856868803
0.052634619207732575
-0.0006169664293180758
-0.015445573857362591
-0.0013827983716603672
-0.029278894426465914
-0.005055815098623666
-0.023884954253365842
0.007151682646016011
-0.004865959580053551
0.048597052640857376
-0.09471950364049507
-0.054778543577025204
0.030213999180663115
-0.00526508328868317
0.001172054182522004
-0.0029135733343785856
0.03342524661623103
0.02660003452555986
0.022482798060557262
0.035921647938819905
0.00371263546827531
0.018940207073678703
0.0010680386530061248
-0.0030274998257875346
0.034776396498693546
0.02398427594427734
0.028357812366626853
0.006741391341493176
0.038185839249004164
-0.05346456178484973
-0.00783845158083343
-0.0028502460230428006
-0.10992005252439485
-0.005998185068226159
0.018486939622970214
-0.011368989672136301
-0.026774718229130814
0.05792186849169257
-0.15269938407130776
-0.015479929221117609
-0.016404347195226213
-0.0010227926341364664
-0.05823446980249317
0.007280044163527816
0.002340493638119143
-0.10696492128957459
0.022154555945281526
0.06599747771347161
0.055549961992330865
-0.0009621071662647819
0.0033436124834310727
0.012330524265509159
0.05247182303586662
-0.0036960029294262303
0.008505902883612164
0.03731798978885829
0.07110645869387834
0.0007261053628611845
0.022945995242804836
0.009482515852774693
0.020312769380951758
-0.05176013511568205
-0.02861648079567976
-0.0017491144713402337
-0.017124586588920025
-0.001548426767186054
0.02044493910388321
0.002147472063387792
0.0031358472035848926
0.02187590865817814
-0.018247709555201372
-0.028558595714356098
0.03472854014960168
0.016803001635963894
0.006168704968998938
-0.00038378486486953674
0.01132929495418008
0.027916555212862158
0.017126438122184614
-0.013313712031982162
-0.01041565459355969
-0.008056313633735051
-0.02379439212986733
0.016849291499822
-0.01589804568889005
-0.009644539623895197
0.0029203247280603496
0.008963877657848602
-0.006618513550701001
0.0191337797824422
0.016747303981929605
0.005883422770616283
