0
-0.010727345817677486
0.008933964579515757
0.1720760498027475
0.03868644090337667
-0.045073649550575114
0.03494331554388082
0.025229737404580586
-0.013261498763214074
-0.023781694560594528
-0.008040045526635925
-0.001233559750520411
0.024305513265419673
-0.006051703265045949
-0.016109334267009986
-0.04843611073388704
0.023171831848238376
-0.0213213860595943
-0.18495475352703333
0.020840363240083978
0.0528781018084885
0.011703724327605976
-0.004366778011066731
0.011563848192030901
-0.026303116987536557
-0.02374163325722661
-0.01476794877837203
0.0012271300636992634
-0.010142970295880663
-0.0028211758221870537
-0.030630882852212226
0.03748717713913748
0.03879771332249244
-0.007353735640901247
-0.03783981269847251
-0.03623352699515668
0.06425333217340476
-0.025828296824077123
-0.02292141417283495
-0.010032664443171616
-0.02158392566914585
0.03671961265984146
0.07331340467603868
0.009435703265889122
0.07519271357056215
-0.04522184596676636
-0.045867761463005384
-0.06030127714155383
0.008093220518587905
-0.0077554833294252706
0.02640416703568753
0.037378667848869465
-0.005863314039705333
-0.02503836524383943
-0.031295067755640706
-0.007902023033673353
-0.0057121770886204406
0.001627400516259657
-0.003966073721629457
-0.002616451139981777
0.05942683354092345
0.02207617697847409
-0.037290682944132424
-0.011034339953015282
-0.007039086428171199
-0.01682834620755466
-0.02165344169837637
0.027280743018192725
0.02872140199084857
0.03529634025347486
0.03034374630798363
0.008280702264948267
0.016179763955886727
0.0004638464188266906
0.03275242302090633
0.024995490579600283
-0.03753403471027081
0.016845974429316683
0.002702111000302257
0.11658097088622085
0.13929674686286003
-0.033059796301694935
-0.044561207232197336
-0.003146254047655718
-0.15927504612746707
-0.17352044369675249
0.026543918066037606
-0.020188645243521087
0.03742239271652349
0.010245186920281807
-0.006006707410995694
-0.025282509277099758
0.028367838894136535
0.018495152854264504
0.011489327334637216
-0.002623951485692805
0.0772711664707484
0.00975112475384794
-0.00999787041890267
0.02899246706971737
-0.0034071519556771687
-0.01656639370329321
-0.1278508982251927
-0.14867416705464737
0.030988521727602147
-0.0005662128320900201
0.014877040050479552
-0.021529467387275292
0.0034181178681812877
-0.007226116104216229
0.01088629138682153
-0.00557288923486922
0.09631092668182036
0.05466187383548655
0.06672010550836838
0.006685054909033106
-0.018222310798952018
-0.00858004952938391
0.013341141444623476
-0.04073682281538832
-0.05841911778571003
-0.0002487266733312848
-0.010121734753334628
0.010317958785493719
-0.006172507457010845
-0.039705348151019476
0.00975268785658406
0.02773311995360353
0.005543668210402368
-0.05971813070278891
0.03345458910775693
-0.007373022252839835
0.035977750075592424
-0.021115090555805495
-0.0038412403647137693
0.03715556517237067
0.03669237439033117
0.012953118318997462
-0.001447864774354698
-0.011575799329134322
-0.009981693555011665
-0.007824671034727627
-0.016815804033114997
-0.01056454145973433
0.024063488263387986
-0.022887856959418005
-0.010508573950466445
-0.0017801336178039438
0.11793603821195271
0.025012866455071368
-0.003959982370917618
-0.012215869409426924
-0.005299449317336503
-6.990386997439723e-05
0.002771025154062036
0.015794974198967294
0.059212438295407635
-0.001186124707672241
-0.005575980694126164
0.0013537815538353177
-0.015470532670258746
-0.035299432712121666
0.06496071985126732
-0.0013702705671391176
-0.10441119759869452
-0.02327527300439488
-0.032862411272913054
0.009703629836866522
0.013370689123049943
-0.03650477040203282
0.043187422807855015
0.06526715308828936
-0.06869905931567298
-0.032610723526661674
0.010780224124540407
-0.01303903973486196
0.010137503581813248
-0.007018612113301773
-0.016804406664530303
-0.029813230566242414
0.046990990817857854
-0.07896655735768726
-0.037269408694321354
0.011553311650049053
0.06345247281899533
0.03189447904349561
-0.07174337710937728
0.030018847288236464
-0.01774655411589326
-0.010774262578646278
-0.05462840847783491
0.01282036316309351
0.1468754829626965
0.006773864864592198
-0.004675749444991759
0.008210866526951001
-0.021343704117326022
0.0025748367595126685
-0.04612604069376707
0.00790233396417313
0.0310998666121034
-0.009346146686206551
0.016667060989996478
-0.043170794946638336
-0.03318998236576197
0.016574520493238456
-0.014287450618192463
-0.02043752290816054
-0.002055587560779364
-0.013788407382599586
0.06841485685465938
0.02919987805182488
-0.00019605930748017793
0.06258733175650912
0.03339927216179878
0.0038467686209089167
-0.04241650282469695
0.008044484395614207
0.028786798704121628
0.013419773078061775
-0.026256650607779795
-0.003202248004305989
0.019712508931733284
-0.011930786363235682
-0.020877355856806345
-0.08500037361479375
0.04251085147723293
0.028940407428529883
0.0034489112858221735
-0.027401053770898545
0.01830643809641283
0.11230297475540196
-0.009828252235177389
-0.010694265364168912
0.01977985131190727
0.008660397322062686
-0.02510600633447979
-0.01816516249426292
0.010047702912302853
-0.1471718494113375
-0.052035830144334314
0.06615204288742524
-0.0007549133670283571
-0.011497726524684672
0.016366290430902465
0.011755771107369998
0.004979798239017487
-0.023004486175618514
-0.037429130897732074
0.001052656392673706
-0.01730229535184296
-0.016704880462903363
-0.034841618748554
-0.017968453525407737
0.007546077701280757
-0.02178132994330199
0.03807147841848091
0.15148921321418513
-0.021823299548316827
0.005782056805047744
0.013241185776859734
-0.0374412421939877
-0.02732851544801736
0.020937572690827657
-0.01373028210328342
-0.03284988644087298
0.08412436904773593
-0.009997976128664548
-0.06227664909447476
-0.030296140255506587
-0.06065301615257242
0.006705964091370014
0.018111284090835792
0.013157059818466092
-0.012003637418367668
-0.0559155680582944
-0.03131275052768813
0.04327248923111898
0.013728427744690956
0.002872804724126335
-0.05324840033204111
0.06871117105838848
0.08225888981528277
0.10683393843738734
0.045307241869849614
0.016066357955272306
-0.006482573128660169
-0.04205096343064997
-0.039713938674195474
0.035311716883773554
0.05123467484160668
-0.10055499809272317
-0.030087661483652172
-0.004244276252541115
0.008188210437171571
-0.005699332707535663
-0.014097904332979107
-0.0030808323530762925
0.06568288001019165
0.01684334340124009
-0.05841449257436839
0.02497091498080661
-0.019684223483512262
0.0006247966525703488
0.006630333610921844
-0.013983934729537168
-0.0535073123762637
0.018789548833907696
-0.019368516890536196
0.016271457614452936
0.10448178451313893
-0.030717872002061702
-0.021205768457541577
-0.04123769101281586
0.04804816126667935
-0.016106308209596604
-0.04838588733443937
0.027494633500501856
0.012543647697352436
-0.014969693106654393
0.03377410403535394
-0.010241285754368242
-0.01850727587061394
0.039673839691405186
-0.01414056977376011
-0.02030964112269887
-0.006044784055793986
-0.00895037270834384
-0.003186925166433964
0.009403257989625114
-0.017804793204548794
0.01873877124391922
0.04312623645320007
0.03730890555236995
0.04408830223522303
0.0456436652160793
0.010351387322215286
-0.10746966802460135
-0.0028177787426101994
0.02689196272226176
0.003849219148607388
-0.09537335752318844
-0.006360405056604702
0.07788048194989766
0.025774176251116897
-0.033032910486544165
-0.002738117589019587
-0.020342361078919402
-0.04578882079284403
0.0029282552925258727
-0.008419563658441773
0.004572117998441145
0.04292670225161999
-0.024953153375851328
-0.013197285507666343
-0.018748666377086946
-0.009386032947933894
-0.007585929782081704
-0.039477588233280056
0.0036620191606026014
0.027355447447005504
0.015319253153901353
0.00812633186589051
0.020581889321219436
0.0159225684738416
-0.06233023544127231
-0.03457905116791383
0.014858617083075072
0.007710365896889782
-0.019038275771974013
0.0016570835253494007
-0.014883966996785345
-0.028843922220229055
0.0038404341077628115
-0.01871076707998022
0.04369234653496084
0.023643973574207965
0.012448812791050243
0.03659711810689571
-0.004127646228094307
0.0025415300679672184
0.025878081910037952
0.014556608979254258
0.00591591302497087
-0.009862082428538914
-0.01734586104939783
0.003765756727302533
0.005290562111414955
-0.015037861020968013
0.0035883360323549452
0.03229127823734478
-0.06079657417585654
-0.04248228585523128
-0.033608980236995
-0.005880006944997354
0.014500141480048419
-0.006149549701971963
-0.030322340192222397
0.019784231197790915
0.03595221838569586
-0.05361260386754888
0.0806064806176453
0.19230117515475484
-0.025300658370401283
-0.031218200535365583
-0.010787692274638612
0.008212044855810067
-0.016743933565967307
-0.051274465397691274
-0.016605779231552657
0.05945722989097048
0.014098444097103128
0.01213257121632253
0.04491734299084475
-0.042925120256877565
-0.022900065663768548
0.023532237350011902
-0.010498246344638517
0.030402548844301627
-0.007460520701216128
0.008611636986047076
-0.011283878505880415
-0.007734602840810368
0.02041015719478897
0.0634937118591631
-0.0327102426496638
-0.0433863523220793
0.006318621204538597
0.02197202905598947
0.040620069951708096
0.008662417349002768
-0.10741102403204728
-0.04954845240998234
-0.002438499573505137
0.01809755694144065
-0.014863823593427666
-0.030387335977382798
0.025214590801330677
-0.010698473816584637
-0.005258653767397136
-0.013433089578553527
0.023835705163794883
0.03254433748507818
0.005124879139449374
0.016913189337916253
0.005739874309607635
0.06665164559160157
0.000260944166989908
0.023432677200016974
-0.10681903811301521
-0.1282581729727744
0.05995288227708204
0.06592424371129939
0.014216668435021016
0.015002699112358017
-0.008988615683350416
-0.021286839075115936
-0.0670412190621286
-0.12092454482618897
-0.03724932211271862
-0.07279341679002996
0.041860452418180226
-0.003813795689267654
0.03795721576619142
0.009601725448268915
-0.0036272431606836327
-0.004257525033403717
0.006419464000049228
0.013260896729260944
0.03827102969445643
0.06293168077173125
0.08257808230471542
0.014889281195170015
0.0457676082243943
0.031270514795161554
0.025457208647215065
0.01506717245818078
-0.0093792515986603
0.00831832645705479
0.0203913775630856
-0.020932246924487787
-0.049230993957314534
-0.03142639165294079
-0.005765737385215197
-0.005374710790991149
0.04712112682189064
-0.04700218364113606
0.0031222859710268625
-0.116295782715067
-0.03463529555856434
-0.0027084742435816715
0.02357440522458563
0.005399422664837279
-0.013757250610324514
-0.04499557618195477
0.04483107449384285
0.02764988149754964
-0.057175000410451274
-0.032642372350861495
0.03875757148750593
-0.007425510599632608
0.00142748099402845
-0.0204829637908724
0.009139946628670159
0.005353689090780302
-0.039587241576975817
0.007801331503470936
-0.000528080757688287
0.013199181503432657
0.028741010843566832
0.015640980872009734
0.019384823148173403
-0.06589617955828116
0.015614170849036069
0.0002478684540720268
0.031845881838671986
-0.019296481066721258
0.020163450807142293
0.04165333979059359
-0.01224409968626423
-0.013389655457370097
0.0426433100735514
0.014285557307556998
0.003901365439563915
0.03874172519316236
-0.03817101813631772
-0.008203157876172132
0.00832555267050078
-0.022892872755755873
-0.009531585157962779
0.03366040517500529
0.037010161886535574
-0.00671115406081644
0.016988456523383457
0.03552630432326913
0.09019128958467558
-0.025101332492983148
0.011777111292984822
-0.0239307998051311
0.046104936272674986
-0.11116098022029723
-0.13463528840984568
0.036401143490563385
-0.028190551419106948
0.08935158987355638
0.11694682753577426
0.01986109172758576
0.090980450054704
0.004979477149908638
-0.08473870439773287
-0.02579654676689174
0.005392667918796234
-0.008386466757754962
0.0031269349008231006
-0.02640781598697017
-0.06068287684587635
0.0030899239434673312
-0.024494634812599354
-0.028700014752217787
-0.019420076268437454
-0.024602410941345795
0.0253854921474853
0.010294053867770459
0.026261111709220276
-0.07830903279371845
-0.04128417264253629
0.009349024717939042
0.021127709938442756
0.009501391228716745
-0.028975386548464696
0.006746154833053697
0.0028974483045307716
0.0026493515709400967
-0.015308805522982487
0.0038304255690668997
0.0008717716118719435
0.008167401094551713
0.03242195194314797
0.017360369132727003
0.044548144275786364
-0.030253330689908278
0.04767024389423714
0.018920965924725003
0.03824793937783171
-0.06276302127956358
-0.134302606121877
0.009121882416551524
0.01008469811283962
-0.031067201034020234
0.011010222588485068
-0.010282626777578616
-0.010995875690838399
0.008767180636461577
0.050440409255261075
-0.020509100683513637
0.007643128545429614
-0.02168541539851347
0.12244260728769228
0.04063940257561403
-0.07925229912390327
-0.011094673930783833
0.041472243971794505
0.02455932109416817
-0.018187305682249362
-0.0033308636007914915
0.005252820768080773
-0.02045286661717757
-0.004601091074844607
-0.04118386517428309
0.0018821664136867947
0.030478886301229934
0.08237488768409906
0.012216007166462383
0.021229841068170163
-0.005798242918761176
0.027633566107796576
-0.017900528799519495
0.01605733980021056
-0.016960216953831833
0.027668931736791715
0.015449580098377356
0.0338242893581573
-0.06600074190169442
-0.018492151509328276
-0.006144304473238722
0.06601967157486789
0.07018259023430566
0.017675955454275707
-0.0965813637885449
-0.34826911204527716
0.03728598493171253
-0.005754889885202861
0.012089376542415955
-0.06338141783596646
0.017059520121483162
-0.006418938261497536
0.016012672437954498
0.024316013150571688
-0.02940673728601246
0.015657763563362605
-0.003768847259229523
-0.0030358767771013697
0.03559198900183402
-0.010559485945147194
0.006624898144313825
0.0006232625849831305
-0.006998943758882735
-0.003965814695118021
-0.018215337528776625
0.018856784091054103
-0.00108429759607766
0.030119984845929263
0.006615044128966599
0.06747575434788439
0.1427980693835298
-0.009573004612269108
0.007783202910741749
-0.011740588921043816
0.042461676321320106
-0.0016463649462182626
-0.04913099174592242
-0.00301931389518965
-0.018949046724977867
0.005635533839459791
-0.0014860720755661525
-0.033598898696914375
-0.010246391324545521
0.027021987080982603
0.017514321152193243
0.11287651651398466
0.024877916339875634
-0.06741059645455837
0.021139962826128973
0.014642836968629993
0.045468781423178325
-0.11613436857020278
-0.021249650447220596
-0.034434792441361335
-0.07867406616838152
-0.017925406408334576
0.008932629782830154
-0.0031452204517121198
-0.01853635980871234
0.008457247213964117
0.0241850349788907
-0.01829540992070804
0.018229983818030426
0.0070050850267302815
-0.06843164472342536
0.06876685992799213
0.14247463427046647
0.04525033013363465
-0.04910788536278871
-0.09953617370848745
0.06657165825464076
-0.044017246885015536
0.03098393966394404
-0.010225938022787092
-0.0032187482967121106
-0.022192401962921524
0.012636379932378055
0.0024578133685738096
-0.037530827653813596
-0.022707378721323144
0.001076237816681579
-0.006074495225899857
0.030148656126140528
-0.012982768871453998
0.011876827029146038
-0.022141358732707096
-0.0190714833210245
-0.04083889298824628
-0.03146568209054479
0.013923543024073807
0.010757608815969242
0.009328394030625051
0.0019323597653195025
-0.03994667134912275
0.01676292553478367
0.016838354881318508
-0.0426968354573194
0.018200763480369895
0.04150345324515291
0.03524233061695643
0.025451400886545895
0.0610333018713435
0.03718217011803308
-0.00912139135888349
-0.010027261965940289
-0.01006092095597276
0.0012696465002734205
0.005870289766221561
0.0067047934726082725
-0.017310001488851878
0.004953830656866726
-0.03272887219583681
-0.04024265560678727
-0.00638897903466237
0.021122595455372824
-0.008263431779953586
-0.006627228596999723
-0.03209735541868045
0.01413186424635362
0.027736613215782614
0.02081888992068096
-0.011748732643198197
-0.015000440816142858
0.024076991712888934
0.11279293785566927
-0.017901423742574647
0.011855595666596585
-0.017113467640323947
0.04145256770263015
-0.003360045402562527
-0.06847847255374621
-0.025958632613659525
0.001487011065973276
-0.02392515958471986
-0.030121098968628916
-0.008430678771884787
-0.018160744474358156
-0.025956146754237772
-0.0050852010928523015
0.020479860671648874
0.08095340432693311
-0.016652871445286786
0.05941276168342929
-0.18619443151181134
-0.10298248530099158
-0.0011319665778201677
-0.03376951300986663
-0.010264721989895378
0.038172795112586276
0.05241392778515947
-0.01915840541425627
-0.019630328902463117
0.023080779958350794
0.010026126780336176
0.16036495428422112
0.07452175200578731
-0.017946335560944684
-0.020170940897742712
-0.04431669511867675
-0.0108975448472468
0.011978734642950524
0.01033875081363301
-0.0026219903741999226
-0.01376554661830006
0.0319565587993928
0.020106971588436776
-0.024430661868582948
0.005801659638943869
-0.009628904681983831
0.11647584882995324
0.021932263013278223
0.019745441802846306
-0.010045409827129417
-0.034025816345104404
0.005645342032878698
-0.0045869194021683065
-0.015780254101362898
0.019925816144532593
-0.06976558341839273
-0.02311122098204954
-0.05740739792902451
-0.05076594470018477
-0.003472825561831876
-0.07671750985198406
0.011379854158128897
-0.013458625776693118
0.05717349726377222
0.03817927201793325
0.027288482991715855
-0.009883854390559825
-0.008562466616538046
0.027240767318868986
0.006409226964276861
-0.02321307532783532
-0.004252183100269995
0.029928954706801028
0.011266191087536282
0.039226674715595454
0.052733713779513615
-0.02790113812879983
-0.0010198259958603888
0.008022774771819499
-0.012311076004523266
-0.038357164706029484
-0.05443710644130828
0.04175603311896034
-0.0015535525682680864
0.013791172824803057
0.07849960536969046
-0.02751994843648472
0.0046384075227131425
0.02481909791022146
-0.01659727670120584
0.02105330970776492
0.03389962657028967
-0.02110659080317191
0.034884641921030565
0.03553471327766078
-0.010495644609072749
-0.014703116372655884
-0.003076304087680789
-0.012303592892121596
-0.064725026677883
-0.005331394153965346
-0.01413448277230405
-0.08461138234709988
0.06483916384692467
-0.07355366560698466
-0.1611611403348849
0.034565024106514845
0.02986315046873932
0.016962686741401355
-0.0016175269532538556
0.03409389837101367
-0.05367685215525231
0.03103808635509004
0.007185458516001919
0.005742653165867038
0.0013350884870662728
0.08997679970717583
0.0481922269371597
-0.01596720356128518
0.022659008127985693
0.038781850195833883
-0.04643559919721159
-0.09972386057992452
0.013298470747667816
0.02630965176303016
0.11962741289646626
-0.009529309793475167
-0.08620809006560609
-0.1418300404237787
0.016915871245696844
-0.01364756557698925
0.07137612407078998
0.011578377599050636
0.026485082815953437
0.01877737720992102
0.012458322944151754
0.007674419902534228
0.002621207519255317
0.015279241205648752
0.0029088578420429353
-0.015565185378847574
0.04093007472818783
-0.032879542841714786
-0.035270068352940956
-0.012898947106691946
0.020944843243346237
-0.043978048282045525
-0.000923526781171162
-0.003945921754088201
0.020878245576003693
0.03237279903726269
-0.05114750332852301
0.034088493897541136
0.044252077116117956
-0.03997348606158168
-0.03486242969122497
0.02887852248768238
-0.005953693159079723
0.003543395383305301
-0.036202958511904706
-0.008830552242240596
-0.006040775552042227
-0.0118364560882244
-0.006938517159869808
0.006407002503778963
-0.0033662447731437604
-0.01632372231436539
-0.002172641612356951
0.04604030526130948
0.02122172504674857
-0.0321651649647839
0.03490325149112295
0.00858759010436844
-0.01610256004875921
0.028999858998337267
0.02339801880158797
0.04050068952844517
-0.01418787117827762
-0.0175522054183454
0.04025553336774401
-0.03082639802882383
-0.0030485493400806106
0.09458059500056949
0.009222716916634933
-0.02712161283546091
-0.03500931912624141
0.024616462431731854
-0.003766064982053124
-0.03819018471936813
-0.023145769543597074
-0.001018676085014486
-0.025282877510197907
-0.019310066155862567
-0.013350433811245288
0.05114667473512939
0.013402393641538744
0.022774902372621947
-0.008218490961339168
-0.02591568273893237
-0.011824586168521212
-0.03125080021871124
-0.017222019794787276
0.022720234684981237
0.009595261844646248
-0.01639012127553229
-0.0017220019655751308
0.009865514320492255
0.015699414028123332
-0.02449409340420822
-0.02190679926394329
-0.02370169706836374
0.005646875186929712
-0.002295282446047634
-0.05302980387308227
-0.0014361450717374632
-0.010288251450575827
-0.039961691998218155
-0.011774716699721008
-0.016515782267127122
-0.05261274044570576
0.049989958966802625
0.04738216267477218
-0.016880415039727287
0.07497140168290704
0.12650423588462428
-0.0256595243025683
-0.020387790151524803
-0.05320644594817855
-0.00851233098605649
0.1094216280658262
0.03907984886842583
-0.023513765586319634
0.026413148485890988
0.03277917768764689
0.016043148153456296
0.021560229255127975
0.005248699700250372
-0.03546484390707154
0.012057478806712768
0.006100951145959027
0.002638374084989413
-0.01923007158463324
-0.056511599780785904
0.01148443255155159
0.03483853614025102
-0.028327322894312824
-0.03302763804935771
-0.01575055771767326
0.022816130530000266
0.16435788637950213
0.02430429263317292
-0.06747582593492751
-0.03772224768797525
-0.03406350907402759
-0.030206333565577836
0.015785687596465283
-0.06095009164471511
-0.043519055221130136
-0.02472494245381271
-0.015419773966474868
-0.05785580791060914
-0.14646383550211775
0.07044060048948007
0.15743997699298862
-0.115240271192927
0.016511461726513996
0.16325028023884566
-0.02649236032661274
-0.011047241000419941
-0.02468393699329967
0.02273327673843508
-0.03657011398592258
0.01833767680064407
0.017399241651689292
-0.01542928055970778
-0.006877273374534583
0.006898203782439545
-0.011166358108030175
0.0732852115775359
-0.06747138919492845
-0.17843376489806761
0.00840137859054966
-0.01971859510215794
0.044941355599549926
0.056783946973110795
0.007166347885871676
0.009743245477939417
-0.026169460035626823
-0.07988613136333089
-0.03759206345846184
0.058126743989162816
0.029783975635010087
0.06063468798933911
0.04233538381282148
0.02413669281524955
0.013732624031284031
0.013390895174237622
0.012753555119282792
-0.018673596000885258
-0.030639363185666502
0.034985083789544
0.025120735900286933
0.005515983019290053
0.03957146704432086
-0.012946883736454801
-0.032965257770189646
0.007227895228728192
-0.009915542964027798
-0.013426614084223661
-0.018962903559791723
-0.015350843567035484
0.019075972424096397
0.14421773336529514
-0.0036684976480093646
-0.029804984046281437
-0.0005970324295589725
0.047721138604583206
-0.004219474944969081
-0.023031808916148186
-0.038606379316548735
0.0033111459303580633
-0.08963555861926642
-0.07837028200484458
0.010304885396730903
0.00338563889339008
0.0024747230671810214
-0.03324808956643866
-0.03735152504999625
0.04335086236482518
0.11092343983828536
0.006102482031335011
0.021062481225739598
-0.031409763165237914
-0.02117278336946382
-0.02442591537258178
0.0331706625674348
0.01897692833976207
0.08001724327899366
0.007969896029592926
-0.0403344655037712
-0.04100636841151592
0.014252654464742552
0.019552238391940247
-0.027989710476372148
-0.009849151631429623
0.011251149389833489
0.049932453632379185
0.05003744864786251
0.0006293002254830338
-0.05405323963997141
-0.0325270979885898
0.0107090419669539
0.03916992256154414
0.049835907923577095
0.0250811028444504
0.002826387000813719
-0.018070307500514405
0.022916742971712534
0.009965903375502207
0.041223709396348215
0.008386986059243103
-0.011046546366821246
-0.03023523754738855
-0.011413757603700803
-0.048662269569095584
-0.052369234086581604
-0.01861967190542176
-0.004752032363641991
-0.0067251270498933135
-0.022844753971621706
-0.020905443535607193
0.0047119187786406076
0.01748521200737057
0.03521507189080185
-0.03209211217318171
-0.0429604361962418
-0.010298193864590485
-0.027759503634487186
0.010129519715880282
-0.028487297172159524
-0.22325561037813874
0.021186861966968253
-0.028477171574692785
-0.07004767563935636
-0.006238722515094252
0.044128954391268044
0.06564893992032134
0.013391611675865087
-0.012196907764401485
0.053535865574174266
0.0030065146573909035
-0.00255498105721203
0.0352190759181575
0.03501154388316164
-0.024853540437269367
0.034609233956072086
0.0067528471225271275
0.03440565751512866
-0.03804104074702129
0.028191721002715903
-0.02880296146558346
-0.07534354784660752
-0.0011987146685074057
-0.003314554030077297
-0.030174099571627217
0.037392282075943674
0.008149646802240689
0.07125046576221013
0.1709845810895356
0.02538927867041377
-0.04387180870107477
-0.05326084994657472
-0.006945503832275449
-0.01782414822634853
-0.014642820933462976
0.0023634539258124893
-0.03357840459158442
0.03283190722220154
0.014474743654788045
0.0547580614468405
0.053050066523824865
-0.0589653062872288
-0.02595753247562736
0.001222072646971895
-0.025514424931438674
0.11736495270272775
0.10933280295619688
-0.054728699793413715
0.002945198949084113
0.014032355390328516
-0.05876129852989583
-0.09179791603278344
0.03953014609765041
0.03074908278397022
0.0271828545567637
-0.04311538470388593
0.01461883119606105
0.0027820802988110017
-0.045695863600764275
-0.0359565358092517
0.04200663085713557
0.007637894942696143
0.027878342893547795
0.007817305833386046
-0.035667753132135674
0.011158151645710357
0.007918747764708583
-0.01637243978318336
0.053730100020451366
-0.021870233413580253
0.030462560675260004
-0.03880553705726579
-0.0045764435912194305
-0.006479666626106129
-0.08045102975977986
0.01507578856705506
0.025711896567672022
-0.026709665207795233
-0.013286635974565737
0.013847674846143495
-0.004104629122849968
-0.005352285778048637
0.05186882903698362
0.04535668723401216
-0.005648422837044517
-0.019986786784846076
0.002405810190993397
0.012191314035552073
0.009414133642484094
-0.022516357922982913
-0.00012017332254248247
0.018069904674958157
-0.014421352478759319
-0.004236663495937956
-0.0006440340664615721
0.011677088528191965
0.01524221784638865
-0.009275087685416268
-0.014354279928276915
0.012867949790204301
-0.0024960957229642105
-0.05075073846060653
0.0041009840969770004
0.011591915929863831
-0.005973425300962422
0.042967048266010645
0.018333253974792192
0.022864671965408156
0.040956533922465885
-0.01423743559251291
-0.05251987242492554
0.04330904954115899
0.02100390790858644
0.0031548586309527926
-0.018695008282095443
-0.026570939748710953
-0.22325766548566983
-0.027342677463126044
0.050272662467771075
0.00878013306540386
-0.03564636426037552
-0.04966161548439331
0.003483993025262628
-0.0469327591676466
0.0044402562272899595
0.014195118804539096
0.03938035049589724
-0.02499342437468739
-0.02204961435930319
0.0399975406396811
-0.008008836986991721
0.023107764469078022
0.0022053452862522763
-0.003040020852073103
0.030944921903246752
-0.0014343259869728001
0.023629540395540816
0.005013504989050525
0.013811648279397435
0.012987889036888703
-0.0005396182216376543
-0.010311394835944678
0.008539600040002893
0.006640499026724226
0.02872466085540627
0.00813855903364685
0.05598465980415493
0.008549607136403138
0.0031601275549316137
0.024169164300758925
0.017505837577039406
0.003938642892088061
0.0036314596766210167
-0.000969907025651635
0.0003131487990737065
-0.008913696336302509
0.038283552495278976
0.003831853841764308
-0.005460607195368646
0.00915087723915168
-0.00966392741075342
-0.026139130171285326
0.01798191675694029
-0.014375036436571833
-0.02373021532026866
0.005281200046715447
-0.05576892610515474
-0.05346348658584794
0.06564626978896304
-0.07226952801970564
-0.05372467015725758
0.012353895670352881
0.002806495559890973
0.013661078621814033
-0.021611874433343826
-0.014036729474323283
0.022251213286318888
-0.009544010898573903
-0.0046070787678403665
0.02805660843046136
0.011727535513427008
-0.015970095687561563
-0.0014040582038229602
0.04361335317060292
0.00530709530884569
0.007517243005130329
-0.029455830675155496
0.003706304903577046
0.047604351416651154
0.04087152866539577
0.03356537380482843
-0.0037555241734512418
-0.02154027038645399
0.00205461437190952
-0.015364759001995751
-0.027966715589867647
-0.01752365833899579
0.018365184035093803
0.019366504180908416
0.011056392837899784
0.021469187370275172
-0.05089183432934948
-0.03210635247183091
-0.00300647701374695
-0.06586763628610467
-0.010815079952111355
-0.0011119334182457163
0.004607637157722413
-0.020185353913577883
-0.0007776142855464196
-0.007423169209794096
0.05575106051177532
0.054962439946130176
0.015279634565961578
0.03174463894128135
-0.014026282997362057
0.0148134782688527
0.017844648218874506
0.00925054298955609
-0.004016703066595378
-0.035037782236384214
-0.02995441558414239
-0.021526695978093296
-0.010754947854275039
-0.010068443540974215
-0.02318715175378375
-0.01223006528658558
-0.007780248319329363
-0.023989063381220057
0.022997508045275415
0.03530190005439457
-0.014106032053535118
-0.012014928077255412
0.10125743437668903
0.037568899061444776
-0.02426219330735997
-0.0259671172198228
0.010719212481565063
0.007193864304351204
0.01577271604884849
-0.22174667129218395
-0.03738895605121018
0.17721975444068913
-0.026811665107696128
0.0026972204746860116
0.07935488841342281
0.06723920842282412
-0.05845387175410635
-0.017442840253231583
-0.01491627274894591
0.04632901221225074
-0.051285875880124
-0.01641990594278677
0.026035318226986664
0.0325883405600051
0.0200053376455073
0.025497048114718226
-0.015012440499441868
-0.00454799852394574
-0.054346517432281534
0.023537850723534655
0.0559836820850617
-0.017337227436910112
0.007044249472924556
0.0303131657762411
-0.042206921165032676
-0.016487552450274133
0.04467066922046994
0.013402612316972904
0.010491810270375736
0.0193077705121621
-0.006357249811939355
-0.007377320632235081
0.004064842438576136
0.01729252933819554
-0.007656781281942118
-0.036622260330225274
-0.025386419984056694
0.043514830876487394
-0.0330990360155145
-0.06542393273287211
-0.014517430219169772
-0.0013382759049369772
-0.026829283432879616
-0.029277435926690267
0.006278809185942286
-0.012274706794088241
-0.018587607610483482
-0.011087657093740709
-0.17443554862144425
-0.02177102051985305
0.007617906612461284
0.0005289400739747656
0.005364200061427645
0.031548546492859646
0.07162254778001298
0.03191674018648732
0.02521998710045273
0.022741065721364914
0.03529730726095368
0.017847295122361086
0.019661763763322224
0.04893847022643498
0.0367342483546691
0.012066000315013882
-0.017387480402364645
-0.003069525958973144
-0.03444965966502011
-0.03093341796678955
-0.009124517115662645
-0.010395025099876477
-0.0015000372353584743
-0.007307202040550841
0.025260400310236637
0.10221874863958445
0.009857592126319021
-0.004146386666646151
-0.01853122893903005
-0.0006565718892284421
0.018528871451755045
0.005040872154790074
-0.014047310146788092
-0.007034378927311603
-0.01047810130347216
-0.01692763458257621
-0.0076400341908600886
-0.10230250660072739
-0.021568612671430874
0.0011742548570371596
-0.03676340665887215
0.013485030121738953
0.012899652683103816
0.04120645233934324
0.14768201828924116
-0.009875150143817393
-0.011870964271993682
0.009216489180876945
0.011434264673555294
-0.002657237674118561
-0.0017590115532106188
-0.021367605584211375
-0.006020722404455784
-0.014920465816958463
-0.06231875990912334
0.014936906873176815
0.046043487466009315
-0.018371467469538414
0.013890278907960862
0.005943778456901711
-0.018339456175487594
-0.013252196054978497
-0.0019016901827265213
0.001205755831384825
-0.003038642712326036
-0.008045217963783347
-0.03256654435571295
-0.005283788548565599
0.02155468979005687
0.03013941839004525
-0.015774095925342544
-0.0384544730181406
-0.019277805613069656
0.00995785188612929
-0.046186881605539035
0.0026200038877772953
0.002434456764137898
-0.021252239403895267
-0.019913867008730143
-0.02106327876598116
-0.015612955753092817
-0.014474567815356212
-0.009454454423122394
-0.01699694701982215
-0.1006701049799077
