0
0.01303474819329281
-0.037066407314370366
-0.020291404659800897
0.019697409288516397
0.02005201026761397
-0.011684959635829405
0.012422044340163002
-0.05043926072393329
0.007567575959556347
-0.01909369665196998
-0.09069417474644208
-0.1319346946291766
0.002564130667982322
0.016497429544318834
0.018210346097188614
0.027824367651666515
0.043270752913241
0.09826718161701543
0.05903133708433825
0.01442412848389981
-0.018901324196221963
0.01591955990663628
-0.0060557150652183
-0.023670107615251627
-0.005564800013097886
-0.015838404006991654
-0.01104149478225507
0.013726405976771165
0.029113234237558086
0.01108839512095555
0.015930793564619277
-0.005824538238334906
0.008778114695876412
-0.03431815184190802
-0.03865455381762852
0.015592515357481546
0.006371639360466837
-0.003817804395974644
0.032208217575066034
0.044674837992568085
-0.005035224656125245
0.056311392804996974
0.0007956492334786499
-0.005890654385123806
-0.028620664018190307
0.028765850598801823
-0.3096064027493127
-0.16830583028427193
0.028139187563115297
-0.02595901836042472
0.02803838246092291
-0.009506805481086684
0.0006505380374320275
-0.007708855650634165
0.015463417325048412
0.01690400875612032
0.003435118847753056
-0.05453221461567955
0.04902464840577852
0.07475277995911017
0.003117101369988193
-0.02106516656381574
0.10334570646277323
0.10127067788035436
-0.05899823212474464
0.08198806425700658
0.005688471493060118
0.020824674212582883
-0.021030569399453105
0.048525373040440294
-0.004867679791336855
-0.05372412615340675
-0.0236182919990326
0.009778361026190998
-0.023681669172237206
-0.004027547071426714
-0.021523862934680858
-0.007125669904884325
-0.11041288871910444
-0.031574275470133605
-0.011498083100410096
0.2281400445393747
0.1373314509924139
-0.03518979860055395
0.02398597948857934
-0.03033530618298654
-0.017750098982958748
-0.027215122188291495
-0.0096788733886061
-0.010666381893675022
-0.02218078400324456
0.004733385104349924
0.04715276517047241
-0.01899859364122672
0.03756192870617702
-0.03163139588687551
-0.03429256240841053
0.013660654049657125
-0.01993837958521573
0.009713600400142623
-0.0009512607181520243
0.005504792356289533
-0.009670077965454377
-0.013590238322368251
-0.023823150892113853
-0.024282013522462516
0.03449937824768832
0.020105307903804066
-0.005258717570187226
-0.0009413182103062476
0.020593236269300798
0.012187801057052505
-0.00445882273307025
0.03432297061933891
0.011785182045643005
0.0377338178710886
-0.026256533397114305
0.008151200422872505
-0.01711730365852251
0.0022576136515950803
0.0170633357774092
0.038652415937424474
0.0046805695228088594
-0.20749643855486435
-0.05156594659763505
-0.02140524607089557
-0.023007151214823687
-0.0038600327327029567
-0.012032052244529218
0.017760521415272203
-0.004294640250903237
0.0506478479881886
0.014377873080268192
0.03176738159100122
-0.010474603412269056
-0.01129557496261559
-0.019075731536431963
0.0560243009531166
0.04141945293728614
-0.033743128876703256
0.009011346763664486
-0.005221019603042468
0.012295730499964748
-0.020472208541069205
0.014385263033977216
0.10744674848307748
0.029024862190246806
-0.04115216710985663
-0.06539745349929567
-0.000637343614917619
0.007710323711302613
0.00972116051609282
0.002809897242371373
-0.02002256217942496
-0.014487151030243676
0.019081572845685367
-0.019299304491354596
-0.007294903796430137
-0.014136297848027782
-0.005222519673431243
-0.011439435026882517
0.01705024037455384
0.021092956673712165
0.0030743130691571114
8.655719524079484e-05
-0.0069041455473526515
0.0019297543191829694
-0.033631706080691555
-0.08291964119239945
-0.03318496873196997
-0.03481443670095445
0.09764164511474886
0.10530647758854106
-0.046060145839008276
-0.10419247319388839
0.02963806949433334
0.051255262512450585
-0.02157030378689348
-0.03578611952124535
-0.014590557890338047
-0.008839391521742972
-0.026029896366381682
-0.028654865622391588
0.023033613311527364
0.061295981603373004
0.09978825194895219
0.08909930212995058
-0.01149822551209481
0.06653592639456266
-0.024327236033793137
0.025933411633125604
-0.030440109530508814
-0.06919706766566802
-0.014359403361848587
-0.05183011187078768
-0.018413922426479504
-0.015664395659948312
0.01906414538344054
-0.009513417723250945
0.015199301080546849
-0.015050947191449853
0.0031943137738474564
-0.007439553163738129
-0.012291479207935921
-0.006927190882080155
-0.01154659893525602
0.038928916690004436
0.0158176030604595
-0.05726931175603777
-0.009948494908417826
-0.010166094480790849
0.02187480482190561
-0.03998372120515517
0.09874222275431441
0.14243586107779438
0.0077104746072723515
-0.04160766646454638
0.07861020901340109
0.14236326670431954
-0.014524233422119724
-0.060944648554532556
-0.06366755989895644
0.01205571942698041
-0.01842241527373728
-0.0414426343358999
0.014507132805703135
0.008312385185074518
0.01465546983834262
-0.02585352249430686
0.033844613041737144
-0.2669068123101216
-0.17545186221639925
0.0007865668307106883
0.10632063762129829
0.14599690185109504
-0.0254240405093512
0.01912497422675119
-0.03796415219662375
0.05090684585072697
0.015031178779834677
0.008724443762296434
-0.06468490099373754
0.02957862707234279
-0.03641114065259768
0.06593655384541633
0.11008498167948205
-0.08110860441008287
-0.12113474417694299
-0.0005507541801732606
0.004185849032773226
-0.009324436535108427
0.012246200838763491
0.1085732365183801
0.0740613032533871
-0.0022816522437233374
-0.024631008869080914
0.007011147947043743
0.04610063733727847
0.015602407901428405
0.03998450218311624
0.041268398518575576
-0.032248036881838624
-0.2618174039123669
-0.05616342893455516
0.014467234500106401
-0.11776924673230721
0.04871126994697219
0.14521995717290173
-0.03253693189074812
-0.03266134202693983
-0.05503254451875798
0.013233883173482541
-0.023202281634805567
-0.013777276260305532
0.018694114745253225
0.020265452636640036
0.01915152537209979
0.017786263710597452
0.01476041933981334
0.03749529839860329
-0.006555447270040574
-0.01127416777687464
0.037173947564116676
0.009355454000447546
0.011923688870731563
0.07029985553131164
0.013420059179357935
0.009834299782457478
0.002324669245592082
-0.012009171494126919
0.04629651568385747
-0.008581804603205399
-0.02390484067554687
0.015282263346766658
-0.02867220325434707
0.0212205910027409
0.015323010771879714
0.00456238331045764
0.04684738024521573
-0.05000339989772056
-0.13313850277806624
0.011506471189076193
0.0021951541904022356
-0.0038425007435471336
0.031481194460305936
0.012836016729711174
-0.013873703443407041
0.020226334425310865
0.0149291968654382
0.006529893897849951
-0.0685148365416593
-0.02668929094903813
0.025884951543530346
0.003379973093068788
0.012650141631118932
-0.019734755813497814
0.0018537813872151663
-0.03385291198308471
-0.030664733189984302
0.02631746354216854
0.01761089011889976
-0.03245181247568292
-0.002820745780782531
0.038836565671058476
-0.009357416977695097
0.05307585821264988
0.06305597483774554
-0.011113479730779549
0.003629631021421972
-0.01915703945497395
-0.006946208639094771
0.028537039233214722
-0.008248468916581776
0.005979151659468026
0.014203433003166647
0.11746796226711018
-0.15834675538507678
-0.22284003358172155
0.009180770864584919
-0.029410896034616045
-0.05918800815080845
-0.03312539646463975
0.014387289968137687
-0.016138713904175105
0.08729448344785964
0.1461305194602279
-0.05498203238453282
-0.016956573685686777
0.17671423722907062
0.006974804348509709
-0.0513280938644834
-0.008576036231920551
0.03924051616389969
0.01915515627943283
-0.01922659680920483
-0.006877210616641091
-0.009365049669538883
-0.014382981466319032
0.021011712432807667
0.008255682467852424
-0.03283519036008854
-0.00516117928803384
0.013045130474646938
-0.013122642644925755
0.06989390936764577
0.0698886027600852
-0.033726098266982404
-0.011482927041245691
-0.017398623109363343
-0.03139893825122304
-0.010474672413869835
-0.03462980311484929
0.03226471249692322
-0.013851999689811573
0.04530945916269646
0.07253079045004009
-8.823857224510434e-06
-0.012398544813990022
-0.06060372341802822
0.013869766967512761
-0.032021955457502596
0.005974041375740854
-0.04800532116737044
-0.032588122175112616
0.004146373595683957
-0.0767216128655293
-0.03684721381964301
0.01899031455889444
-0.04697516135176039
0.04414671473305759
0.1502185552696839
0.002764025510189592
0.0008043408539192283
-0.01594556010061037
-0.019006922466466136
-0.05038942253519188
-0.01265606310934617
0.0404387369241656
0.009923274800274856
-0.019441266026582138
0.008329436741937972
0.03045749676504056
0.02127045144095455
0.0456531136972922
0.011334387019824952
-0.03522636975026929
-0.029194518979808515
-0.014976213110512965
-0.02001935042932641
-0.04491662468497356
0.02865499539917141
0.007770420212612636
0.0006591824200377928
-0.07037335650622135
-0.06443990815033779
0.01415138932514265
0.011259235094779647
0.014258200303070628
-0.021011283658956322
0.16393005605921335
0.09262516657962452
0.06099966261786414
0.05633186316626372
-0.008980421967821277
0.011497028477006262
-0.01717847626491567
-0.05338821923671005
-0.09957759594645015
-0.04873530798096065
0.05368731670595732
-0.01264165723234039
-0.0245616663412483
0.0006885947386946801
-0.07518516441937756
-0.00892228566757043
0.09187187244553739
0.02937003560217467
0.0029700406004270078
0.01326603841493042
-0.08681965134312271
-0.07364470632052643
0.03630814503921153
0.07130103219188699
0.00935989837172581
-0.004695899861170875
-0.01580522313191137
-0.0501566913106125
0.005264954323273569
-0.007522067381933541
0.0027875454306733154
0.005809515007365653
0.01847595865012356
0.016199307047248635
0.03455609762858152
-0.016900343508371496
0.00953613963332801
-0.027810173349888247
0.016373274413591016
-0.005234139381298326
0.050190151145339715
-0.022363546007219494
-0.054494954714755406
0.011864578190431633
0.0157310325724477
-0.0032506377017027317
0.05416268246679498
0.036843449399361024
-0.018756221674806912
-0.022216848984600326
0.04329379699999628
-0.02629374176710954
0.018722842904671542
-0.10139922324483756
-0.2292445450676866
0.025097510857648934
0.038516224252110154
0.06699076249817043
-0.0015001134848181099
0.007156115537253238
-0.010072656056713704
0.010304057720797727
0.02202010672797319
-0.038930659581685616
0.07044532510301518
0.13063066770148987
-0.029611054265620263
0.016970879814759383
-0.016903612104479836
-0.017135290728705396
-0.01501917271872936
0.02176978433227332
-0.009184894308559191
-0.009373728187310578
-0.043936997046401326
-0.011368297340254836
-0.016725278240839928
0.007409674471020236
-0.019354048797313166
-0.06423497673222014
0.014720210037061254
0.09257512712733604
-0.0293143070002246
-0.04740552634097823
0.017857065696192016
-0.0037372913965083303
0.014492680386908654
0.011053322193245242
0.0025826570005761935
0.020134706609066987
0.015813446926981112
-0.013662070475381302
-0.007883472548953963
-0.022404500983117095
-0.03647286993505357
0.009837615345350385
-0.0019136206436550034
-0.023683219768629363
-0.002087327833470209
-0.05785699328092862
-0.027090847152150457
0.004458351843411445
0.023357361343155383
0.023573792781222742
-0.014145488098643397
0.023414696203698543
-0.028882885628735568
-0.0038224342723446117
0.0016760463120494733
-0.019538939124199736
-0.002333558008830951
0.04191670546126434
-0.001307889897317804
0.1835751663303498
0.15919241205016885
-0.06680627293861285
0.005260972682312858
-0.05055620774816539
0.028869937113528362
0.09062576233530711
-0.009455423862158224
-0.008176742548658033
-0.0013834207539446517
-0.014938322355256073
0.0035207466189537623
-0.008695649378479345
-0.013746122931468712
-0.044163995428511155
0.19959282958441493
0.08108526729310522
-0.06528594851671178
0.02317166714217154
-0.09091694654447958
-0.1003472800429225
-0.06705141813486463
-0.014270818766966271
-0.032823266327850445
-0.009441584252536446
-0.06572350527176737
-0.010771794626562787
-0.03320772700571781
-0.009047893262953254
0.02021265020533019
0.05602846294056505
0.02240558996058745
-0.07803749195688257
0.07562969792189052
0.023863265269774777
-0.013009084624124423
0.004713280582747684
-0.06241620730151012
-0.12384883053358765
0.01615894865534376
0.005629141186307498
-0.022057791308526486
-0.018361810641902666
0.018735004460625374
0.0073473119927708296
-0.01785336361446077
0.0027220912680874427
0.012177165887113298
-0.013419458872021627
0.04123689062289479
0.07654044816089586
0.009022674665665491
-0.008862852757967915
-0.04079137973991242
-0.009641882488106181
0.13603998614053178
0.0839340469343319
-0.040165440075567924
-0.006607650924202635
0.021648250384339894
0.01873363732425839
-0.010460929071058084
0.004290535765908581
0.007967711096257766
-0.006611177945683826
-0.028542317306676862
0.002690142114805846
0.05616975409339034
-0.004210677358316797
0.02058284277051305
0.036575454524390746
0.008813165345111219
0.002965468288635493
-0.012605599066169556
-0.01478001670128627
-0.14620815280428434
-0.05696127200924915
0.051040439300188416
-0.014631612494345253
-0.009149019911207536
-0.011659440872966694
-0.009911324280419504
-0.02050145950300542
0.013943329957715985
0.004541324328983546
0.010365300498691785
-0.006861386109521615
-0.08214801472705024
-0.005656668199876613
0.01911976920595892
0.0017646703783067176
0.026689883042718188
0.005662979073031453
-0.005026488183854057
-0.020090431598296644
-0.02603973033936599
0.022449908748677822
0.0014307534435877203
0.007294172197558792
-0.014775703012603704
-2.148495542795976e-06
0.10119871550176263
0.027902712331570302
-0.06288792609571249
0.043364840914370845
-0.023886448715606395
-0.01421803428197446
-0.021862532835287114
-0.004913013233034295
0.028771036297896707
0.07029600338778118
0.0013320079818223136
0.002814978992004226
0.020013144091450687
-0.009278010036189548
-0.011174140002113885
-0.026533347783903823
-0.17777004354363846
-0.007256730768888279
-0.011051861989426297
-0.031200874466348928
0.0019349893637837033
0.024272624857652823
-0.08029789088267605
0.004081469569210323
0.009337441214789655
-0.02182141201339507
-0.004122787945337963
0.07410039175895747
0.012544382280376699
-0.019384211593074074
0.00718498544354969
0.01568399425775375
0.0900285830424815
-0.0007252012397169947
-0.024847438970920024
0.0186409082988525
0.1025757922820146
-0.02385958867026208
0.02412696869407462
0.08209446498663475
0.010079886750410156
-0.008434475423575396
-0.05720949078152771
0.12952453180207854
0.1491215065257462
-0.05662829217629915
0.008985047282721401
-0.07130856413816751
-0.0025779111003123
0.00637517189854953
0.01119505043239377
-0.022540426756076124
0.010405038172335906
-0.027874334364375003
0.037148260762356354
-0.024495838378578407
-0.01062425872801862
-0.0007726148046651055
-0.0007405167993101218
-0.042527998004909404
0.01877225048114307
-0.03256952665178939
-0.10157431532144416
-0.004977288055176793
0.012604684244725883
-0.010645707226685378
0.04984576285759066
-0.18625953225629774
-0.13808839640149623
0.17095516819649034
0.07672813469965509
-0.03101199684356238
0.028329229756188925
-0.012352429810136768
0.0015433392228156187
0.04590602828041806
0.013780633053092874
-0.005629629133198608
-0.05653749431861836
0.003722608523390175
0.024198674440353354
-0.01401690274851957
-0.02854548889477314
-0.007286421167981243
0.025352336727948847
0.009102124129886863
0.014123056168497723
-0.008643687280589382
0.03465799745188394
0.005071462442440175
-0.025063546396867125
-0.01644554526099167
-0.021209358027332027
-0.03203268053803797
-0.04846671351119157
0.005198315545204088
0.011891192357826265
-0.020626318088236853
0.026200731881590146
-0.06711310640197883
-0.007735859814891981
0.015695994622409577
0.11453400178773535
0.005517042892588401
-0.04187457182304314
-0.02050282694205087
0.018453028192388952
0.11969823678771462
-0.02848202708645185
-0.031702900240006125
0.004729867603987014
-0.027611827655133925
0.00030970925883179185
0.045733323422525805
0.06131090839532467
0.009230906917544985
-0.10051176396987042
-0.0403381469867712
0.06107700178862231
0.06068836141575271
-0.033935831214363235
-0.02262601159406597
0.02091458866502948
-0.017599057072318996
0.00027981698768961326
-0.020355042623278294
-0.00393430702144228
-0.10214557369654453
-0.02819977130166425
0.0833626954501639
-0.00958767732619352
0.08803876779064478
0.006246881039699057
-0.0132851534769208
-0.013286088813097622
-0.011552682370622042
0.07767332187190644
0.029044361380184024
0.049764831629188565
-0.00963279768121665
0.018384065405133203
0.005314201307564956
-0.02883082111752069
-0.03336943231453684
0.030012594611309455
0.006664770571969614
-0.06666293879545163
0.0161912265333024
0.01878773280953557
-0.01601298346414399
-0.009162854813376925
0.004518074235400404
-0.001070052820538563
-0.0019068290534192628
0.0024849247894604765
-0.03832362551232118
0.01292571996277037
-0.0013468496957420506
-0.13534358798306573
-0.0404385335361428
-0.0014147676684801642
-0.0001745800701006634
0.020464735735078548
0.014383267596177923
-0.03403458150909824
0.009416459026397844
0.05751309592574273
-0.0022205817597524325
-0.06751129426152841
-0.010788392077275135
0.011025913944487155
-0.025926688712124904
0.034288554705829664
0.0406909522808308
-0.0019577445936375367
-0.028980658429657538
0.04257635751870206
-0.004778668625749675
-0.05418325339755074
-0.04165055347375835
0.2066284194212882
0.06054185610864884
-0.05312503980494265
0.07436876204019481
-0.05690419258837835
-0.09961797036866417
0.026536753761221585
-0.012995836094821335
0.06873331273518293
-0.0005807431199441011
-0.020408609465789276
-0.011377003227107196
-0.015198256971084349
-0.042076731764552386
-0.010093188004554736
-0.003770957316923166
0.02266151372299753
0.028475088562082775
-0.011889608942113074
-0.027679316763298198
0.0375001225456503
-0.0132569018361351
-0.02786340320299687
0.026472558601539294
0.007942212374207117
-0.00028929696099778995
0.013231239175859432
0.04242417218295254
0.0446221515829927
-0.02135162824794168
0.029264738072711936
0.018346242502884184
-0.0034906121577897224
0.010581010097801961
0.022927055369752772
-0.015046779119092924
0.011590276480420431
0.1549326061766353
0.0362655836100424
-0.017883507109158685
0.033714011172082455
-0.14707875748710245
-0.06383703529735252
-0.187958777232924
-0.13540062134893435
0.033256426582387276
-0.008249809444395455
-0.005774883625759245
0.003957902764071004
0.008512724383728246
-0.0016050649020385448
-0.04432669357294542
0.13598454610841984
0.13943798466560886
-0.0914929638440155
0.014530218840652724
0.008197032533945471
-0.005885769049201092
-0.01717141757760899
-0.0054412572775094335
-0.020628010046272745
0.02224929620452555
0.007899897605987223
-0.014032478671590257
-0.05933758247798397
-0.007359575480295828
0.09234787280533471
0.06204804901266112
-0.013508364823749145
0.01006433228263022
0.026789471296761767
0.02546424940858541
-0.00546082496081913
0.010161365094236442
0.0034575626172966443
-0.09663391451706886
-0.06849966494020199
0.07206996980155089
-0.007909196475201719
-0.03313141093552293
-0.025607776739068798
0.009214850457249214
0.03692761090055758
0.0018424642997847671
-0.027104413004742912
0.02846632022265914
0.02379869231394595
0.011400337900718066
0.03595470647377325
0.021674984364539348
-0.03505894083454028
-0.06424162177184958
-0.005818519714618418
-0.03024516642513451
-0.02630275276939225
-0.014597040016860458
0.0215763993966565
0.055331982838390234
-0.010214890245411614
-0.01888567511847082
-0.02301191300152971
-0.058366890026285305
-0.019528249321160665
0.01265115632187081
0.013580099325941772
0.006018749621375535
0.08968537820004088
0.03681820422191323
-0.008683803379552471
-0.03335506878559275
0.004135810484043751
-0.05878576408033851
0.017228082670548466
-0.01853138956848454
0.1008189358011593
0.1272830655848223
-0.01651698353550593
-0.022046402046097955
-0.0563131093174191
-0.0016236200066725743
-0.024728893321634374
0.0010925832159358198
-0.015106710485145829
-0.012401775766303197
-0.038779792212336524
-0.012787549383501727
-0.007846302492376613
-0.005949887180623257
-0.005392340389101841
-0.0311943337883942
-0.032281688190450214
0.014115602608462488
-0.03799225074291553
0.04498121362351001
0.140268241080042
-0.02259522516074015
-0.06371398281052425
-0.05859338010013195
-0.0098243538588471
-0.021460222897289584
0.011440847360220843
-0.08661128751642706
0.16547881463999672
0.07242659220716986
-0.016877664320036293
0.03859168506682102
-0.023878809949993116
-0.0231172859077986
-0.05071709402257458
-0.033306615426665756
0.005038539036092705
-0.01728096772234294
0.019393946032892125
0.15080893412556803
-0.0007222783749283169
-0.027468902447703267
0.025685639310437804
-0.024273509558505334
-0.0295984820234166
-7.708426901113578e-05
0.0361764233054596
0.010403934726582383
0.001372079715836215
0.015584555040557006
0.022508874191707242
-0.02225610231105038
0.04480515463305045
0.03723330839081239
-0.009467237730696918
0.027437377871306935
-0.06071787193768097
-0.05195493538758436
0.1572595626263677
0.010496212089440888
0.0012444980765082614
-0.005312545461988466
-0.0397648469233043
-0.01445460445687785
-0.031102827133474273
0.04333021597553166
0.02256818495343263
-0.0012166166348098648
-0.028802718765819406
-0.03518020087261189
-0.02790825903793955
-0.009929821647296127
-0.012807949894507986
-0.04694800648756034
-0.015539842849115604
-0.20892649723441914
-0.07692694271342689
0.04239083487539691
-0.030143587228437872
0.02727596583211649
-0.025275981585061044
0.04069882255562365
0.011339181612479902
0.0639405751532641
0.023172111997879028
0.013047064452339831
0.008039116969310105
0.00782829004939041
0.018658697359455658
-0.010193387096808951
-0.003928312757975758
0.006733681706727071
-0.010585103558724128
0.08658479296639175
0.006435610611444168
-0.05744453726404718
0.00042490804647811334
0.02369612975585452
-0.03952104953102233
-0.0518922463313679
0.0519895081173447
0.021074539304407114
-0.002800044756999927
0.016139778653485305
0.024391433947524674
-0.001297684661208799
0.008730615363871333
0.008169776971688053
0.05018233025967753
-0.004043393552201703
-0.01930549588552078
-0.0391458552156159
0.036737416421247594
-0.006508597210713937
0.04077744103204995
-0.14022135724000237
-0.17245052472358555
0.04841663911134501
-0.0020009169833179897
0.0271354351182332
-0.021820271679540912
0.004079032558948201
0.18722722633846686
0.07351507516946079
-0.013744393220696937
0.05772781876476356
-0.037205334715963455
-0.05356546144362541
-0.023171769696845857
0.008890406832522877
0.012278384246690944
0.018569944835188278
-0.027104217944674235
-0.011166277358937072
-0.0016062434454963033
0.01759226819855419
-0.0020180396848395806
0.0013316304499593201
0.03517546323164712
0.04582607674100895
-0.039555429436792265
0.038006289637081435
0.04301190182321244
-0.021494721070969593
-0.004781263722551413
-0.019520688841007106
-0.019407998397901853
0.0158615498511189
-0.031202350447105467
0.0012603852042194644
-0.0009372523899147455
-0.01233393507855797
0.01375691482515355
-0.0962058382287672
-0.06176750041483109
0.02494728899994276
-0.014884667445014283
0.033093875496248336
-0.0018227986418933456
0.029250418115037223
-0.06480001205363133
-0.0829276611037216
0.04050596214459862
-0.02720771572945126
0.05563345099089553
0.06370620953480617
-0.03067643419508992
0.1048980193831732
0.010348821957573513
-0.10167226539802329
0.0010332022801053783
0.04535526592068227
0.008295923574546673
-0.030424796830090344
0.021369603113799585
-0.0031234314693717596
-0.04594390529611718
0.0038727034790542836
-0.001276247587407774
-0.011983045693470003
-0.026373756788450595
-0.031112447887916023
0.03839917547264279
0.03918072911134483
0.013514829023353917
-0.039379883683033676
-0.019360900626561064
0.02402703603743418
-0.0049622793860592
-0.003963859578760623
-0.009925261997458726
-0.03461748568501407
0.024171527659494263
0.00529261644184522
0.0973779158659297
0.1368722825221624
-0.0621686529224189
0.023985903629900482
-0.02304051698666986
0.0029975482460051985
0.013898874354641991
-0.010817209023906506
0.007351322268359539
-0.009602733668078779
-0.033450135896694676
-0.003979486181140953
0.02714735615931147
-0.006523014902650382
-0.11000308507727903
0.002029167776861267
-0.029912929219968725
-0.005512603416650528
0.0032928649240479132
0.020318498111401427
0.0016597567874962011
0.0018733230059895488
-0.024937023535577876
0.014042479992533968
0.002916277191709889
0.018272828004247475
0.05886283075683833
0.009329700296760767
-0.0037449563494734153
0.0208620536067258
0.0010377838244409819
-0.048790909203521776
-0.13344047391797692
0.03518238027795477
0.04163557902380818
-0.10329630656012817
0.1039570838129253
0.12238390917773376
-0.008305444435547203
0.11814970376068548
-0.028900878313783133
-0.03403337883026584
-0.032277485961781024
0.032223036015981456
-0.05470248253989459
-0.03994396706578615
-0.01179417679999047
-0.0035309175222207256
-0.0325340281216898
-0.06135134916255172
0.0007518482422960402
-0.02038764430348495
0.008108404067662002
0.07612812653574041
-0.09693631060117945
-0.043026581551385605
0.006777889004521879
-0.015038666272283313
-0.08712211925913378
0.09792063628165999
0.11582172458092238
-0.041315871411313196
0.00913069003326901
-0.018343246958989135
0.024256977725329375
0.060687656788027684
0.005748864415585711
0.052476870115220946
0.07704684243992288
-0.0018842513287096038
-0.015683685038930327
0.004817524607712652
0.07755176865367924
-0.04805912434824505
-0.03217988251120742
0.007167933578292932
0.011762319938546529
-0.0112307605179786
-0.07250152095470451
0.017766115755092824
0.008446782354660448
-0.05243240935194877
-0.0564087984105843
-0.028282912128450115
-0.06637520292609247
-0.02343348537509366
0.011131063926992292
0.005402277649312589
0.0033535107757618476
0.03412499973803555
-0.044737262059723205
0.010942652912000436
0.010830428565106858
0.10559272371812792
0.06444041662937533
-0.02108617044863835
0.0316189179922705
-0.00027569588010928917
-0.037062924228404674
-0.00956809164321173
0.0790094641485982
-0.011681905192588599
-0.084697551955834
0.029447551905161264
0.01807711791889243
0.00280184729029574
0.014490864396237039
-0.006192621691279959
0.021372013327638942
0.050269949752568224
-0.022500333769984948
0.008981269090241613
-0.006222317432492367
0.002649043835215429
0.028670203119943154
0.009962289524609097
-0.03320611103135228
-0.00542934603442607
0.006523678989934525
0.015281677242565267
-0.05073714281893107
-0.01839878322900025
-0.040741459462893766
-0.02953811255782269
-0.03174837464184715
-0.0956126331017495
-0.0357625579866922
0.018829556569324096
0.013840560483150592
0.06766032230173796
0.07260058331658226
0.0012670915403660366
-0.0036647054737710197
-0.0058170224530152415
0.03029712901065738
0.003913649180585644
0.020211966310991668
0.015478473700426498
-0.046366398190066556
-0.020174911819539735
0.024275293931723566
-0.04121655962057517
-0.055561390871033914
0.01520653559271805
-0.003885372125410497
0.006259708327453011
0.03804064246565269
-0.005777394026251329
-0.03824230107115999
-0.007180459635886987
0.06038237948541464
-0.04636691956429773
0.012953150976959569
0.031953614560963885
0.04993536922921955
0.039774979737322316
-0.019522715583801947
-0.000621168709926007
0.05364921790718401
0.0031854545896102117
0.0471377993356268
-0.11012645408972477
-0.11281211080684682
0.009947863315512902
-0.0006733900491620232
0.0016444663302676865
0.0050085918942765805
0.005885861821262064
-0.031210695757385384
-0.001702764727938072
-0.005112082285861743
0.02702777132084228
-0.007324704397622679
0.003720244183758709
0.007983599807490246
0.012326089026482703
0.025809584677446464
0.03303581467003097
-0.012288150255458841
0.00119183755520201
-0.006098030390228512
-0.01299211019744001
-0.01196585497088263
0.004761414111931613
-0.002791669761654971
0.020368334582172076
-0.009366677868745713
-0.01776204531914404
-0.02226715656927198
-0.0028931802593211062
0.0007583456223935062
0.009021111993363203
0.019854136778193605
0.008776660754057383
-0.011806297782978464
0.0017767223242464811
-0.021404268696146145
0.04396839592472045
0.05486131322338273
0.0016373015315630504
0.009551730755859496
-0.0022001738820208476
-0.010614925018113943
-0.020030110047997273
-0.007802106069114378
0.06366801969928403
-0.0498229576700279
-0.09816873398195052
-0.018056262369923
-0.005254876342172301
-0.020461391245614812
-0.007579563250901484
0.0006875182659789196
0.0004702087474812965
0.060717381576655315
0.025311038917059422
-0.006491149035485376
-0.01256816157896707
-0.001747198431364675
0.020461498813750586
-0.0009652649125045246
-0.06956120307778027
-0.046658605059963346
0.013712554153686963
-0.0033425220097840504
-0.01737968849300755
0.0021995275758820033
-0.021665095760486017
0.09738850026395152
0.06477380181098805
-0.0319647486924272
0.08185304277611101
0.04272940319901759
-0.010616549922948904
-0.03390595067304632
0.04362583582471201
-0.01785151137296175
-0.031848551704817527
-0.03846005669733197
0.002429864752334511
0.006236413243396724
-0.047015889726348875
-0.006563665448959902
0.009228762852882318
-0.005008952179265932
-0.01737433923132186
-0.008600126433011548
0.017857473499640314
0.05533593871106576
0.0027504905459872957
-0.051624619192331696
-0.02199852973681397
-0.058629219946677545
0.10830667914620261
0.09667657165683859
0.06529547999235968
-0.005201455817890571
0.008301310807716525
-0.007886558132773829
-0.03565298144423153
-0.021259840165275636
-0.0007926410339805887
-0.00038837982462374754
-0.018981604323214232
-0.021781338733929977
0.023194296656837227
0.01578338301440018
0.018334119293387383
-0.10007544216796058
-0.001371782424228522
-0.0001626803078533155
-0.042514154970798905
-0.0559062824074443
-0.023574171861170556
0.10077821428901637
0.040344724999541115
-0.05175098366933644
0.016320188242933797
-0.05645670971227159
0.12172694663534184
0.041938737822613995
-0.04070696398122456
0.007127605850655033
-0.007065645645542521
-0.003313256161257683
-0.038933213256879
-0.03789920094318063
0.06578489316035666
0.002849160830371167
-0.042178363433582756
-3.817273615996758e-05
0.010598355942455576
-0.017119022470460637
-0.023974393401220633
-0.048537791291515066
0.015423520682125519
0.05189723939740163
-0.0416252539312878
0.04229381136718192
0.07456604087143547
-0.018533519462828343
0.04954307279005241
-0.03045366367619003
-0.011549900816713986
-0.02134496723062022
0.009122993881997582
-0.028568015025296753
-0.03962113198747102
-0.11500275348394565
-0.01970671795197701
-0.16814297163804398
0.03323451942393402
0.2211855395628909
-0.02704211917879608
0.0179687956268008
0.03174759962729915
-0.022113669926171295
-0.02341398466909549
-0.012874957607131416
-0.011116109227398707
-0.013775205563470307
0.05788597913843622
0.047668587150053905
0.04304820492824684
0.0014058786937070323
0.014869887239770193
0.002648902098761344
0.0033728729500310875
0.008802037432299136
0.009898133659545569
-0.00015343502338445065
-0.01561328309050736
0.026133988689644283
-0.016034539939352253
0.01128423637393781
0.019214736611987537
-0.021320347922322885
0.04186927453212026
0.05617450279845228
0.01415624517432052
-0.005594068430011963
-0.09818488164118742
-0.0058978563507553336
0.011984969431279299
-0.04144531449189843
-0.0071952948581662166
0.023378270264685634
0.026020906417302647
0.013071273106709545
0.02277895634773268
-0.011948622303022478
0.0077651105996841266
-0.02576102925300169
0.004434590008668282
0.03243494941559198
0.010238471085858122
0.012507155646651924
-0.05767984011885532
-0.02267400343727165
0.0007775652463433098
0.04129097966564235
0.06693296076619441
-0.015344601880587313
-0.019298724664368674
0.023842486532917682
-0.008703998646054105
0.006978277357828294
0.01831242465468781
-0.19319260224839405
-0.07813132462539642
0.07127548858543284
0.016037170270495265
-0.03989594957895366
-0.011657127651862413
-0.0017703494608744793
-0.03865010150151602
-0.020042326269410535
-0.012983686356737469
-0.002212035377912993
