0
0.003092525668551393
-0.06491438262563973
-0.004128842839257939
-0.026163726946015837
-0.006984623940656563
-0.033507696765479024
-0.031524010237268564
-0.002442659200236613
0.30119364682480143
0.09573779370997758
-0.06119990054910554
0.03116944649925131
-0.020614820887584394
-0.010799513438380343
-0.06074255796269309
0.007086019841988236
0.04119345559277345
-0.22170710043834743
-0.049695110690174286
0.07145013992881659
-0.00782460492266076
-0.004305909832764465
0.014130658390052375
0.011292657792486564
-0.03799007729069231
0.006477533464410958
-0.02981674800934911
-0.020092116176725804
0.07041235134470734
0.05253436937866578
0.01635434402020148
0.012453843477497834
0.037364802142089815
-0.010260967025297626
0.07369799830469126
0.010436782794864038
0.0446111948498095
-0.11311708025410551
-0.23316423449477194
0.04914450078386634
0.003270400210878103
0.005879662501164135
0.005716153591874988
0.0051270884356094375
0.01828881161565518
-0.02836040902476715
0.02690169705481024
0.11338555506956637
-0.007370093880216236
0.02962836782630076
-0.003412944575406036
-0.015264573785701577
-0.1116331178823471
-0.039777108453028745
0.013825895499039342
0.013364091267257126
0.05453474006310077
0.09101256762783078
-0.03651470196186107
0.004409939655459427
-0.038640620862135995
-0.012038263232318889
-0.06961392330416674
0.011270581769413899
-0.0014055415570144298
-0.008624604759804895
0.003054138542688972
0.011099623641947831
0.0926435111006363
-0.007557952185391781
0.04917042579677637
0.006933119396941351
0.030562776896912197
0.036376768082516456
-0.016394602711069937
-0.014970263123920765
0.07817361474705407
0.1455899740442524
-0.018853197446211306
0.10394279634894629
-0.12259915760421146
-0.2001341940131302
0.0026870268304489374
0.05838900233949803
0.0816140055905285
-0.017851630925166805
0.020063533093416713
-0.04983996494172886
-0.09519287537892472
-0.18775403349402114
-0.0622835095045529
0.03832119284092242
0.029879189933125345
0.022510606047962352
-0.0002213514772003482
-0.06984508008132459
-0.11945721165743853
0.06084953920359833
0.01470294447813835
0.07240983348832256
-0.0003875904108624153
0.032574559712734784
0.029674978947720178
0.034903988139519906
-0.052534503944858736
0.057316817283058104
-0.24586989061248624
-0.2666508171902048
0.059342721734298505
-0.008375251299768892
0.0061901944509603095
0.13347264297006892
0.10770073112755939
0.0036853427689958335
-0.012354044388549038
0.0041939580261367215
0.10312645912085516
0.07599837789973365
0.042680043351358304
0.006603348394656765
0.0036626910555208874
-0.004677829779692197
0.0016392748672665496
0.007049561058007365
0.06181827473568616
-0.0018444419238143471
0.005702126418288612
0.006654346727506506
0.007133013701532388
-0.018772627219968252
0.015543108817221983
0.009150651678355133
-0.01727030879995364
-0.001426680373990615
-0.06699630952612451
-0.0869701751444685
-0.057919878529828515
-0.017187062374470704
0.06454291655550005
0.017987495133316
0.012349132746441931
0.002962922625189197
0.02390148719795068
-0.015196697091176712
-0.009853781762137344
-0.0117290738397196
0.015047021351209493
0.046859449902586676
-0.02230298556338995
0.011825220819812052
0.00407456187190454
-0.012856657702597833
0.017594542408050747
-0.009135654488447019
-0.022909681506819143
-0.0031423903878521862
0.06463822859028312
0.028211756711323442
-0.04102954292802662
0.01594421315210134
-0.0031009567755244504
-0.004051725251447743
-0.03794148404643738
0.031474544560253316
-0.0016237788665773166
0.04120598336375974
0.06450686023432618
-0.03213715541429472
-0.08924636177120887
0.004208529258951767
0.011290872821831678
-0.02171102931675158
0.0017750450171404363
0.2197388690435242
0.0914946604989786
-0.06719948421609369
-0.017051695036344103
-0.02970463403324312
0.016196258978603734
-0.07964397641446531
-0.08248904942980123
0.02822100145066936
-0.01610596853317157
-0.004326881195989054
-0.005798562670209551
0.018033432594092503
0.004171769372780674
0.04497793573476343
-0.03116895958148985
-0.0517019862388536
-0.03549995966912612
0.0685442959509797
-0.050848741212347
-0.010029762194208508
-0.015831354251346942
-0.0018819446061286089
-0.00023762931647007342
0.01930497625806314
0.01308142335353161
-0.0044014485622485364
-0.0262439011724447
-0.007405863129434155
-0.055887402342604316
0.0353744194070389
0.019201655770653348
0.045484030227248014
0.035998023431058325
0.0052550212658954015
-0.0008639848135474248
0.008600497250763624
0.007129382053163951
0.007808266807551886
-0.29588722706071335
-0.05397786986902896
0.08005058447879869
0.0346049796141487
0.013767165797986902
0.03424806451650636
-0.0423767388116504
-0.06030321769158933
0.022818823834816974
0.010345702698110621
0.04278011514079698
0.01980414741326273
-0.012052113838770761
-0.005841947426934771
-0.0217735116270573
0.0009747712509568748
-0.03460809161404488
0.006240985509084766
-0.02653697045367489
-0.04825149921939711
-0.01857522958245845
0.02992655915629504
-0.004375371276140718
0.05639155104427187
0.004180558632439385
0.05568840021423532
-0.038250769419051915
-0.0012372232139046815
0.1344318684770892
-0.07567638405725764
0.027196855581889764
-0.0003355020485162585
0.0078050265692426795
0.010993330619053195
-0.05808479236516987
0.1393836197402898
0.19301338808740703
-0.04291173657601741
-0.03819127984624299
0.03013836122122537
0.03535282019520614
-0.061482559331776855
0.0075791325322282915
0.015263620647157233
0.007233132237270756
-0.04705561706729478
0.015585785184374297
-0.011610708075140362
-0.029122088631846708
-0.015916114367146263
-0.013365085252439016
-0.03853048779522641
-0.02268018862063207
0.0021935185413695713
-0.015000709441822468
-0.02708932607526837
0.05865581113754777
0.03954594516507402
0.028032180232490433
-0.03694295798288313
-0.04175931505342528
-0.00840724775409918
0.012079490450436976
-0.015394444665624197
-0.014849148377544157
0.0445133592744181
0.0025750229276327733
-0.04242622072283934
0.1303297832170045
-0.0069693250722953
-0.04844434136119891
0.04473820414053936
-0.032228188911591335
-0.0569963291219229
-0.0233098696191649
-0.020851148561729187
-0.009395577503965002
-0.021923364866367173
-0.024807796437845923
0.008842345634415038
-0.08797486769626651
-0.06714463922846381
0.0299439702875447
-0.016196276115224343
0.0019216008392085046
0.09771356927527358
0.1706082608285174
-0.024771934319251405
0.03465712267658439
-0.009153859008768927
0.018722796684013686
0.002175558469912512
0.03281285732023437
0.008377919886083812
-0.00036762852800495475
-0.054379802435804904
0.05506915128929768
0.0716861826639427
-0.0019176062486265808
0.020603738278249732
-0.05890869724251541
-0.04615553584763835
0.03868585534621748
-0.03155118970430507
0.010062195558259653
-0.08602138652149671
0.001801126333732907
-0.10072622982019312
-0.12918566124500042
-0.0021672068732480135
0.11186690476466632
0.03401393992550529
-0.07305897140796654
-0.008313309481085263
0.04312657320274855
0.12863292284334366
-0.061917050166828816
-0.008507960569488148
-0.08565887741368934
-0.1537954782682022
0.04865794793588932
0.12486956518672031
-0.008514451812485087
-0.018028463892461846
-0.03394711002683717
0.025619442533600715
-0.004791858995060679
-0.016686876726079217
-0.008395414405264492
0.06535290841921336
0.04921601304733178
-0.005014605738378332
-0.02308540533973805
-0.002233918763087415
0.014224932600526938
0.021894546146855338
0.044716867083500055
0.01464406506299636
-0.018710117835704143
-0.009951960837217657
0.10087690969736764
0.0917979585477988
-0.019472732111702865
0.012651958909147385
-0.004335139257200437
-0.02678791782323443
-0.0025250264194080826
0.004280472522837251
-0.1128688630254989
-0.03454049578820174
0.0008021023404662157
0.042934376764803064
0.02318231667935027
-0.01794116715883251
-0.01726179992319816
-0.0023485066122450686
-0.01130008460051912
-0.020862188123482703
-0.015026650764637233
0.006637860208772827
0.00837535037646772
-0.007462707224531841
-0.033221096368462016
-0.01434244302486252
-0.022742025401325215
-0.020845207473534935
-0.015936069455213947
0.016320600330629396
-0.004178255253727599
-0.011254876485764731
-0.02061888739679196
-0.033322230131098536
0.01358547368397664
-0.015448638997208669
0.036755201980445344
-0.01766917360279627
0.0367647462115526
0.2339764175187069
0.01047419706797508
-0.015614701441802386
0.01036173376916595
-0.03933450221134997
-0.011000959509150468
-0.05299683492057004
-0.12439750498284773
0.008435304788074855
0.01138117576597654
-0.006060377557833409
0.012112260776430328
-0.013310873908796518
0.03706425417945718
0.0022116175308823684
0.02317425983061639
0.1225642246754994
0.026954634756000063
0.013511854876348801
-0.00833431463958068
0.0177243110025504
-0.04186384738450364
-0.07354613190994387
-0.05570604953270529
-0.03950696971510082
-0.01245351659268833
-0.04659654288137679
0.0006340940835396042
0.03345312220400475
-0.04046179551520509
0.0369012263945661
0.13271350186133649
-0.029621023609425225
-0.005029120554037868
0.022984983356515328
-0.023691478879889923
-0.012698320292013007
-0.05705470539357217
-0.006302960541581477
0.008033174876848896
-0.03966450696567621
-0.032559411721876805
-0.04789248661269628
-0.05629941746074348
0.0013820133976149842
0.010279591326618586
0.010241159676646879
0.04221398557868081
0.08429608332486377
0.012937303470696245
-0.006131925771017561
-0.04727289388912268
-0.04492952961552867
0.04356848480767751
0.09164528412771279
-0.11332620262436756
0.1283458683637014
0.24892387843853817
-0.0543214881934748
0.016827030927889584
-0.03108689451600472
-0.00778504196997214
-0.01213411473604591
-0.0043062127136889745
-0.017484100156393876
0.0049355460279787555
0.006583706553773492
-0.023483266977108334
-0.044880287975869355
0.028473241739412385
0.0081517947610714
0.019684942551158807
-0.03156260948231724
-0.002251578653709253
-0.0072382262908136435
-0.009315145807884765
-0.00793760307313166
-0.005934321589395048
-0.01639851637963468
0.006189844856117217
0.04925794936719371
0.007405584233250784
-0.02863530254191694
-0.03266578989948955
0.008680679674953336
0.0008276871437895198
0.00919429394794612
-0.01414619059969622
-0.12709518266699882
-0.015025979893016184
-0.03440561506821977
0.09332024145180524
0.12256766520239934
0.09603926854499262
-0.01673179110758555
0.005075820906444433
-0.040469539949251
0.10737501552228522
0.08261339288583816
-0.03188338749869701
-0.08877695317575174
-0.01636978310837289
-0.01854823669635288
0.042882513464867086
-0.16164074597067757
-0.11450494501360374
0.057401775723732014
-0.01502174296515335
-0.17526241977607157
-0.08764120199823686
-0.0002962612345279782
0.04282821727100732
0.004822597924387786
-0.005760981014694854
-0.000720087956852922
-0.014737354563156266
0.054788686843388425
-0.0015830242572637205
-0.022373359803362993
0.034720030234006986
0.04985862470660561
-0.007930590083928933
0.0035024411201846216
0.06674161136499103
0.16382680657198248
-0.016036344036531106
-0.004868784627114846
0.026441554155691434
0.024320858312860533
-0.016840848800167674
-0.017634230356072776
-0.026831622288911578
-0.11356542856874238
-0.07061763081727464
0.012684323719561304
-0.0290432376737386
0.02956540833301437
-0.011589866645312323
0.02762957726349795
-0.011960663248205465
0.0464763218456438
0.11054990975100427
0.009263924246050638
-0.021483838212847377
0.03841349851105572
-0.011626032521627474
-0.0006444023567273564
-0.02450732488208281
0.04357202926407954
0.03381732894683772
-0.06565744214347398
-0.027541703225672252
0.039880030143233394
0.011223983090203575
0.003827241394064942
-0.01785692301942458
0.04183503055290309
0.008740243380572275
-0.027139178479919927
-0.028864803375313827
-0.01210415650929291
0.009165596920734922
-0.0008570533965207139
-0.028415141739493822
-0.0073975471997647325
0.02531206002302137
0.014876811028605188
0.02306076499058548
0.017851629882338137
-0.045790905307119004
0.02338591052505124
0.02379442127737562
0.007364572097618364
0.00689925400062862
-0.008374915261868095
-0.012792363172714474
-0.0007342038240646646
0.010726818202053817
-0.003938509923690892
-0.009422283014701263
0.0008405831797583264
-0.003479783848422549
-0.037546956698565344
-0.019664047775340313
-0.03437775549488613
0.007808810527139345
-0.007120049147826824
-0.08352946415607507
-0.04450531488765471
-0.0021562760036797726
0.01201653139960417
0.02137546136309304
0.031666406070718384
0.04529685475839435
0.03773885595146115
-0.00033560389102824936
0.003938485577733408
-0.0007081387082092794
-0.018160628204026846
0.0035697918498999444
0.013648456062044652
-0.005098345506853926
0.016219449127500455
0.002532834700418588
0.009714794333192287
0.003584709330396662
0.008142168050786115
0.05206028388257932
0.005852673135712163
-0.0424972578630366
-0.01102143418529226
0.06350727199179555
-0.008797582666146985
-0.03707097829715892
-0.23199575221162333
-0.0956629954146901
0.025547415891845983
-0.03217945415931274
-0.022544435026615146
0.021991152050098894
0.06941556055736367
-0.004933187221237022
0.02398352584533534
-0.02740977745757504
0.004070226075002297
-0.045343522109772945
0.08891527743560453
0.13394290912772824
0.02973041092471096
-0.12265370621539093
-0.019301378427443457
-0.006819046934344102
0.1439918408725396
0.10951409338914954
8.994297623435337e-05
-0.016459140841233167
0.01797041591454983
0.03673657431479766
-0.025316219258860132
0.006703863744029758
0.05370825286699479
0.002754130878286937
-0.05586200041627068
-0.02172920846922503
-0.009368983725652527
0.024260744688079632
-0.012695317073955291
-0.003645935543947205
0.003723578377771442
0.009587811421649097
0.014063842735983614
0.015353190112667435
0.006600877387956976
0.018613482099647808
0.017477545262577086
0.01836470407616704
0.06115550238156184
-0.012704118108147627
-0.0043422983066074335
0.007182642914126336
0.002059058072646139
-0.03173516292032591
-0.011732726938076376
0.010629492758281938
-0.010900523899452374
-0.24891465102320434
-0.0996605621987825
-0.01336341559430168
-0.051879794609416226
0.012622298145060416
-0.013669819010350784
0.06160878799775518
-0.01081692016731846
0.09082785308576798
0.02928057513764064
0.010052963468945377
-0.026268349889566764
-0.1387686337177161
0.04390903355879403
0.015581783232484327
0.09730772122758105
0.00033479927863431093
-0.07300295533017763
-0.00980454631796908
-0.04045843695350392
0.03393644972727879
-0.004253325600942891
0.05928832602398966
0.051979075974284056
-0.03347776220530787
-0.03366857583310304
-0.05519057558618907
0.0336768583614136
0.030676192045152716
-0.01618502422526475
-0.006842474902386827
0.0036086133229411036
-0.0037701299565836115
0.020490814664625007
-0.009718798402096156
-0.03900202455892792
-0.04861836787209758
0.01315835028456109
0.13839742950164194
-0.017732594117106863
-0.05418426567628078
0.03637525730798725
0.17199935213900513
-0.00044103839774020984
-0.0006503931400589001
0.02293444601959355
0.007451731005242686
-0.000869367671383816
0.012873690265368375
-0.010189227951230234
-0.032933128925314255
-0.04233917695525795
0.011014591714663865
-0.08756542519438418
-0.05856740206580944
-0.0012857956087643243
0.017355741339617585
-0.0002215933093079981
0.05373753594547698
0.07597137479396796
-0.023259632476943595
0.03223376470656751
0.019295999330100604
-0.04609801223265802
0.01013912429871588
-0.009567295220020627
-0.00229883633951345
0.029572963375080877
-0.016795895039856474
-0.057767568408642604
-0.033046809033380586
0.020294074732260473
0.05234767413907653
-0.05780205947673645
-0.025216313799331157
0.05449815022454127
-0.023942480025382865
-0.006161313180315002
0.038584644359665105
0.04240824481467183
-0.005795804320819272
0.05187632655177373
-0.08881862444530364
-0.1370995872401116
0.012037150844659212
-0.0027524197281474567
-0.002444206649843647
-0.03554509896288389
0.07757678481367535
0.04619815789397902
0.03673707926748426
0.0028220114412601254
-0.00791219526397912
0.012453337385112737
-0.00798874627408883
-0.011352801413362252
-0.020228792702792743
-0.027681548428047074
-0.038133927643094076
-0.019230304804399228
0.02327030201101638
0.014016544123228347
-0.012469506068845941
-0.01314210595461573
0.01567298232879419
-0.016635168178585916
0.03420998404085872
0.02330248048512771
0.005687694403660625
0.048064140454831455
-0.04157348416253835
-0.010580427780737615
-0.014252444166002297
0.031296130120316734
0.024655446999312047
0.01953703800111262
-0.025526329978289894
-0.0016086896510987961
0.006536761454558584
0.041215295710668974
0.004134187709418449
0.025816852148780205
0.013776476901533729
0.002239866473807094
-0.018088136026526223
-0.02188231786105679
-0.02324813054019912
-0.05292891880968008
-0.038723698553910266
0.012494426295398852
-0.0034795628654348447
-0.018170092308054532
-0.027867240354225716
0.0158584667749446
-0.0386066667818742
-0.01909525423424381
-0.0253305748884812
0.01569040323559069
0.064590556170339
0.012627985216927783
0.0030358220098959687
-0.013745188087380976
-0.026903965270336554
0.029073863001628706
-0.04218054747555426
0.02350630797915006
-0.014004598164725988
0.03402387022770552
-0.008961516252228872
-0.0100730442867186
0.0070223430996265174
-0.04183853543860881
-0.045591504668142935
-0.0199126796343271
-0.04761145186217001
0.045261954883216056
0.18778791846733114
-0.022203276554456777
-0.03332698188495676
0.006143676414957085
0.0212858386512686
-0.022910703921764124
-0.029783161761207693
0.17920783859288278
0.14140549439694083
-0.022483207752777856
0.017102916493415787
-0.04986752212326411
-0.08727633249444518
0.0005530864970453325
0.025668583469635974
-0.0037550266989787072
0.02832652403249728
-0.011090834402100002
-0.023356450276402218
-0.04844640355648036
0.10074617759974652
-0.009716643710779606
-0.050893046467050444
-0.0330446154684857
-0.05258707852257694
0.07404449367697645
0.0054940829182191795
0.03763275597927058
0.0006892471912899618
-0.018425631091451154
-0.04698943047876487
0.004041828189891599
-0.025573377976916365
-0.01964054608954425
0.0011445696275690113
-0.01114377662081773
-0.06888043479686874
-0.02643534559547485
-0.017081508209152746
0.0401721972236152
0.029093505948646358
-0.012309054249439427
0.0018481173865018572
0.00955278980913505
0.01898748579076923
-0.006884194559096009
-0.010541989533274123
-0.023947519395943483
0.002489525705377449
0.002024060927770614
-0.013407464288785977
-0.015391289909736025
-0.0015666172546364109
0.0013999217494190207
0.0003379534126119097
-0.025500120324976096
0.031055714107474913
0.025038850368186205
-0.018470154298820287
0.005141621605094571
-0.012877984816358047
-0.024176367453930286
-0.0034524070917283643
0.0018842177586118982
0.004674733056971936
-0.02533251286005495
-0.009438477311678909
0.010859993115180305
0.03908756712170922
0.0009297715647389907
0.0029699919603991573
0.03338775931538253
0.0005145510992419525
-0.009884916462804413
0.009434524388119953
-0.0002734485197860095
0.054209446976657
0.08237480248752095
0.005199081971446096
-0.0020527070272856303
0.001841320609195435
-0.001710850928573842
-0.014703518782988914
-0.014446636481656039
-0.026189801402287244
-0.06610984830399912
0.004102034293789729
0.04009450869721583
0.02082279446380984
0.00743164303647798
-0.012128810879234708
-0.018102395182171466
-0.023699254454586944
-0.013448099216298269
-0.0022705150817240805
0.00183578453245216
0.005443943404956103
0.007126290671707789
-0.04696811729172513
-0.027417043423287133
0.04998316309704838
0.012919238439176922
-0.027418581069863772
-0.0057630443503280376
0.0012839979259649345
0.013554361895934139
0.00691652551126109
-0.043048898947347126
0.0024046418260434913
0.009798156598868714
-0.008856903285932374
0.006502011474200509
0.006422133288347375
-0.0290163230525444
0.006572382124339815
0.03448832854097158
0.02726407479294058
-0.027014278011919902
0.029626894302608755
0.10606084289327951
-0.030695012969582162
0.011072275237351372
-0.022949744612677386
0.012553891704524518
-0.05513544769043067
-0.07906321674146936
0.004244790804167132
0.002073251195342358
0.01259960690279668
0.021327081504433385
0.07741625725342356
0.09292256587440353
-0.044037211195067864
0.006628660368130092
-0.038350182726863136
-0.03389277185864263
-0.0014682726418907754
0.035028187353570744
-0.032843486777599386
-0.011439284276791733
-0.007704750727675445
0.00627515461015449
-0.018473301108743984
-0.028385526667141305
-0.04838069935723518
-0.006622932636771524
0.008892880358835911
0.009242435571603891
0.002547391253324585
0.0006538790396221391
0.013648857680731758
0.00635964018636697
0.051397808056843616
0.01855140092729894
-0.0009603274175642015
0.0009389519492058087
-0.029915652629699623
-0.014514728353689778
-0.07758939758257491
0.0025644773525830703
0.03476948913558974
0.03358434073290447
0.004334843476879133
0.01987261531240125
0.10298328501282622
-0.030084582092850694
-0.03867184574789341
0.0158399154221132
-0.013983648941843615
-0.0002645736104479485
-0.008625228655546553
0.0584440548817519
-0.13448683356025876
-0.13854488317461872
0.12413645523833595
-0.06842734383066636
-0.014692242730325046
-0.0033626215579083477
0.037909896752657136
0.01800799698021054
0.06077965248414097
0.008834802354148581
0.014809193597627628
-0.010076673016230879
0.03680345634324956
0.009109894470615287
-0.004429756711985254
0.025392807685676755
0.0028082066011777197
0.022934458124576527
-0.018954195870356096
-0.007044664548308037
0.006492703426007039
-0.004256714494415409
-0.058949908552307584
0.005322405260557786
0.0040681251661341756
-0.01686984175837998
-0.007804122077093762
0.00014962424179985198
-0.019125002044166384
-0.017321524541341848
-0.005112361865712494
-0.01653086066186827
-0.008693464164702491
-0.0011858897815456002
0.035834197901611416
0.03746664417825939
-0.027514428807688954
-0.11863579367028405
-0.018971363709650337
0.09041683497983219
-0.03049205944370947
0.02058481100325308
0.012049112070330891
-0.006756048196205381
0.03892664848590524
0.005997353321334857
0.005295175582501496
-0.002250752788934507
0.0006278778269828352
0.01492682918908744
0.028198163903682093
-0.0060865184368103
0.007461776940948865
0.007066392126797785
0.004275799244164664
0.027061543534854477
0.019686281351618796
0.05933412247142786
0.04070530398311415
-0.004418544433665582
-0.026366754820578278
-0.017335560449363716
0.07454715854026882
0.026325504208975548
-0.07192929557027716
-0.007872886781327528
0.03873501659151153
0.03597673915973184
0.013586069334354387
0.011857113445923474
0.08053318068989455
-0.15825246616629712
-0.05127520088571068
0.016234200435067223
-0.02455177247887526
-0.008416130985005824
-0.04807131702892899
0.021109343533008296
0.007809167678978359
-0.0032288701519524164
-0.004398251365381378
0.06448222423731348
-0.15344959641142816
-0.0036852035417740975
0.044399485395176505
0.019300733126540254
-0.010659511935830899
0.052541471561001966
-0.21128895253932914
-0.06754812660930586
0.11788576816294875
-0.026334306659497476
0.011258943020633539
-0.024578941001967333
-0.025923881960928357
-0.01331882360048693
0.036171687610935525
0.02453981407430832
-0.00700397062890421
-0.03620241458922822
0.034318938173363844
0.011184589008984431
-0.007488132927552139
-0.03779181304323801
-0.011356570518068425
-0.017514677316803614
0.06640591265082997
0.008914347227124739
-0.05927954808850592
-0.1620853756497267
0.09760952873888903
0.0463978215345722
-0.00617420851623528
0.03486214956078316
-0.028248430428917067
-0.0006462924574795664
0.014385188081643048
0.03910584330104693
0.168223052124938
0.02095079315399765
0.019002837137623192
-0.012853447003009725
-0.02787834491208116
-0.0053831503957817994
-0.02216964260284864
-0.011835569479918881
0.028921675724458046
-0.010795572812269618
-0.02198403870121738
-0.018241764785654983
-0.008144275641285316
0.005599503923785374
0.13362698715833088
-0.002355864316220844
-0.012629567532797675
-0.014637789602905012
0.020228695216584904
0.020197362013883283
-0.08997159971922994
0.007614106938765994
0.030274318788395854
0.008905733454504796
0.006741116497858667
-0.05298221457853978
-0.0181646444472226
0.059995731739275276
-0.021395242367003738
0.0389285579754624
-0.04195181295887388
-0.0336951436011894
0.017474966489303505
-0.0289047026329887
-0.0030583698784480283
-0.04629095104957947
0.03663064329840855
0.1449774625814464
-0.08444413198652945
-0.025129975087637656
-0.01584587587130481
-0.019416447937763436
-0.022512985762039736
-0.016450308870342014
0.013549886290434012
-0.024789946214230002
-0.043265228913659796
-0.07331878559847087
-0.02355199384893907
-0.05315803481905143
-0.0349072426198017
-0.002100063017001178
0.03866850717373443
0.10848187562133561
-0.005602224367531889
-0.012163668379496175
-0.0034329378935220255
0.012024233011005707
0.0421964763280427
0.05703155356853399
-0.023936197860904982
0.021056635503508496
-0.028663669490425668
0.11198725404211606
0.028288201299424606
-0.03593590681067593
0.16309607655960554
-0.04036658308651342
-0.01606385468804771
0.006594883464501866
-0.007508692705647711
-0.0036031021554488365
0.04131699167680145
-0.0083921835855834
0.020562758443389697
-0.013124004151612974
-0.020017740954131866
-0.027306010901516468
-0.03678893197942576
-0.013967253125510382
-0.02967135335793048
0.022158467412502932
0.0228050186755563
-0.028308771497327037
-0.016259501733988088
-0.023504456188035417
0.013979613860578227
-0.03504060969635542
-0.023953602545105798
-0.028035044652137426
-0.00048117499456519134
-0.009278424964648195
0.02064685256350403
0.055255449224944755
0.04480426619540204
0.021238228291876275
-0.0034813997812124754
-0.00404558773025771
-0.005172705592838466
0.010639892669722918
-0.005561062879099112
-0.01940914532634512
-0.02937069497663817
0.023460183381040233
0.006889122734736737
0.004079100599407957
-0.0012691974564133035
0.0850140080927788
0.028171352539388628
0.01775966937362999
-0.0823101574446352
-0.05676070540104538
0.02209375398307278
-0.004921194829138083
0.0010918446194630642
-0.014582057086909224
0.03401467400143948
0.020564789953845985
-0.03459186379930687
-0.07164754614891615
-0.14716509266282507
0.00188298618663131
0.029975676898821173
0.009719791296546815
0.009167627400693065
0.002970255330922262
-0.01258011411130638
0.002352269652246451
0.022196453941070535
-0.0035749823507162377
0.001273764205098486
-0.006605972684858059
0.06585682649611171
0.04250339840009087
0.005040165394185676
0.0033163472202098854
0.035701225855194835
-0.016681751277132048
0.050918282918311186
-0.13359818842539925
-0.12551921863978643
0.021811411365394003
0.09918105018582475
0.06909583785590645
-0.01550001225141849
-0.03163006139468832
-0.018118266184451864
0.0075381639454961125
-0.006144616602499171
0.008096924532144202
0.005167386934042297
0.012780331081241348
0.011467391810700781
-0.019286367819154205
-0.0266730051918111
0.01598787494205143
-0.009659662889765294
0.057764042569972904
-0.1102704578936159
-0.036482948358607575
0.006303860403897291
-0.002349439341199516
-1.7973609730293306e-06
-0.0007546646747597831
0.08079856659158709
0.023259920860830553
-0.020965155894767308
-0.020061791644915696
0.004809794348459276
0.010670819820887016
0.002007759384852015
-0.0043486559558602615
0.004673708196400187
-0.007702742569079269
-0.01351078641763307
0.009966972970070551
0.02410813095277287
0.01033432896066505
-0.005636930549401506
0.0322066274492122
0.010497959931979564
0.06275131016300493
-0.11552586077170279
0.009922591403317164
0.1431589218177609
-0.027143190479298453
0.017428884450771353
-0.03852387814521584
0.039585426017505754
0.03266511552913935
0.008102839536950273
0.023491159891060195
-0.02178577571831841
-0.03117573557507743
0.03405794913551825
-0.05618628456790862
-0.0955632654765639
-0.0035756679715839837
-0.03550880717321191
-0.02935574548323788
0.0013230198065456267
0.02566568210995167
-0.04648092571653264
-0.041844041851201705
0.01698629051184947
0.08449428156376536
0.05572855220935349
0.013491863259284297
0.05644568241602051
-0.04587613846715078
0.0048527137843879355
0.00485118386005552
0.018603060617813704
0.03716730343918977
-0.0163253446627338
-0.005839753664335616
0.03435005820831104
-0.011682613905397154
0.027376062208395037
-0.07438563292883829
-0.0554513681085105
0.0365130008086181
-0.032241471238401424
-0.022437417945321687
0.019335020370602855
0.03503530220667707
-0.027494538340462206
0.023095161742193105
0.02208133222008645
-0.03363687966727549
-0.037453955548302706
0.025633085029075287
0.026870099962816824
-0.009987602681202488
0.0376555919173636
-0.02583446427449619
-0.027279911525019768
-0.0470202173710349
-0.005975956698258064
-0.02881074587233609
-0.01822440695749368
-0.0074548456007021025
-0.02769272785342382
0.003489943929236552
-0.01808336495584274
-0.00387839243946629
0.018927936107917688
-0.030073455228635925
-0.00601177732953658
0.0025923064530117357
-0.0053112979061268745
-0.022569486864791197
0.02616305083057496
0.0410902158803611
0.007061712882607908
-0.0511669911547563
0.04928596697088556
0.03274352695068201
-0.0071402178261913704
-0.011456522219633846
-0.005319880549679229
0.17058791940420662
0.06666431024391324
-0.031168036323121043
0.0522698059917162
0.006867277605351525
0.030910003455963227
-0.004590784144984564
-0.009536545014128747
0.006243118111033075
-0.00963697336192065
-0.20182419799403342
-0.12733972747108138
0.08042323303471109
-0.027503544126283103
-0.010770369825773092
0.0031858676076034122
0.01265408085409685
-0.0327542316237479
0.09775449184103949
0.0292459956546748
-0.008415751012184345
-0.009574192792027886
0.015876977761948925
0.02472517500983002
-0.007869967184063187
-0.01789678228164224
-0.017207502502670072
-0.0010206586381190177
0.0006989189716726923
-0.014360659924318472
-0.050417918321517284
0.011764051831750234
-0.01621944426539594
0.02888025506482081
0.014782051994254858
-0.02161057241024324
-0.03445836910900613
0.0026273311163259806
-0.02375175993767205
-0.026283624547732958
-0.0082029281973675
-0.003160302695670444
-0.006297591873960681
0.008584061116426157
0.028730682800894174
-0.005735749056219961
0.07853917781577872
0.14920369742616935
-0.03916813211320812
-0.03680393491173658
-0.0005811852804363383
-0.02277827079704955
0.007983146053461933
-0.010177071233938751
-0.046909745324790524
-0.007938770195666045
-0.010258479374827194
0.03468833546114617
0.027108208243820986
0.0265659524274382
-0.050229892380225155
0.0008139229896735429
0.015926698401092763
0.006445710177934484
-0.018005218461044473
0.11228028074230237
0.15446842818344161
-0.04844618677169872
0.018533766353552122
0.016564848996798893
0.051381782012367254
-0.012867872395382231
-0.06675615596370284
-0.015067371122502338
-0.007627348293970853
0.09159977291787737
0.11845222801725565
-0.018199397702126106
0.12723726842974384
-0.010190343108998258
0.035247680815384284
-0.23649425753050554
-0.13297421874958956
0.07172454614851212
-0.06387217933143285
0.0030190057758194082
-0.23082980558759705
-0.05253529429288394
-0.02775543879757496
-0.013730468873573593
0.11274399788610634
0.017469123258285597
-0.04319115945075628
-0.166538308624013
0.0083303806440463
-0.005412466526079409
-0.05753351605537061
0.0022438009525422124
0.023256144222648725
0.0028876220241750134
-0.00803993015345011
-0.0781175651041587
-0.0025366301750220687
0.050660953294848335
0.07769762512894424
-0.06508194285207629
0.15512239946527162
0.20955264400438148
-0.02907563520696086
0.022025501140016886
-0.017482586843399886
0.010167861611306669
-0.021051419920528256
0.012311150246470585
-0.02248065861741298
-0.02202647833279315
0.039743095537873016
0.0015371573699835268
-0.004011966189750233
-0.02934516121805733
-0.01604859954130877
-0.012820608675369632
0.010253860832501953
-0.012215113260273094
0.012346598563656762
-0.07389742208546311
-0.03984857220587816
0.030215566573103408
-0.03375169545752239
0.004930591883622261
-0.04286139866688867
0.053037503873787036
0.044752182973586734
0.01985193347660141
0.014575407933079595
-0.06710638368650487
0.004542947091479449
0.024437538954293504
-0.04221875805753122
