0
0.025992707179780597
-0.017721792599368548
-0.03688926935911814
0.027708297108049097
0.020874618429996734
0.025682903333466872
-0.01439434554361821
0.0160465471187412
-0.004351848234852573
0.00021551423632875765
0.01847139255584744
0.013350872469040265
-0.01084277472878804
-0.045161469545687595
0.025628477223563633
0.007458308129140102
-0.005388252504206086
-0.02491451293720783
-0.011164548034426137
-0.00944347569370071
0.06581262500580766
0.012739765483369823
0.048204632261468254
0.02394954470420438
-0.004465846435592443
-0.009147015530249226
-0.06757966736657191
-0.12043774179557983
-0.004369658213259644
-0.03404958158994256
0.0424690893544126
-0.14650882508315674
0.07831958659723873
0.09695030941379634
-0.03734520704286206
0.022253031804160866
0.030516211088604663
0.04862638910373037
-0.02265560850258255
-0.010206991449778154
-0.06334927626312085
0.011839754103175814
0.001937294752804241
-0.006919397420779246
0.03539611706866095
0.06131184889563609
-0.007096042445760475
0.035473607788156426
0.035330275363360364
0.029283309316932307
0.019309276907470918
-0.0035935204778790304
-0.004893417366209876
-0.05004705661105226
-0.09124207917480605
0.0590750072241089
0.036308483865453364
-0.0024917242072617397
-0.014020386747830845
-0.07968116488739889
0.00669487954972356
-0.009863966227840906
-0.07582776784376355
0.0008363448672722416
0.0027031507631976167
-0.002561364597499996
-0.03371186451515441
0.0446994556376247
0.030724969147901876
-0.008353196697854753
-0.0030880572742575927
0.00918089004602279
-0.005003590696920525
-0.01800492593516968
0.04859000660952607
0.05086582487099518
-0.05568833387455831
0.00437166175602296
0.032574957384184554
0.01817731944872033
-0.040930338124587864
0.0260050557590493
0.021125451717368758
0.025370243055719065
-0.12190125094392237
-0.06491683502627489
0.016496598701273398
0.03441411734385241
-0.00935673155498352
-0.0018975907693346429
0.040701539607590674
0.05244281349457977
-0.0021632104797934142
-0.004951188557356819
0.0413048732824324
0.0006401493095424875
-0.06221594079627151
0.007537811494361979
-0.03098118831427383
0.10926496132338077
0.12231207295012678
-0.006859415169986289
0.04539834472311376
0.013776245032924983
0.050249885409767436
-0.03273846034321325
-0.10357236794326526
-0.015871175698489188
0.0012223125895034642
0.004197698725010752
0.018621781378433202
0.027304327585334232
-0.0006082207754855024
-0.005815609629124284
-0.23895807743073352
-0.0328819832078835
0.020588470585411797
-0.010026447697926362
0.016438044386981144
-0.010877578158875585
-0.03164858745139523
-0.020764370757708428
0.014193489166187387
0.026396197485747758
-0.009714077625149486
0.03026839326782888
-0.03339470600643268
-0.06042533553560263
0.05051769481221206
0.029404045926669214
0.0336289978645732
0.024906438441178135
-0.08383479843357201
-0.07677189956718179
0.2584722082487467
0.04868379083512715
0.009322672383163973
0.03215173128990225
-0.006931525194319319
-0.01777739372483082
0.011395917241502095
0.013527657551750501
-0.007565985785549416
-0.0010432271617837013
0.0030939943433633803
-0.1574782925130341
-0.07821727610622262
-0.027765152681490848
0.038411486944262496
-0.09908170161062838
-0.1879670226771337
-8.586054713507526e-05
0.009466579624769432
0.026274136518625556
0.10810316278997585
0.014550798491248127
0.03011343189324923
-0.00513166567801598
0.02388753300208738
0.010479571306496469
0.061968950871295385
0.09438734982389221
0.041267823314408744
-0.007282098084171823
-0.026967500700677
0.06974627790651375
0.06481152899353441
0.005672868227356276
0.013280204251024972
-0.011792455677109315
-0.016216752194242248
0.044716359569876386
-0.05680070755424051
-0.043460417455641706
0.03538941024753167
-0.03558889893504349
0.015322410563088213
-0.00014953576684924026
-0.01229230416164665
-0.026693245012319827
-0.012722135472066342
-0.005065697847105131
-0.0033293673802703883
-0.008827594635446592
-0.005082356334278314
-0.05816957036972953
0.025735642662631703
-0.008554299158253582
-0.017256731866948358
0.02336885836197226
0.03842656660821617
-0.0888752288828404
-0.03206902423658812
-0.04491805304309005
-0.04139832287782874
-0.004360834177426858
-0.012458871636391526
-0.012359366065726903
-0.032528480703161805
0.012558219516716646
0.13432766734506038
0.018615405822662537
0.02396642585561843
-0.01568148445502029
0.10848591357478331
0.06573078730866552
-0.02652053275342457
0.02693707543365517
-0.02409269450145333
-0.01206046758077182
-0.054624645141955315
-0.015457642744783619
-0.053607641163937875
-0.030834883160660426
-0.014837918214644936
-0.012876918748323191
-0.010697961738007983
0.0017520804925283866
0.06866294129520743
0.03264876870558674
0.030826731346660897
0.008943343189635855
-0.01702513921171085
-0.003104082732475627
-0.0106484635689537
-0.00022820481761424538
-0.020638259317361015
0.006124123011490375
-0.03514381514147183
-0.0026012043415750865
0.004356672545645193
0.006418990259332514
0.10538845729470975
0.04748147123222132
0.011273334140413385
-0.04577100391796825
-0.024378043561260575
0.007712917676048105
0.017290121284005127
0.019118137106354124
-0.001633649514524098
-0.020648320204193264
-0.019105394109636895
-0.06326382665370969
0.022489634734182817
0.04882657662416274
0.01610252037314184
-0.01880154356334873
-0.0033572675505537876
-0.0064457973635631645
0.017978201384635222
0.008916435617400294
0.018374892365852123
0.02927844434838784
-0.01817498558656688
-0.014411968205736654
0.007924008104892799
-0.010052498043304502
-0.02564874420894898
0.007220926059117524
-0.01937359142354244
0.017900871039859614
0.02072539347832472
-0.04070605062013568
-0.0010290543170696337
0.08265280028396907
0.09859270554753109
-0.12279865331787125
-0.18135463938569885
-0.008717678865325007
-0.07945142488232115
-0.027777458160372817
0.004027595299249896
-0.0021204472040636246
-0.026854367469976114
-0.0018606899500957868
0.0024854851612167482
-0.0045685911161469405
-0.023735651562438367
-0.02575291464369037
-0.02250825816686448
0.012988429226560485
0.029371835322786977
-0.015344492228599238
0.021212356014263696
0.021581074752256853
0.13675314392621404
0.10749053394747735
-0.014422092359565477
0.003253300583308959
-0.00017298323924448453
-0.02249339397423372
0.011971075600647153
-0.017592290100304015
0.10522175855674872
0.11622325719069324
0.032286753654391064
0.02352322696652659
0.08952904775426154
-0.04910203560106485
-0.10290828524255938
0.021895400886215163
-0.017431677922288533
-0.005997424583532404
-0.0014520999550125234
0.04258441718524465
0.01642998402538172
-0.031964341769875955
0.046732864584734204
-0.06649262942071674
-0.19738258373017029
0.05254991684629938
-0.04501104097425861
0.046683157522606385
-0.05993903448839461
-0.009812192290682111
0.05057295062329182
-0.020376501905460635
0.015245620641313599
0.0241997685107908
-0.2421344271066962
0.015491217666218148
0.23610777344631073
-0.2820224580657266
-0.08680012813099182
0.04199353641218575
-0.027599646472300867
0.011740852561177875
0.04729205386907747
0.06634705646803261
0.02508241058354897
-0.011364302065476308
-0.0149720823175506
0.02045821347233268
-0.006745746300856717
0.05612758894459456
-0.03821788990942185
0.0040681765797487045
0.009914077975608936
-0.0026162645969261093
0.008734151127298041
0.010815019599764096
0.01480463414827285
0.13806482159618455
-0.038534744960894735
-0.0505200626008291
-0.018185880142473715
-0.002944416683327942
-0.01848677058218391
0.029027347502292997
0.11432364837800593
0.015060059016691316
0.0005891349695102694
0.01111478708870367
-0.023211151006390894
-0.03946155636546057
-0.023432376738829194
-0.05105664575231053
0.006664787097551939
-0.019883666764091607
-0.006595504015503009
-0.01878614839264632
-0.016135698730453046
0.003550266278370929
0.0673716514902647
0.10135613954883663
0.02850837396010664
0.05951668237066524
-0.04018700215112714
0.016179283515785594
-0.006176560458905006
0.011239947105523668
0.03134951152918131
-0.026739473591566493
-0.029876101262051338
-0.014739590939102978
0.016152153852279534
0.01639401938745202
-0.008443834199355937
-0.11538041222229113
-0.041596018967437864
0.04301430945353807
-0.024848653682381764
-0.03403927177060506
-0.03878415050600173
-0.0055297668109714395
-0.054551450709678
-0.08488271454285524
0.06636888156988884
0.14415276781844924
0.004201855300807423
0.03245965482857515
-0.012829231866831084
0.1362906788087804
-0.05868977760937979
0.019887093095496508
0.11044903840474066
-0.07505775713928131
-0.016265155520620737
0.01690691728062685
-0.0017422865739290681
-0.0019640881670234117
-0.001025152409594155
-0.018216572177530282
-0.024386758728049785
0.03037365189612197
-0.026973925441662903
-0.013915382830104525
0.007845969045872234
-0.013631882256333376
-0.03575632718626762
0.0009435555426657144
0.022839959700585433
0.02100650925538944
-0.028496189660759928
0.01717772158415859
0.0012251949457663851
-0.16468570736721685
-0.002221777145116263
0.009841559058926027
0.0051246784485432725
-0.016713839906358535
-0.0056648325623833914
-0.004880788552673164
0.03021364498642488
-0.07314660453385291
-0.06554206516389188
0.08572696895628676
0.02758130074996356
0.036426996406667085
0.01550990643179457
-0.021885005868243438
-0.0019189607682589644
0.0078094915201207095
-0.018220827490916025
0.011290342210706763
-0.02537118975023001
0.02965260231158533
0.0011313190138848058
0.022344532371035477
0.00753733338486253
-0.008865926203162977
0.012654269428863139
-0.036425297932113826
-0.0887887375880179
-0.00438696345489819
-0.011751066753813126
0.02950326589784508
0.08283466764072238
-0.027441172418004985
-0.010141875477949237
0.008648381005913763
-0.026889104039595588
-0.005577322321899158
-0.03498457554878845
0.03991246366267367
-0.010404834146338462
0.04384221551303404
0.04819619840188558
-0.03474238166274239
-0.020080279467801034
0.015751966445931458
0.004770199069970434
-0.009822562259530397
-0.04599300649840367
0.11138338643788318
0.22523528939054163
0.03898421011047057
-0.058867367942524194
-0.011839393625928991
-0.01612732381775707
-0.0244783175983378
-0.004878597354302967
0.0008048249973002502
-0.006338257104514954
0.015602629967032952
0.006905939499206638
0.0176510214910461
0.013761634634149521
-0.00012891164370612895
-0.03669538110699041
-0.06576784635516754
-0.04401582697878511
-0.05253286985449782
-0.034030822058896036
-0.003995768013812973
-0.02261277284344535
-0.001297554030529118
-0.03561643957899826
0.06629943348332315
-0.0037314696247460243
-0.013759403329581314
-0.0038768743019335448
-0.0033308145402836803
-0.012622552730972129
0.008244591784873329
-0.022157542343217304
0.04235005227048373
-0.029540076475632743
0.04164370557385031
0.18156767258544587
-0.04085581102865816
0.002416671554802321
-0.02330804432995478
-0.0022767326950724775
-0.07715868887339164
-0.016226245386529458
-0.05216122916533667
-0.01679766449736279
0.059662700472438095
-0.018086733176288693
-0.04766004386902266
-0.10307781749792429
0.014447505500618697
0.11006097233518454
0.1956301466602357
0.005587366717984494
-0.012974517697905884
0.00500873271965246
0.0339569801482744
-0.019428627209544073
-0.006272149472522929
-0.0031770479173143765
-0.0002360854622522497
-0.018303934171423467
-0.014180164724926222
-0.0031142293674653373
0.01226762731460659
0.009666326231235969
0.01391104593903649
-0.01680910985148031
0.022826203880573517
-0.03189459367127575
-0.03739871000747432
-0.051657480231079335
0.0013712956323941538
-0.0030214048385359686
0.020944664857844766
-0.0026171803020644626
-0.032084275152469796
-0.07471597415225771
-0.08297308253549936
0.04189153130414367
0.010762489291451821
-0.010021401140578206
0.03948825752421668
-0.02308749028767133
-0.013300215498661023
0.0042159175280781095
0.00369692410824422
0.014337076554183729
0.007361222302488527
0.018302684650886428
-0.0011073586116919394
0.008045097831815002
-0.010613512392172604
-0.0017894036721957396
0.02103087977828133
0.025482658508413577
0.002014839824413478
-0.013120986846079808
0.04360554028314367
-0.0029699370413930185
-0.02354861516219476
-0.06598422673847272
-0.0961223352099784
0.055210221534643
-0.04762749680126417
0.04312610685172153
0.1783502353138678
-0.05335192206146407
-0.032216959895916296
0.007411807074841207
-0.016986879249074754
0.017404499691424432
0.08917044967172151
-0.0011747785322799983
0.014513325222138213
0.004126275550816838
-0.01226818100469159
-0.009828289636767336
0.03718153025060072
-0.02477647121924017
-0.04751275300329094
0.030429689684288556
-0.00278482251226165
-0.011703357011696
0.012109066296814172
0.005669669201581734
0.002210299309729425
-0.01821963580935006
-0.01603842266915437
-0.008799894981961879
0.004211488513637317
-0.005198730379775611
-0.003689829587523781
0.01269775113316016
-0.03347607278089696
-0.07112589751012752
-0.032879948566691145
0.04123513383170466
0.06900771995644403
-0.013923174440153625
-0.011181110517069598
0.04215150197006924
0.020697362464408654
-0.034910944243530306
0.07470956320256458
0.08599342619673214
0.010395554405528713
0.0023734723386020003
0.043527729479778454
-0.006311506867461969
0.03656557946785167
-0.019848197503047407
-0.008647629382196985
0.02835077712279331
-0.006477238959135822
-0.011269088894926742
-0.22331102611269527
-0.019386010826911118
0.02723416184264602
-0.005576907428613582
-0.2218622479039931
-0.014249280912054412
0.029204770313844927
0.0019038435155619413
0.08435293623948222
0.04580149093563388
-0.0006827767356353851
0.013660806391609279
-0.00040344220094535026
-0.008192436245197854
-0.019801880905224976
-0.025804539039140845
-0.015639697157404896
0.003778654563627498
0.000254451648618572
0.00307612443644912
0.020504982317968663
-0.02925134856959303
-0.004546763677703048
0.017532780439318676
0.1676726391918355
0.025590092282420783
0.018203463450593472
-0.08738258551635839
0.00654631608579481
0.033080166918504024
-0.03677835490613997
-0.06963410842545777
0.008656145339221238
0.0145964689198362
0.004350548101909904
-0.0005527042644859621
0.051884176668757304
0.09809359562502899
-0.016583206352269026
-0.02555045214792898
-0.006509195169378691
-0.03442871512017121
-0.16523621058568774
-0.024499605638225397
0.07061640940406445
-0.04646397785066903
-0.07191205283352946
-0.04672871579464256
0.08277557702776417
0.06969398831221164
0.17884489421283542
0.007006261333397897
0.0022048450037446157
0.0321811261297587
-0.023890447878431764
-0.02322887579718977
0.010150978826944808
-0.0088405274208468
0.03980572003637378
-0.02566761205456219
-0.03169395400889896
-0.0036479412731973367
-0.006380923668551189
0.016947009037715618
-0.03010219973765693
-0.02148365291009324
0.007885074930522642
-0.0003825823251380195
0.0011727984081204973
-0.10025714705689988
-0.025199400474579085
0.0073476368482589035
0.00756016779638186
0.0623722818094185
0.022985476903666043
-0.036426450945310884
0.017140688318423195
0.027748130784648065
-0.000269467841868788
-0.031997493952106236
0.022758140413156634
-0.00946681095308989
0.01962595672527028
-0.14612526503640091
0.08566783585940754
0.148066344569336
-0.08522733808291372
0.014367652700879708
-0.036327598104129624
0.024113192896893957
0.0018006112883494057
0.0038252536900639385
0.01937885081122231
-0.009504891305750933
-0.06610518248047975
0.032756516294785515
0.047420657205502065
0.011681110066633919
0.04267837884144963
0.019649356746450276
-0.019852507493329348
-0.027319402400431642
0.020539192958562186
-0.010515180065467977
-0.008668649647531897
-0.032847616967711324
-0.045747495000373575
0.00013087054231653112
0.023757189488100728
0.017899291984211207
0.03849099239874408
0.06516496074039319
0.0007317478254516143
0.03200069986019063
0.016522559956257926
0.004748239441105504
0.009749632815979457
-0.021203552454686088
0.00537239161975385
-0.004402902735607152
0.027789624483391995
-0.19740835036530624
-0.08350371479956654
0.037275821619595764
-0.03696923882370681
0.01623906900607406
0.00017762777010640925
0.018426293293454504
-0.0059546305595212425
0.0038858334155491793
-0.019335053208722412
0.000585976416664444
-0.03606448895566699
-0.07894826069240704
0.013822655330919406
0.01123027245955954
0.02217554052110493
0.049209105902062955
0.012995856115739233
0.011028616940774826
-0.012422004327395516
-0.10169651315765926
0.014667148126219089
-0.009777340705717555
-0.012324997440092404
-0.012533287920682212
-0.005622031041557221
-0.011331153767402522
-0.020154260242328297
-0.035880644316504
0.008163069359874682
-0.01139674415268505
0.15119824436145543
0.14357570554209792
-0.022784347878760512
0.03854149232438929
-0.0023699956551150167
0.03210316134456849
-0.045950195507985
0.008478210225379498
0.03282764073212385
0.09487537985633758
0.06320336445142144
-0.04676716557036361
0.003285917702165101
0.013769494963139272
0.0053620761898064305
-0.026163364116082725
0.017680516348362856
-0.13664442713694913
-0.13618360236680682
0.018518243140922683
-0.04557111629635371
0.02982735023732177
0.0029420298345940944
-0.0044158251766337475
-0.018713168769246263
0.06267059629030347
-0.013310576433146025
0.0001647999170681144
-0.03691151926380986
0.008195559391297663
-0.023212106135029383
0.08011524490418279
0.050716227715113825
-0.033498581019927406
-0.0009925860698591304
0.04601727267345731
0.012399901726135884
-0.01955302597745021
-0.03909066293251726
0.005042228579872113
-0.03380418771202332
0.0038298233796025954
-0.004496938108701711
0.01480427675960211
-0.012449887640775667
-0.00972832222304366
0.030598721593092737
0.046249795251887896
0.040260663737346596
-0.004550301709471191
0.02090059163988424
-0.008138258450445569
-0.07977135563122859
0.005754010856704607
-0.04514431394434823
0.049995824975890536
0.07911951590993874
-0.12249364334368708
-0.031077819046078484
0.003465841191778415
0.0035926901204314486
0.027934439069071695
0.012660141220391576
-0.03758325771411641
0.04921365504111012
0.019248525968242055
-0.014679380129516875
-0.04744749928267164
-0.0064391845429451165
0.01120084731516202
-0.00976027100152181
-0.027605862740559855
0.13343284591378404
0.05519278887407617
-0.006781331514485425
-0.00034352232708608773
-0.01821025241816479
-0.06842034477397695
-0.010146739086228249
-0.022832998366426337
0.024495859809162503
0.018935320501506786
0.014792819200028744
-0.03537771875767086
-0.017617201591794415
0.019221700100086815
0.07789896766601694
0.05928014423947403
-0.035550359058378535
-0.00032144257332879483
-0.018212644619223603
-0.056749515588834204
-0.009677688860291918
-0.035327907272610364
-0.04416875156902605
-0.0011931412701444522
-0.0023748405113169294
0.030179509718971657
-0.0033131535065097878
-0.01336308519005793
0.015636551171285755
0.04641324716910315
0.025948220019450408
0.008212772307913327
-0.015499285418950836
0.019418688285769054
-0.00889338837027586
-0.010556658085304593
-0.045592616091015954
-0.03675016008709172
-0.026692331816382454
-0.012911498771675236
-0.0034509361230983305
0.05647298947885773
0.0016001948346257896
-0.014568501492750128
-0.008202651078737565
-0.005878299154449664
-0.007281413905567878
0.054042641261835674
-0.024828810104826175
-0.0047429474685593215
-0.028397577821639545
0.004186679307985686
-0.014639105496534858
0.002374467158232472
-0.023584203885884218
-0.002429373475752814
0.014358250245596706
0.047700151692097556
0.08816353091448977
-0.024529688898784773
-0.021546061707518317
-0.03290777422949496
-0.01756602865578848
-0.0015994523457681558
-0.02419179140618289
-0.0060613683768433405
-0.010560834720341817
0.013504465377978619
-0.02166676649542549
0.020830923091572043
0.03727168484672324
0.010219505745899676
0.0009190921929065328
0.0009226749374936091
0.005062201002805432
-0.007286544298580359
-0.005984230168043904
0.005476101346677111
0.01849227409081559
-0.01930079858059923
0.009779027014866956
0.027926759426279053
-0.019176435889511668
-0.0065823727512927055
0.011342011865035554
0.018003566006004727
-0.02170286110850808
-0.007191862872380611
-0.019722177921765605
0.03561467530543275
0.07886500712437775
0.002105975203294296
-0.007656020968240073
0.0046589356539359274
0.023162129329573455
-0.010936199644474273
-0.02336744027961211
0.0003358070649917045
0.00804878560541535
-0.003021960990949953
-0.005934107294755521
-0.018943588197279756
-0.026778419561710388
0.053138546308725026
0.17670083161437505
-0.043389029287093164
-0.10590523535818701
0.02545083225160175
-0.0008661847036524056
-0.015585359227015183
-0.008309569336625331
0.001318284810504263
-0.009559885156272088
-0.022903077317140575
-0.011015274837006563
-0.0058466723027133785
-0.020717697761929797
-0.052411754660790365
-0.03431116038974503
0.0032077477530612136
0.01725741678766079
0.033898188984704175
0.0039926185060388955
0.004342723677991834
-0.03491237501985679
0.012600238965645853
-0.014940872655746893
0.020569559096630854
0.043508722439979074
0.0031646945842987947
-0.0021378890675182987
-0.07945240517301998
-0.011031327902172096
0.006883452463013399
-0.009195440709597897
-0.005085418649492949
-0.021884274722481466
-0.018489161206738
0.010165609863794757
0.013889096381885862
-0.007933516617990919
-0.013846010578100075
-0.00036376232405107336
0.001815596721153586
0.005743197704649812
0.011031649659326246
0.027613407569037195
0.025020590793123562
-0.05837250636476582
-0.04263185462532522
0.006022391558501888
0.11515834597707736
0.0338264678752635
0.013502561022150564
-0.008046557680174314
-0.011622457474024059
-0.0023157608492072306
-0.1614325588750936
0.16843783192193823
0.16399092240035748
-0.05495524671779552
-0.0011463324573802185
-0.08152883727397306
-0.010905662634995738
0.014082203479519034
-0.016280388483773046
-0.023661126931646466
-0.02362712892356752
-0.008699165437681702
0.009998517997494225
0.0031206369891200424
-0.04991237378364545
-0.027978535434347345
0.037948403899022105
-0.03190096915295733
0.010171236964417116
-0.0024384604140099886
0.021293813593430546
-0.012566375977264245
-0.024270995915155438
-0.0021590046120054497
-0.009518717950879118
-0.023651082280806722
0.04390882610228335
0.007657287671033538
-0.028843775206609103
-0.01060552650908755
-0.010438083698913669
-0.0018433680217846212
-0.04582034502560832
0.06807362817720769
0.16750243345056245
-0.04177317396335069
-0.0028047096232584343
-0.03723622723563211
-0.03408021306233966
-0.018225615843933493
0.04078768509866189
-0.013975385440075028
0.04580737980354221
0.039264371584536786
-0.16400610840079363
0.0469641950702061
0.019883341309333245
-0.026476872822985466
0.13359922646153763
0.04617986229192734
0.04974781540968604
0.008588626861025144
0.03949618587720527
-0.04271327095943667
-0.019166792993144246
0.009585392875767871
-0.0696589472471391
-0.0751152233982004
0.05116697774689535
0.02683656350665641
-0.019374662690065672
-0.040276553847311464
-0.01718098091876475
-0.0032963560540562966
0.03590194595998584
-0.0027892694802560338
-0.009740191400509574
0.06066321760425465
0.003989561703267054
-0.02930495665339093
0.0014844606876110741
-0.01413172415584823
0.0013557855725435488
0.004399936362475546
0.06295772657416533
-0.0050076787213820285
-0.0034080788994717702
-0.019835800610632576
-0.016975859267787278
-0.032815950087454235
0.029470697016896738
0.020376199344988653
-0.02388360760271249
-0.015445984642512971
-0.04671957672269229
-0.06489695975242064
0.0656850897710085
-0.0398194916942622
0.011851454645086704
0.014406801280895607
0.005839500879206456
0.001434507263111768
0.014913962651532687
-0.022506805476493603
-0.05945890748467344
0.02942827723157496
0.0036319896057344196
0.007574201753458574
0.0027469108371601927
-0.01371526901344633
-0.027139815106613042
-0.029659029719480055
0.007200087428824278
-0.020930517173160933
0.013484929768570023
-0.019532505410054125
0.042537712406784736
-0.012558638494086328
0.010398358296574057
0.020478419519786264
-0.014084669626412027
0.02425425294453513
0.025982494056290797
-0.03965177094348921
0.007038551502966213
0.04151195526723946
0.007586085975519169
-0.0049910465950626865
-0.009637205885925598
0.0008768177187013815
0.0016180503726631193
0.020285327121231943
0.012447634067734225
0.0031022179299864494
-0.0016630483619107029
0.03634472478222899
-0.0053625285169403404
-0.0038113671949728746
0.018557722070522104
0.015779174745020247
0.006761611374366721
0.0018449900179973704
-0.003865914984549837
-0.018620528428019943
-0.02977733668178262
0.009294051960840976
0.018238991083299575
-0.01086875641322145
0.018767084029429146
0.037479761179578484
0.026872675729829123
0.002830954061097362
0.007650358687442104
0.02927728553865901
-0.040785461735336745
-0.02172228000502898
-0.09744520519683231
-0.26754967376535793
0.0059209868176991086
0.13576947385098453
0.012050200081350687
-0.02103361886031968
0.009437002568739063
-0.0032545419582249015
0.03980778671700858
0.01919447788826242
-0.025179206544640273
0.027558180773574564
0.005390950229882101
-0.019656703350248172
-0.007956128986875635
0.0006255957807303389
-0.0030986508288382893
-0.021367218720491202
-0.00048710186251599654
0.039624925259594504
0.01478039294889829
0.00805985812163149
0.014594169836481862
-0.004978287030989548
0.019232063715450387
0.015072019763569667
-0.018375119592569426
0.016802303903925023
0.04256672628773997
0.007901611679071496
-0.034120855552584956
-0.05746257331222081
-0.01777492171424873
-0.006979824078031144
0.06613305033990384
0.017974354272068088
-0.008925931805648869
0.006899925777209391
0.006218071377441199
0.004478165492198516
0.003364258106450517
0.01556878455415532
0.08062552428229104
-0.01157453105287561
-0.0007214776978660244
-0.0182307631737548
0.07110947547138673
0.009432961944528155
0.026054456394107132
0.033623751158675406
-0.19046585380026096
-0.08252750526906694
0.04182919953876198
-0.02060467240992637
-0.020308131265172134
0.022081429578550738
0.0039717817742231
-0.010821721748029658
-0.02418528217233594
-0.031241777642691117
-0.02355238524725341
-0.01756309352537315
0.002895909000475402
-0.027413974223690653
-0.011740626085324293
-0.0060844984067458035
0.0020392693054785602
-0.03901299386606355
0.03220435185742921
0.024223238349816566
-0.04524630050538834
-0.05665662943429627
0.025983973099231922
0.21335186472342174
-0.0003629264737299199
-0.031162587404739324
0.028436730845452455
0.04490360257787297
-0.013526093859037233
-0.024173176073477663
0.015622036805245536
0.02888462223896768
-0.013231605850017402
0.031075131826509447
0.019693382248174785
-0.018877893646796443
0.01126204253146767
0.039830443361914984
0.0301466066881668
-0.03301173584437828
0.01131989005254904
-0.02746058791436082
-0.028969901864712454
-0.002441244176006073
0.01255598005884973
-0.0013975788246483522
-0.031084413969083003
0.017172371369664038
0.013418263151883872
-0.02884197161993971
0.006276229107105359
-0.1166914593753139
-0.07130874922130775
-0.016654944015360454
0.01713601573000356
0.057277501532584034
-0.026737678180589707
-0.007950916376457073
-0.01440090853453982
0.04825077754070595
0.0058242737287754745
-0.02581636452436203
0.016945555384438715
0.010834246294135187
0.0029606934429046755
-0.00178174435602995
-0.00028616028128189083
0.00040926233793224753
0.003909767550047756
0.14479755350182577
-0.053476840160472675
-0.052296387824309024
0.016948576625570384
-0.01707817706016808
0.05929260960782912
0.029587109604390673
0.010505716954547273
0.01485294988058123
0.004753074451144272
0.010188410218583447
-0.04751493790099407
-0.028531768962758716
0.038718612589744815
0.09901200994650237
-0.05380542960932255
-0.05096908531583467
-0.012305286086669845
0.004545497324498733
-0.02487251622370323
-0.009659189787196714
0.011041591093283289
0.040033584583791526
0.014535446047217989
0.010774028230053162
-0.020036908799071062
0.007224563641947259
-0.06637724524730151
-0.021600654920645466
-0.013684108281212559
-0.005182721873469548
-0.010739422320261083
-0.03449383816999223
0.02711653277463076
0.0015971095487268612
0.008823853751898744
0.011231787917351382
-0.029225202499738083
0.019156897063243812
-0.01235928812944044
0.027943248456832385
0.003950335022834556
-0.07724197521998623
-0.004664285294981931
0.002965583031908832
-0.022926707205527325
-0.008698735222994424
0.013974903173178297
0.05718820672121538
0.019365177878641494
-0.014498529196237628
0.02736623247771836
-0.002613460791478546
0.055468796159303606
0.030845998791772408
-0.007817320689458144
0.03307878897826263
-0.058130245723737234
-0.021921793313866483
-0.010601211758387331
-0.024997445652109297
0.030590146508935236
0.02665000505525146
-0.0043298111312530885
0.025371159127692472
-0.008680809092451907
-0.021076584638129156
-0.025930402374676344
-0.0016682960722170322
-0.0019255465815090046
0.007441212785703514
-0.05266373293518027
-0.014478018532761209
0.041437528468330834
0.022202254237117146
-0.006477127906047348
0.016783827729607154
-0.021520346714833632
0.005573778180928827
0.04066621437870088
0.008648155040959546
-0.0094860691658104
0.031598178665867366
0.015063179192198982
-0.009303763255290816
-0.030071589135366776
0.020267054664914533
-0.007850490193898862
-0.033539114006326386
-0.05917695897927508
-0.03734433335591996
-0.02111301537261448
0.08052468134925364
0.03245493572643354
0.0011478272657348518
0.0191861261566845
-0.017338475498972404
0.0020373939238725203
-0.011658780128527673
-0.03884130462858043
0.08696013469789966
0.024809135559302406
-0.0322384107457857
-0.008588303444341474
-0.03060340796547417
-0.009991703000950043
-0.0015981664335288236
-0.09688495267042334
-0.06176333020488435
-0.011072553968017587
-0.0660761610846963
0.01908997232182135
0.028278616103155827
-0.02840628254414494
0.034791657922979495
0.035963535692735395
-0.01111145431651411
-0.025970433175963446
0.021223035948565824
-0.0186774036945564
0.0026174665707030254
-0.006626447801426435
-0.029197402784195015
-0.026929422768306926
0.006406291602754358
-0.02876464379908865
0.05614168176073987
0.08931491248533158
-0.09959368173878126
0.11744234297314853
0.25192292834501584
0.029297946314769622
-0.010647628657775576
0.01673700991429328
-0.04970696335118334
-0.026826024845087258
-0.002088450275651722
-0.005378462979891928
-0.03448672904398042
0.016004846776108573
0.03712617859001906
-0.0014281617815197678
0.013749248922940181
-0.0030842546422495676
0.0007624882807377644
0.03545557022549727
-0.009185111381517286
0.10577950163453972
0.05197957424351906
-0.08748592611979664
-0.06787908564024389
-0.034205978783952574
-0.006083510924209287
0.04290699894113668
-0.008165317528740017
-0.010474257955744295
-0.07315127593173944
-0.02778750661797861
-0.07257223321061308
-0.046091969507618014
-0.010714016718714834
-0.03366396985142836
-0.009711168084022866
-0.009792025250923445
-0.014479934255553141
0.02108154673033564
-0.0002584386217027545
-0.03736409292176712
0.00371399189116508
0.007091909012666472
0.010390187315539126
0.0205397274059594
-0.010912830170604652
-0.04016596284126299
0.020720557077025532
0.03765410491550522
0.0001836892005718696
0.051882942734573806
-0.00769321936180919
0.009133795732682195
0.02193817257661608
0.03408737363177049
-0.013298294027753553
0.12842835808588435
0.057054739772292834
0.007113976546949304
0.04367823625585006
0.005059853270746633
0.015751417371469154
0.013729287066361161
0.006295395190125448
0.00363164887427394
-0.04851816407851761
0.0019047919494019417
0.03571540114251206
0.003604463570410035
-0.025013048755027616
0.00918089557531176
0.008816587446018317
-0.014616127970494407
-0.007047824144021602
-0.06777662023498543
-0.013695044989945195
0.030030436121398375
-0.04920608284975174
0.026572963793973538
0.02685567467498053
-0.0039808432875035864
0.0031343753671297645
-0.030842094826980197
-0.26252657442731403
-0.020461794130597805
-0.021795674634223806
0.05010732353397014
-0.02549361617170917
-0.0253500681246414
0.019892226551270438
-0.01916249873275851
0.027702807979852802
-0.012447406579425948
-0.041192205179432784
0.057788839716382975
-0.007974026629421198
0.00012519655677010398
-0.08978489831377852
-0.08844436856665294
-0.0004785070005441409
0.006357573164750561
0.013360977271781184
0.021766915307529645
0.07743156787857916
0.006267694574890335
-0.026299791127652017
0.01454759311823936
0.14005061746341893
