0
0.021784203442326535
-0.019265325491169633
0.005209131291298131
0.0223345349450895
0.016068364117036625
0.004153999220446226
0.010019488128439415
0.02704700968775787
-0.010736615718582716
-0.003461300022147857
-0.0034547718086542093
-0.024665907045767866
-0.015086053243602605
-0.013610003823289162
0.03434334700396688
-0.016919087519991795
-0.013526679283008302
-0.003421928788363191
-0.014484944158648108
-0.016219813656525417
0.05133657299744777
0.03398783939985542
0.02582734443249138
-0.026122114180503652
-0.08355981831100452
-0.027167812917584154
0.0064990005884232125
-0.02973848499155557
-0.005039945706486601
0.0021734817563682286
0.06976095807485395
0.016381649620674253
-0.009579220126530478
-0.013468222021365934
-0.0012457486106996704
-0.038383979425721304
-0.05241477386723017
0.0007603245798946586
0.348749294528689
0.13846857587253017
-0.0633407940042829
-0.021089200488629792
-0.023189726788006737
0.022704352082373102
-0.005306135122908995
-0.018364475975260326
-0.007446021495797689
0.01239674918037731
-0.00959601620080144
-0.009328445390668525
-0.058965421212604015
-0.14065537327586664
0.022635162791829845
0.03981014847351696
0.03592996200445458
0.0022914814487465787
-0.021218607487260194
-0.018942342352169236
-0.038345226548541445
0.025310198908006086
-0.015835866743826532
-0.09105534438356704
-0.05012277996467706
-0.01769733142329993
-0.09013263438348848
-0.009121826945634357
0.10491242163460472
-0.019888719650160886
0.024786972870058446
-0.006025246093443426
0.06167409656922716
0.01019691830939584
0.003139147584244985
0.10061434817782279
0.03922736334377565
0.004130171886122819
-0.005102899560069301
-0.005554232625760819
-0.01551155060791638
-0.04894615931631158
0.01293303772456363
0.01097426688850149
0.0021260788967148725
0.023394325940624742
0.008756400137811246
0.005844668213780617
0.009178331732201728
-0.001130817283145029
-0.02318804953926531
-0.007315917644787661
-0.0019183221649394149
-0.009467123625515057
0.011680061296689708
-0.011476861153649359
-0.005400070024584183
0.03703431579030074
-0.031634996568341914
-0.040286074057442604
0.012326382513375141
0.00832345798005864
0.00031535935448758867
0.010804305338779577
-0.0006857519904348721
0.008644059116667838
0.019293292766390687
-0.09789103318140188
-0.05036890273496624
0.004992949309454551
0.010954207360821155
0.01169863632132459
-0.01638226189876351
0.024760219964992915
0.011663994666191611
0.015472415844814132
0.01800760745554844
-0.002346103669010617
0.011813854114874687
-0.0021155276566438112
-0.0024425791363923517
0.0037534972169891673
0.016223757001977267
0.006595424728330493
-0.030458352859634632
-0.004648891098654435
0.05008549789780789
-0.01546820983025611
0.06738446139280753
0.03775230842885534
0.007265466313078918
0.033924105417531034
-0.12173815567510196
-0.021645234833317553
0.00483237637036509
-0.002028444505254814
0.023559069544611514
0.012312519950890501
-0.015664764743594278
0.023597898008491144
0.02741458618985796
-0.042648835887196555
-0.07814481226119331
0.019096261779558355
-0.20531881866042284
-0.10184188811784017
0.016886428366215154
-0.01590802247610809
0.027093372535457756
-0.02858616937923027
0.0005544583243933124
0.023837442652993056
-0.04108112318612816
0.03153971857793275
0.3694212051036621
0.04875868871882922
-0.04321017666675088
0.0041314580425471
0.006823961966884129
0.037549377888440615
-0.011249703469871829
-0.1831352740057475
-0.05060205970843342
0.02390528274043787
0.039783632882334115
0.0204972551486124
0.015692377857838676
-0.008570015515882566
-0.0067260706793916
0.009934663805739602
0.006886312521537173
-0.01068713719162757
-0.0006977985772163353
0.007207629601872681
-0.0077463325362294045
0.018760946326776353
-0.01613129218996832
0.03166317688709957
0.0338517908835106
0.01043957921728415
-0.013872734680960723
0.018859085532857377
-0.09360527419892302
-0.10100395229261096
-0.007087536082936317
0.04353978859647259
0.022399866637802853
0.03855256926220407
0.07774106024546254
0.05082309641961465
0.021289311785752295
0.0166509283695474
0.07100828306769538
0.034214140597481624
-0.02015319163130039
0.03155716326945512
-0.004656161223346219
0.012193749916465246
-0.18563785873188773
-0.14187114815162238
0.028155677405424594
0.005916289649317833
0.023622183386229914
-0.026189181194127286
0.013390735123079707
-0.012343665271823475
0.00018248687167438893
-0.0373784894563578
0.0020679518095087614
-0.015671225111769774
-0.0030113980340070313
-0.016423059636773492
0.042433419068483566
0.027963499090663133
-0.04425659098177441
0.0026906619941307695
0.09910802169922084
-0.012285648550085838
0.007756838999998676
-0.02406265407974907
0.01320661364544258
-0.00490852652496362
0.010445559969487156
0.004324118067330533
0.11681620894854991
0.06247970031980956
-0.014778246438818601
0.0013164564291573773
-0.018394636219382903
-0.00934927530880039
-0.011034825609856205
-0.04918097183241424
-0.04861145217245688
-0.00018435634824052644
0.004526860845995485
0.0014648644713556845
-0.004847362740486813
-0.06300264367908821
-0.01978658731174678
0.12276618823135883
0.05032872381541082
0.025418631125994715
0.025151174519150762
-0.12497199328902663
-0.017015881297295452
-0.009541577168400664
-0.04193769097413952
0.018261587816619303
0.029310034482073897
-0.05821702676876071
-0.060052843932157554
-0.04230458833043332
-0.07826697017718398
0.036953805068719224
-0.02671511948974906
0.03237120385279498
0.0005252331484742139
-0.013663294184202512
-0.013597875503102408
0.04026017928701681
0.0084484732838995
0.035166378734017005
-0.009258504298124458
0.02007232110710194
0.13846210478398596
0.03562989367345446
-0.013013553710672985
0.0007324298051153782
0.016060077893442826
0.027683025119603428
-0.0020483180101616115
0.003785070561318308
-0.04770358416397796
0.02352367998461901
-0.07375558541873013
-0.07422036679485823
0.07295952292264403
0.02105857063495858
0.006460780776034268
-0.051175955664334465
0.016910765515809778
0.08927388774043653
-0.014051400109860803
-0.025080554769479086
0.0016104440765273651
-0.015268564327595895
-0.01203733362223392
0.015533637044758315
0.019005037965766806
-0.07031555722213781
-0.08937880025783507
0.0632722281740711
0.024476666925567776
0.0033472321923287774
0.01783314968513763
-0.0166190664091923
-0.07531790485312892
-0.01232631860729181
-0.011635060688116533
-0.004882076884586409
0.009210049863857152
0.02554355754693623
-0.009819879559356396
-0.05621253304240365
0.046946966035657435
0.05433871666506467
0.04820135375221623
0.04547418054273614
-0.00294408364488535
-0.014558843351250036
-0.023107025772057775
-0.02071396194270563
0.05167058009139733
0.0010003572741435803
-0.015383341935028313
-0.006060628304229645
-0.03294859942756435
-0.012786998144314792
-0.009919711032052669
-0.054270296281933826
-0.008079084490152485
0.02095700815240881
0.008099007571789588
-0.01453817124133385
0.019919053726005987
0.0009746816614072147
-0.02868040421123683
-0.014151113327718574
0.02683493749179113
-0.009595665539193311
-0.012465895472423948
-0.0035764648450689507
0.026847548760338128
0.05467497353749723
0.011770120193144346
-0.019163720607315998
-0.016870201110053936
0.08929542205902985
0.025766106249898352
-0.016039120341408933
-0.030892011966877724
-0.004118155293514952
-0.0028789922265037068
-0.024777707942840975
-0.016906525670500206
-0.0010166840276067002
-0.02108141786593815
-0.02695721613706883
0.00673428548378255
-0.00469411751591188
-0.005903634398696533
0.006624375155401984
-0.017090870975994543
-0.025314221287563037
0.23173107764499795
0.042331146407479175
-0.03759467393988642
0.047375806630521766
-0.009998648646970395
-0.058859793930079646
-0.033070212187859375
0.03643926145781927
0.01601545334259588
0.0013129761592334693
-0.046713219139716225
-0.03422995348651276
-0.021193674727163367
-0.034939873714337724
-0.036342573369607584
-0.036967493846340786
0.0036900211759364103
0.06204002933807589
-0.03184410960749079
0.01757666569549059
0.02220018261099394
-0.014461627391854895
-0.03705702808002527
-0.013556487596257433
0.001136323904165926
-0.006778813726615277
0.06656096693732773
0.0014263610754502271
-0.01636764385926272
-0.004503358585954799
-0.010574400889237489
0.04025458714476374
-0.026198568350146282
0.07579454876204712
0.037658817853103155
-0.03770880470491425
-0.008030663781420868
-0.026639410996681462
-0.010430063930625524
0.021026117475841752
-0.016982830571523576
-0.02579735957389136
-0.04425252150424805
-0.011934798434657222
0.0014656082642240244
-0.007776918089711467
0.020011081783451862
-0.007884389602142099
-0.00497742159000742
0.03197551776508126
0.016364280737140708
0.04654634546447727
0.022705733895961932
-0.005414144394290088
0.002713471231737004
-0.06080597115891143
0.13054057241697953
0.06313766568814325
-0.016378944823686375
-0.005934962018279545
0.009602869957280056
0.006674810264814399
-0.0005573104936134036
-0.03626296658986875
0.009464339333751496
0.027290439625879622
0.011032386214853137
-0.0035187568442608163
0.0010807525455730097
-0.008337559291021562
0.021449507356873558
0.06097447935676454
-0.012504713839091172
0.03319027228189745
-0.29740985712042195
-0.15623986499733347
0.05957757938569986
-0.043533496135725
0.03820503380184071
0.02449450770540717
0.022288167281318782
-0.015172010932875287
0.03389490321733432
0.009171964611665789
0.023907170550255284
0.027852223236823563
0.006159378675406133
-0.08355165146224006
-0.1585103739233175
-0.050793652612468924
-0.03348688677098423
-0.003943044031130031
0.09105345534335359
0.1411571818045111
-0.004207918938248647
0.022953031287666684
-0.008208991226077282
0.015674425448457235
0.02147700055714521
0.042907539303319864
0.050059285801745304
0.02256969822984147
0.003194514674405884
0.03229512835294343
0.01953509849112655
0.008157487900818014
0.05288971577068511
0.02070091644474064
0.012862368631910003
-0.054584818906037336
-0.14716090214282287
-0.059867384607942574
0.09935424511853584
-0.01661918946982678
-0.020320820989666408
-0.020212121879514745
-0.01302845809782834
-0.02482501621553146
-0.018739626157469536
0.0019872033887942983
-0.09975699193842323
-0.01155409538206893
0.04751416992740465
0.03651321756700206
-0.05305163817582592
-0.02400342200131297
0.026258175575537182
0.023221637697246555
0.004463297328552246
0.01192494255186259
0.014356358365794264
0.020426606206633943
0.008695909031667063
-0.001645450651228817
-0.004543626576696507
-0.019643563474598943
-0.03633341286883197
0.11790124740116253
0.05773073956199543
0.035155279941682216
0.09097096437255799
-0.12799059568946586
-0.021567495189827934
-0.0035296422961884457
-0.019419118712087312
0.019015730629957015
-0.022501801402634254
0.008751713373732007
-0.024966098459999937
-0.014138951331777434
0.07186653284650833
0.07909844887456027
0.025477697444252743
-0.00879253774781339
-0.022350008493254938
-0.04837195750727933
-0.022523067040728838
0.00033956448269003203
-0.05173355075552443
-0.0368948865474402
0.003941461450514905
0.006916282544133976
0.006998389559470764
-0.007009248683321922
-0.056683776759598604
-0.026070924064987074
0.016105866140699074
0.002824028903741037
-0.017500623398752684
-0.006180754199602432
0.11462535652237855
-0.009248121646323073
-0.01725983342973338
0.02585571957730888
-0.017372447227313105
-0.04335620930911132
0.022654527598845977
0.0018320194506181665
0.09050955267115253
0.02101965335695208
0.03239761035855663
-0.011361595923306824
-0.019177571227883754
-0.03401156052313868
0.03982496563690334
-0.007565780601177315
-0.03488673676551513
0.04325522226550569
0.014829614318567623
0.002099659167681003
0.032819359636782036
-0.006970282837853724
0.010531824915134044
-0.0012157405662536409
-0.012457501170942301
0.03538993096518018
0.026458956126754623
-0.05194434872490814
-0.1178872209195002
0.01981525701504951
0.027201562742051114
-0.011496274084995189
0.054993807427836626
-0.11582598733026739
-0.20741154776939386
0.019843419603157594
0.001783640375977703
-0.006218188652889067
-0.005030302561440325
0.04286558856356907
-0.006769807145942539
-0.005472463770444992
0.003813784398532204
0.0298390413838951
0.04794188856201354
0.01167450496180709
0.00655994404538366
-0.007898627205654013
-0.02057089251675579
-0.010437685850306598
0.015037168426650736
-0.011760931150929459
0.031002758995185932
0.04690978464572282
0.02265848770140056
0.012127472563140267
0.005809044960703684
-0.004991991831513713
0.0022765001461606312
0.02126949037085359
0.005703915198100165
-0.03127194475644877
-0.020357601553558737
-0.025377641496467956
-0.05024947662866282
0.013045317671010786
-0.006668486504295256
0.014404520921972395
-0.024071526080449906
0.0161356538115821
-0.011216080228115087
0.012722114399505947
0.023939480701434486
-0.01678034488482834
0.007450933512768724
-0.0076723878694699415
0.0031191739080644867
0.005988603286012822
0.014208046177378302
-0.03198823997468519
0.06217594334206263
0.07338721874784676
0.0007324059439340854
-0.03578374086093445
-0.034341085923515195
-0.012541176957731234
0.0565285899244508
0.034721846672505934
-0.009394644607899669
0.062348457175146685
0.011471466727597567
-0.017246851224430097
0.07565252355469367
-0.03279237710775641
-0.033775473892375105
-0.02893855400953572
-0.01953421974327468
0.006018495708382964
-0.004894156876786127
0.009407321476816732
0.0649904668740548
-0.002468891998465566
0.10906496336098825
0.09047866875613314
-0.0011992732062132134
0.058251126296494815
-0.2716689375519609
-0.13197583841987118
0.08915529625520972
-0.005614662888735898
-0.01001788632821854
-0.0029793165590978636
0.014718118160770491
-0.10124753256921021
-0.059494587983082145
0.031161541046867622
0.023287386846359958
0.003061292248468752
0.00495164644054433
0.00835712855717084
0.021506862996101113
0.009196478456302297
0.04876650496274508
0.0017801945089130071
-0.008809006713875378
-0.08788691049874184
-0.12041791438186487
-0.017492370960596682
0.00837812840984702
-0.006153066927539175
0.009288959299417277
0.01170162043667699
0.007167663627882937
-0.01797704656286457
-0.0018873298604777863
0.003197031466634905
0.007151884665725581
-0.0352723379171722
0.08402865881532835
0.1145110605300701
0.004466684174978189
-0.02358449560801729
-0.1592704019783138
-0.0004997914724085355
-0.007568670969358953
-0.01772638680738213
0.029564839665115097
0.08282114991227135
0.024711375354856617
0.03740968958926636
-0.04262902959330052
-0.007175613650629143
0.0026331706945056156
-0.00959793119127646
0.0017599256840578142
-0.03313862263511228
-0.008221128737395167
0.00858132533096598
0.039409565484178115
0.009605606149978128
-0.032643932951965916
0.019085224883780286
-0.01591251838233052
-0.02379161116070382
-0.012815616010663512
-0.015327955287245848
0.02164617694552137
0.1913762960159058
0.039871644732623515
-0.02163373793045275
0.005856911806704747
-0.041315970691418416
-0.0028054605560184085
-0.02287269995202486
-0.007115855026056313
0.02712062469151049
0.017374440183238946
0.03466652989374923
0.007212174415865401
-0.004882650280836232
-0.029182585825363778
-0.02919852642601151
0.0019973409632155483
-0.0031003781088452627
-0.02227286823106353
-0.014670117487373421
-0.0004113599420057343
0.017572092106521543
-0.003670839954623008
-0.012475823877210183
0.02292889066634207
-0.008219275273699537
0.000988462560988098
-0.017776671633777604
0.013682665660964053
-0.023789084626087968
0.009644153089693562
0.0750721541741705
0.040432800561828984
-0.0036778345401396904
0.018707202909854632
-0.004907814323043682
0.0050484398809831025
-0.0970301932468064
-0.033068036284655225
0.06666092850348897
0.01223114514259118
-0.09808871361263682
-0.025234414846085514
0.02943686085543975
-0.010177083178005858
-0.07299608093408302
0.018641966907141407
-0.014663865135417467
-0.0037684164597026164
-0.01193629214339459
-0.011545010828297859
0.0003087002907830276
0.00027465587309889343
-0.027722998390570096
0.033530590884465604
-0.04024831794001613
-0.14375811077395495
0.012579414410132697
0.033613317707052774
0.043267524638145725
0.010115381799047151
0.004158027708807437
-0.0004239914858628043
-0.05235504245005765
0.1719503268479479
0.18675732191327807
-0.019188569410046895
-0.02107785278430855
0.0020982027387281017
0.056150412710131575
0.013503220455855726
-0.0033526957038001147
0.01969520964925257
0.022974662087769368
-0.01316862600042484
0.00890665182831597
-0.04489739221507253
-0.027791462981855843
0.013784212911051195
-0.094046365536639
-0.07046723274089835
0.04347818758331189
-0.012473377772755328
-0.016814570142678308
-0.012803822750563281
0.021645770838267162
-0.008826977861633552
-0.0028706391696044792
0.013532157433754658
0.015196213039456778
-0.00987467519073074
-0.04809781962965619
-0.018700906379517393
0.04489015476976812
0.020893578747800512
-0.07800095164206723
-0.026626652807622248
-0.006405877767897379
0.047755359148255544
-0.017602392963313913
0.008688974080626535
-0.03305441563789014
0.09811242503312849
-0.018310879526266047
-0.01764687198719445
0.23651420925156982
-0.007304927673916505
0.005420172319228659
0.0020628359475352576
-0.02883902180673706
-0.006702966009028426
-0.10594515232960221
-0.04756083114156272
0.044516494558542424
0.023971920317540207
-0.01315889993090826
-0.08169257293144434
0.00903337464782249
-0.06252431966777441
0.019219229956940753
-0.04564019174530055
0.005427287226704081
0.018597863605326746
0.06410852854211774
0.013115593493764309
-0.02257521789595595
-0.05826948737182031
0.023118670084150424
-0.015969504983850413
-0.005603303510910169
0.033923003946876015
-0.010146667388166511
0.03813405417675141
0.052920057174745676
-0.14721581057285932
-0.003642607575453515
0.02417433523316808
-0.02698403136183909
0.015660108806607783
0.025007569133192565
-0.018843039023433043
-0.015746172071198918
0.00505449349687923
-0.07441065521950764
0.03892228477470705
0.02961896923916481
-0.02220202686718507
0.003952872617259158
-0.020000858089031435
-0.0001692092347309598
-0.014437989384052535
0.02443457430002429
-0.006052547475991379
-0.002122250690343427
-0.02534680161005594
0.02989167766893765
0.27313886955989336
0.036896983914386124
-0.044275672897766565
-0.0022691614840802277
-0.021604687957546997
0.022095547316790295
0.09773133165492334
-0.01889440275610567
-0.019902876064068938
0.02073472476312342
-0.004190291264670241
-0.016491168175463568
-0.0533551609242462
-0.011293273677971368
-0.025318213463638623
-0.038908186435334266
0.00768321220720026
0.02183870953463004
-0.004319936034899861
0.026937756279805943
-0.022921347968280516
-0.0012916666635925593
0.035308840670865524
-0.05324653531235878
-0.03265553144797851
0.04302589383289105
0.02591029482533186
0.07818654664364673
-0.20469882311863064
-0.11609465779964571
0.15495737159121586
-0.055988585525994596
-0.027664380263218345
-0.00579499824369944
0.04955508991979509
0.002045269096658001
0.006964603042175682
-0.00466764474552367
-0.015275632041505822
0.005834037372930937
-0.004724325194016263
-0.0039286952636536
0.012876876034962546
0.01563008717686933
-0.013926839339747022
-0.016171432262254485
-0.032119436926119474
-0.014766953970058306
0.0032263629927868115
-0.004603449681241089
-0.003814203006856926
0.01237736800704792
0.002567386687676798
-0.003806466359072735
-0.014959085602781072
-0.04632932178722739
-0.006349094700504926
-0.012504333047183265
0.06601067653209913
0.06454664367251985
0.004479553597628015
0.0309427760262394
0.07774792199020923
0.03477537981024135
-0.0006746608590754916
0.034948271317408214
-0.02015341947581083
-0.05946332647407992
-0.0020794084994851356
0.025274333883539297
-0.029975389769466794
0.01979602808073987
-0.022001482068547417
-0.01178611063979633
0.025740764825674122
-0.0014107832110096421
-0.033264170405860036
0.009521554838487213
-0.036959966136567914
0.013606845990822836
0.047704209383002565
-0.025268381592884394
0.009179415188658354
-0.13203951574414813
-0.0638862640562717
0.0032220550881894997
-0.03713903508064558
-0.04115493159672701
-0.055782727191592975
-0.041529807503605465
-0.024437675969817434
-0.021236003786481997
-0.010175949034433838
-0.02387422171297619
0.043865702743655526
0.22138657840821768
0.044489996808324196
0.015814077964583517
-0.024091825862147545
-0.04251644419362955
0.1659902678970962
0.14229944342653716
-0.053131955115970325
0.12084028796995679
-0.007463155087085407
-0.048736074891346584
-0.03691965344293154
-0.010178575392779237
-0.040223359192472025
-0.019103780711231335
-0.0065999374580395535
-0.030930954318472675
0.05901724394634557
0.08614684268167312
-0.03841757068080132
-0.004129111500434606
-0.06922513218294289
-0.021740225463797794
-0.02406159487067317
0.02390769097274803
-0.0015424908562609036
-0.03603098401145858
-0.05946404578190726
-0.018849223034151045
0.0014047373374345407
0.10784361696676768
0.003226920849258915
-0.02435043424726727
-0.024952860570296994
-0.017676163710810378
-0.04331170873953984
-0.025785954829459595
0.06947347648627561
-0.0045493250090422
-0.04671751838826618
-0.006145816086258746
-0.019427520070205623
-0.01724857690577283
-0.0356289172455001
-0.01961928671816717
-0.05134460719303041
0.031524707354054944
-0.04383064265368991
0.017223037006166744
0.17007760831120802
0.2342126041847988
0.17902554938266496
-0.048841680241350965
-0.00548421057200629
-0.029510320003005835
0.05391674959600052
-0.03451767908589078
-0.019395254601024578
0.0071975397023622805
0.0041007270512069885
-0.003518310075589878
-0.0054027780683890535
-0.015218780077945889
-0.011755799415149152
-0.02843225906752004
-0.10383713124649216
-0.16341360274114336
-0.004548581166722899
0.025662273084055765
-0.10997127862072385
-0.05647015001070633
0.04956769543583853
0.005753827061744489
-0.0060903499813057226
0.018226253177367525
0.07738855180882527
-0.029664329715090955
0.020275492664102415
-0.013529470030414305
0.019230572297124427
0.02452281983699188
0.05148550385559319
-0.05083581894073514
0.009120915682477877
-0.014357450228292625
-0.00873085865543932
-0.0276315656340333
0.04728049269797546
0.02122340084855556
0.011023901910498487
-0.05177010159713543
-0.011516772900136215
0.00391044410096684
-0.0263244385283989
-0.016637229355030814
0.021886192066352138
-0.028210497443561206
0.0003754274494780065
-0.03225244525764583
0.015062790754672314
-0.02758139736896159
-0.012534450983092584
-0.018894265062114904
-0.020355037930215033
-0.016529463105271106
0.004429123915706475
-0.011503902713402675
0.030901949900221232
-0.0757689585964491
0.059052532960392715
0.02998907784432127
-0.03942003924679846
-0.03611410289342456
-0.02874841251538513
-0.0755051012864415
0.049166167757623135
0.1390714471351743
-0.011588547578358227
-0.013588368029538691
-0.030560724442006304
-0.06066413114918121
0.34336758564501374
0.11797762795654644
-0.0880879728789518
-0.0028840989518219263
-0.03598719291784717
-0.029648140787157055
-0.005181664244650925
-0.0013133856384222415
-0.034737557856833946
0.004850254150817397
-0.022959026323303128
-0.05244560649534492
-0.030001656641545044
0.024567442113479904
0.007812447336323466
-0.040925901832907674
-0.04808108938870135
-0.0512774165907753
0.16637148528243328
0.12306808460513534
-0.02650677698436708
0.02904058140965848
-0.01488497599616331
0.12643220700256322
-0.03131684203716114
0.0007577121693816535
-0.007212355892974461
0.04777583106996221
-0.023840629806260463
-0.01694916475730441
-0.011711801459778667
0.07761843053319337
0.1128801940756692
-0.026267828573663665
0.0035137700066188338
0.01648577046546871
-0.024974588882305835
-0.015937601835671028
-0.035941279478803656
-0.041021156071672976
-0.06458130712078516
-0.005087389111411622
-0.011780480878918463
-0.019667869223649093
-0.01802496733602762
-0.001943072998736176
-0.024616127739598717
-0.0349337067746047
0.008377839134325623
-0.018847983991986925
-0.029003970659788228
0.024487119071307434
0.009075021487934909
0.021474035972383846
-0.018213280447987614
-0.003665741584355998
0.006414977852856778
0.020067366160090538
0.009781782872049182
-0.1363382617377693
-0.047332692038939736
0.04037389799495617
-0.014690244807558808
0.02155166119110641
-0.04364235556803822
0.008761849916629575
0.0017010048236162938
0.03231865676865376
-0.034889926899337315
0.002685751958812276
0.028097345804183268
0.030099867881917854
0.02001234554577675
-0.0055216872317533135
-0.020965070339136794
0.02825636401646228
0.0006214277548529823
0.026503766629273277
-0.09178163625614703
-0.07456908203984595
0.044996307798881356
-0.0077169191381253385
0.013806789382358924
-0.004440097131803026
0.04236055136516313
0.02110009045526934
-0.004016438685847675
-0.002006662815678316
-0.01853434597789311
0.005530158340588244
-0.0053189180198520754
0.00596794168130813
0.006740841998048421
0.019793153908204793
-0.01761000076402573
0.02925423394675976
0.005718227450778378
-0.015271422244807983
-0.01236285586827172
0.03317475155220477
-0.026911618018202136
0.0174633151247859
-0.054074158785961994
-0.04994116751430426
0.0012757601711087998
0.01643679934042267
0.06640698051907178
-0.016315758432111093
0.015835147569741977
0.031023477376692848
0.0162947206377384
0.014633752997758142
-0.007823690330903159
0.019451088918378344
0.0303097592976772
-0.005027145245690533
-0.018836044710823806
-0.00707220065015357
-0.010053387192274638
0.023139211867353494
-0.005834561409871222
-0.037642065627954635
-0.015087429136852909
0.04996863338624148
-0.013817306350288413
0.017389687650339755
-0.010449006972970212
-0.004933701242834822
-0.02764194765116822
0.00430512266767029
-0.021679526689874155
-0.015578799250708266
-0.027228096810354686
-0.03174999738489148
-0.0016906179638250794
0.017318407565680732
-0.03462334536720588
-0.016515381760607017
0.012356172139297366
0.016361600725447834
0.10094784894283665
0.06792439391533582
-0.05048923996505222
0.029256015841533197
0.0905452206639216
-0.03289941574251199
-0.034620025493717774
-0.02660084764373571
0.24628251498170425
0.05924284328435029
-0.07170053435034301
0.028540381466342274
-0.010267152994580288
-0.04080485838235958
0.0046007448595989315
-0.00536860595639332
-0.013802136271732938
0.016029464604534537
-0.012876749663126281
-0.0007415941449097221
-0.04448512017038483
-0.004270021797401177
-0.12240680778054969
-0.11858086426463446
0.012226880540786215
-0.016796701241588247
-0.013512267391596328
-0.014610166845352544
0.01953731961094517
0.02631235681145562
0.003237398031501342
-0.03705503108608026
-0.011400752342384588
-0.005295138192603098
-0.016404650045982
-0.04092322843083079
-0.027955028554153098
-0.01985929686560833
-0.01715531311081015
0.0007719342366380241
-0.02733800533092207
-0.010134838496626919
-0.0029838810597241252
-0.030514679372654407
-0.02829417990725477
0.054468860877382196
-0.015262513285469221
-0.00994101105267779
-0.01677305924773156
0.04397802065549468
0.2775212034481798
-0.01697864181790859
-0.09770267889015015
-0.03898482780036369
0.1876416472700113
0.09951601511938567
-0.06805718339564454
-0.0010022826876863143
0.009675187283513492
0.008016737717981184
-0.007965820789511033
0.017709411238998555
0.024196030338456118
-0.058950912881933
-0.07040240300506569
0.11793977283082643
0.06186577306370553
-0.056402184204916675
-0.009430911452097141
0.023761724601088226
-0.003863459414449193
0.04452206356262704
-0.05592213178626415
-0.04884000365872597
0.003911407994278332
-0.015198756271045338
-0.02723396730135441
-0.0033469593017596503
-0.007138995169449252
-0.011261608375119862
-0.022331708826631796
-0.014491476367994208
0.015243280635850617
0.016384042824322372
0.017308730633968872
0.03156978737223518
-0.001976343389632473
-0.017223913676802337
-0.005689692738646676
-0.0032387497880137246
-0.014185913111117367
-0.01215646379379487
-0.030027833511599326
-0.013676507932526909
-0.017873175052499673
-0.03254610851402182
-0.033703236431110804
0.014775776600791771
-0.00020708261026620707
0.11018257612958246
0.035649534145556355
-0.0009284301497061752
-0.007850605378443235
0.02618020783803768
0.017994156965517753
0.01602510144102369
-0.06108618283443574
-0.05185099923284357
0.00992813886396744
-0.07548426765594073
-0.12143812165530062
0.16047415484823008
0.10087930445157953
-0.024998420466447707
0.03367519053381139
0.02042020358513723
-0.04589938134666014
0.025673165996266394
-0.0574825329129351
-0.16488338498608338
0.017188539951716156
-0.0063006958454568185
0.08316277744260654
-0.013744117870655263
-0.01542583877798414
0.036164136454943374
-0.011679307077616493
-0.015577827081261403
0.009122909285975573
0.004746176674756928
0.01797750707248949
0.02395753773200382
-0.04447555143922916
-0.034275075475212545
0.034150612364440655
0.21036232167396424
0.05366751548658118
-0.04861561346010638
0.012043930983710765
-0.047019873557696226
-0.07439312873275454
-0.013958044750568
-0.02034821786997043
0.05197847669085129
0.014681527720591961
-0.02171758241611842
-0.017293158430125848
-0.011090880328077361
-0.01888459875401335
-0.04200282073201922
-0.0008731804982733286
-0.01730499976005685
0.03503437858546907
0.02498574325716033
-0.09438166924691035
0.1643558051218335
0.033260366820887434
-0.06482902839806036
-0.020657190387051473
-0.016481981757811695
0.015352228138271303
-0.017963157005532616
-0.014322555320485668
-0.0036707075867456612
0.009059570918594387
0.012887347858889764
-0.01685645775574927
-0.026933267800029432
0.013308969988217864
4.7465449811252956e-05
0.007575517477032829
-0.009537098988214705
-0.010924487698420336
0.006850581691319532
-0.0484102954367041
-0.018727919856630113
0.004554620782498915
0.0008208724660863894
0.01098653565349315
0.0006659441650385798
0.0252392017786807
0.031506069010454975
0.007306638151299103
0.015434064626303763
0.018637195325550603
0.04677078681671907
0.06134758012267826
-0.07664724036853668
0.0026396804650900816
-0.03973925578366966
0.004409242928889879
0.06531087488764964
-0.024329071731288482
0.03793349794912614
0.045163479995092744
0.008886143267051482
0.0010726144198580946
-0.018215307901600548
0.0020268348356107346
-0.020706851577793412
0.025205666448768285
-0.08206181107409857
-0.07513960925735248
0.02511036950751949
0.007955905365352739
0.009755475497812893
-0.013315984220429906
-0.029627712402085254
0.003044002801299138
0.02213457909527792
-0.001716706256612976
0.008527221837530175
-0.01060268422366427
-0.011539570085330547
0.023988426875678318
-0.009654842044133532
-0.035988462347889535
-0.00039296120784223853
-0.010809446247229619
-0.0010873497213655973
0.012569533640967813
0.004667805490766863
0.014222992063107074
-0.009708898272036432
0.0010405660763154133
0.010543457635219418
-0.008393782155933689
-0.039999332419190424
0.02517161779245563
-0.008451215108711647
0.03495987262785514
0.057617619909020555
0.02177917813418512
0.05380832531605411
0.0030024120269204393
0.025228290795578683
-0.033046148084764734
-0.0017131121508310193
-0.041545811785485984
-0.006910291050092691
-0.023542417513235006
0.017764848992882016
-0.014386259598141169
0.062433491898938626
0.0454788069042174
-0.05229180045959764
-0.0503354198708481
-0.019705571589141352
-0.002013692054540263
0.03459768196362075
-0.04738751142207149
-0.022153884190894767
-0.007985643525410549
-0.03534200999413848
0.022877903893747602
-0.0002748792786533567
-0.035843101078688114
-0.010360479670630354
0.018600389461030965
0.01363539619654698
0.030565911493828972
0.003628870340980565
-0.05510570993617649
-0.04128801554323776
-0.08010051829475143
0.0048813840371696535
0.005521015993752088
-0.03650163701646996
0.03325605323748073
0.026288615465315083
-0.02767830455213091
-0.01903288199147134
0.009092036067366388
-0.036102759864698124
-0.052502504017013396
-0.005544985350517689
0.004735223796281888
-0.005293066973239861
-0.02289098125980982
0.20738333210712423
0.04807531607977445
0.07459934146880859
-0.022181840640424954
-0.03721107934581699
0.02437535734699992
0.03590848331687795
-0.04130736105853578
0.07710638967338784
0.06368189089948302
-0.0613474080373344
-0.024916856387482013
-0.03569440003887065
0.002351023162654505
-0.018314131073753445
-0.04381353648193792
-0.05449520506581219
0.0026277447753484968
-0.020369111699303926
0.07530939065816591
0.30664408201055193
