0
-0.034417348745884126
-0.02267561696773702
-0.06406038867477018
0.15112379205853124
-0.00807515365723007
0.005304528005059873
0.05605673592741018
0.012076990055275436
-0.04727336284784815
0.09738763077303518
0.20768821795790243
-0.03266923002043418
0.00840115642145996
-0.05730949084860565
0.006504841520442067
0.0019308373454248605
-0.08522796214810624
-0.03655272810403794
0.009714314494005378
-0.03222904524854258
-0.02527205194030979
-0.026613207097991025
0.0078850651226436
0.046187798219732804
-0.002769290742177425
-0.025634103778271876
-0.02179228703512098
0.043884612646340596
-0.050338323700397224
-0.02423972278061708
-0.01256740465067617
0.00567104529033021
0.04115339306149757
-0.009587035033845132
-0.011577383724306198
-0.035750928584240046
-0.028025558853257405
-0.04162367194344107
-0.002078620722909153
0.09842298326182446
0.12083228024632324
0.1041960582621847
0.04029188064222128
-0.019802968777288342
0.02593927589004078
-0.05438958128527433
0.04192126385630797
-0.051461635254834714
0.015164058019503057
0.025211870618792875
-0.01736182603745499
-0.014866089289603748
-0.010653533602960771
-0.012517636577302024
-0.0027498019453868275
0.0013672116620762772
0.00939073907299477
-0.061049115841657196
-0.019708039319460014
0.005616872226923499
0.007897996169034353
0.032223455608980246
-0.019123205037904357
0.06879077518356173
-0.004850681176413737
-0.026981370289463034
0.00935022039377926
0.029232549722510482
-0.011263857063517726
-0.04979039925742819
0.01653578948572945
0.000628003412862743
0.0019498098259765875
-0.021388292297607414
-0.009939391992494712
-0.041945427473733504
0.03239384389512213
-0.11377727978290547
-0.05762624818019951
0.046579157571282594
0.0076473156522358105
-0.004214108949123865
0.012721042649000487
-0.004845126076373264
0.009709243844508596
-0.005883055381908275
0.031110196985341735
0.035806626534122414
-0.023213880782118106
-0.03617377819909484
-0.0036212121998583082
0.01685329964851289
-0.018107798692805707
0.005980442758019159
-0.02351192206395954
-0.02844956072864711
0.0069598232640881615
0.006353077478958252
0.023635970184133
0.053824294272783145
0.03172624899144509
-0.0139505249793794
-0.011604416893920909
0.02199550934505179
-0.015733771810030377
-0.000727965778324235
0.0573106754625627
0.00416294486863759
-0.027569464524161123
0.022696027910449643
0.04641330609145435
0.02502840463996953
0.011924259332658945
0.016448138970622757
-0.03839611671487053
-0.024278004019118133
0.0055904847151185735
-0.03995362222587397
-0.026399518690868883
-0.12300057229359833
-0.12319457152169751
0.027794604186244583
0.02574327803581154
-0.0038690030174720865
-0.008359506487188624
0.014938125859384232
0.010121851473190866
0.015109927972697697
-0.012435442779532896
-0.00395954258541272
0.04763940709749584
0.03754369339411746
0.06763133661677699
0.09240154642631462
0.016461944261710715
-0.005800165972819639
0.040984724463023016
0.017019954703434495
-0.03288800167197008
-0.05334101029764031
0.0016854324426730783
-0.0323405830790979
0.009295508172259452
0.007607950069061212
0.010624271214076551
0.018038768908081544
-0.028705459033788152
-0.044221786984878886
0.021069372777098527
0.03904299648997226
0.02436436470137973
-0.04229600534066666
-0.010379279499204766
-0.0206257695391906
0.002036670056304893
0.003919191482748706
0.010433941081710215
-0.02428505511280123
0.004237708307310407
-0.004531183088780344
0.05385234518340918
-0.01364050754709927
0.024462912156736356
-0.002708129537590623
-0.009971126509526472
-0.023416344033415255
0.00305671075019546
0.016291190030086188
0.027147654001822504
-0.19585770417729756
-0.1931093733672524
0.020793630009805712
0.0575083126026693
0.3099403335154991
0.024998035997768488
-0.014738391826675882
-0.008549765024347346
-0.06327233814878522
-0.02750378739875048
0.047720690427694536
0.10363810334394656
-0.015748441068745615
-0.007602865231254177
-0.028630345398788285
-0.07073533129622055
0.01415446285438256
-0.0483116364402424
0.010319949538556264
0.018837110281020926
-0.009425468217736361
-0.025620233283174514
-0.013434001250934335
0.011090423099386734
-0.03898564160376968
0.0006559657621825761
-0.05611377793443275
-0.016627107673140053
0.016724159207307823
-0.062028809427913015
-0.004985861001988744
0.1560427740968755
0.04661605480735897
-0.027752908946580515
-0.0005037791941943327
-0.0697118450628821
-0.0012444260917522827
0.1207830326594804
-0.047657225938798155
-0.08205529998981366
0.007153194847348347
-0.023007586332329102
-0.008438287234634646
-0.013102925339725053
0.03821728533059174
0.006213126536606316
0.013667664819180135
0.011820265601543483
0.03050131579816618
-0.0019881631835038166
-0.026378730538635375
0.010545205986297598
0.032314391754806306
0.012438829277174657
-0.020245230815559217
-0.021944932735415007
-0.015343442811852043
0.01737030837588077
0.03983887414112172
-0.015617692058579841
-0.017450369061958515
-0.0072061030452593945
0.003370630450137924
-0.02693387324707982
0.010374869374812055
-0.012463731694291253
0.030244554064861685
0.00036530778391075374
0.014715628884600623
0.02757575324193111
0.0787184176528567
-0.010488231214810967
-0.028844334468229572
-0.020333783654834965
-0.0041980049948496774
0.004860328303459082
0.015974872926795506
0.0171781173566798
0.0003625828390167262
-0.030313490706178982
0.07440440986577684
0.029414090281585144
0.0040248698989090005
-0.01208040435325508
0.009268236464596295
-0.007217172634271301
0.034314485748233016
0.00014560273476925715
0.06395464259590379
-0.03932808219935809
0.01557338414139702
-0.020615052556310947
-0.018664478245722024
-0.13587283888795498
-0.22019903922252176
0.057993749736908455
-0.006541510248504777
0.08249798713932135
-0.01772869730785095
0.002982821476021815
-0.03653804856484186
0.01568264088221784
6.0462952578349064e-05
-0.05505124233432531
-0.00516591920027214
-0.005131476567720831
-0.017101764363625243
-0.011320177594698255
0.003270866909446527
-0.020083527590643944
0.04793008910342715
0.10875815256049894
0.05831341788768601
0.11246698331202304
-0.14477159572715173
-0.012417307695067827
0.15685689500611721
-0.07232795381237461
-0.02054598873709022
0.0001993418469762982
-0.014007080500369366
-0.0188392580142568
0.01848478711625576
0.012326399722641691
0.020171027920258534
-0.03441007325938097
-0.022221402743069982
0.014780536136780148
0.017956380043727762
-0.004320259313143079
-0.007320349875471485
0.037881697597990566
-0.002823675390773803
-0.01633196665483481
-0.0025373764097526954
0.039325375828503394
0.010238409983872316
0.01127805250989241
-0.013739707682892604
-0.008205342010290483
0.0003020552409632814
0.005214739557379992
0.027260938040733554
0.012693512663980602
-0.0015941689722150305
-0.07699235939544756
0.023535169729082782
0.034107957104792294
0.05794688580529193
0.019483252757183333
-0.015086849351260402
-0.00738193571431395
-0.07023940206647741
-0.011541708569345131
0.02894995427697331
0.018250110839011888
-0.014132769071888068
-0.023235575832061883
0.03499436642075785
0.06980581190630358
-0.05739211515482452
-0.09879720593262026
0.041711239220650426
-0.10887012175790664
-0.24589314175705002
-0.025800985716808736
0.004515018276725056
-0.004272423291224617
0.028002068801823328
0.03814358350547492
0.017849973059507
-0.009424511768089007
-0.0007761235659553994
-0.0017863282359999076
-0.02070683755534711
0.015458468167794576
0.027711183846961737
-0.03315802638285358
0.10873877483987443
0.13412362502081665
-0.007235999287514386
0.019042943510539773
0.018941849377026324
-0.00923067243475687
-0.051280344066270744
-0.05220482855816785
0.005651624844470894
-0.033362185513810164
0.01919187811169582
0.08424277404846338
-0.009232190503049903
-0.024876659161051005
-0.0055013675743624335
-0.02044983080941599
-0.011249163218188935
-0.02444061557917338
0.0010880509415409087
-0.010706394042575531
-0.055516646212592516
0.03458976693727965
0.22386985362705977
-0.015799522282543797
-0.0038028225318726253
-0.030573458816938803
-0.01999545594966228
-0.02272786206910854
-0.03409638140409156
-0.05344235467966798
0.0941163495347264
0.15480864745100248
-0.050797166031865564
-0.05618426169887854
-0.03870596828362376
-0.015375278169331742
0.03390537648782612
0.08765136261955729
0.030213161378352612
0.006201213988841735
-0.06110184334833915
0.014363819048410048
0.0481043777648099
-0.0017971774483943339
-0.007295019118482794
-0.004537542017280939
-0.05272504825576049
-0.03263601948797375
-0.024067455406208475
-0.0675945333515256
0.02469967954650614
0.05539658648955946
0.02667808498589079
0.02322822957125203
0.018871562204447346
0.038518256566125536
-0.02847027599307243
0.00276770867603414
0.015718450267114506
0.02665935860505556
0.01755654713648288
-0.016262756750446566
-0.02824856254033385
0.01554985986942388
-0.012823600824752564
0.0003243938550521822
0.00015115539549228412
0.04413237248147384
-0.008898057350672395
0.01017207015721958
-0.14972442936395772
-0.051710424701672676
0.044629932652658855
0.00016696490320115153
0.03495832722351633
0.007825228929162766
-0.010681933598706183
0.01880551340960513
-0.021198675372112098
0.009243268779773684
-0.0610679864237326
-0.11919210893435889
-0.025273419411681274
0.0002194680774829053
0.009639908689399117
0.028519847845414975
0.05246319429494022
-0.03281224179713968
0.023221451590127562
0.027696986041743827
-0.020556279017644664
-0.07080725927415654
-0.01199386448396208
0.020534029154499138
-0.07071114712009752
-0.04885789400708781
0.025543496304037714
0.014013200299368455
0.010742891308348492
-0.025434549228438404
-0.0031420985595308026
-0.0250816905304989
-0.005592473789993122
-0.00798346016229649
0.002082452822509151
-0.015497536952662828
0.010363099925569535
0.03889199424318572
0.030419434650347632
-0.023118725713267573
-0.04724485934198769
-0.05936323301837593
0.16914122303530757
0.21722534720862352
-0.022044962691151842
0.10853019430856323
-0.01954094850008925
-0.003429647121416695
-0.03366574907188352
-0.041901600486054964
-0.019856011090845057
-0.007347687214195842
-0.023236081778750105
0.029174138808445396
0.06333308238270706
-0.008963664390614188
0.0003533407596255837
-0.025187969311570173
0.0064260920807040775
0.05589895945137473
-0.02492686930367365
-0.055025226768140346
-0.0392858593027114
0.025583947064577145
0.0017145214579153542
-0.01769831795087228
-0.021684814579958484
-0.01703419304398913
0.006386384674547453
0.06946750975431741
-0.011364541129309055
-0.030461820941866405
0.038914567804047145
-0.03759821321052309
-0.03702862352296192
0.015651440300148728
0.008248399249625657
0.0599443888515442
0.049958621916920506
-0.0017747616924785432
0.019690556321598728
0.018187117144334183
-0.085119289252708
-0.0001958636690403448
0.04583553442345235
0.00941929919411145
0.010721876810468944
0.058258774271541226
-0.007537330493482791
-0.07739367991365458
0.02492974914793256
0.007141052043498515
-0.11071290729843625
-0.047241583529516185
-0.006949923156592556
-0.02039400436158596
0.03151492867172071
-0.01082954418888093
-0.02355327370145483
-0.01534598454371146
-0.010012380492358584
0.001284721062895028
-0.013273324346100984
0.009363581817166447
-0.0020627360374090415
0.005106513674857974
0.017124470045631508
0.00010780959932322127
-0.0018758870373649509
-0.02690376526019241
-0.04624249616236387
-0.01118020250500894
-0.012120392692470484
0.027443344054170135
0.0636149413856147
0.017086906608236738
0.027995650622058398
0.0004732851971198094
-0.012719829316132306
0.018011463360021646
-0.05531629838992745
-0.04316563590559907
0.006340434955899333
0.011276885565331496
0.007081443628575037
0.0006556028457499195
0.017079897889137975
0.03995329662084049
0.0355241736786865
-0.02516824417279677
0.17431891686218226
0.13020791880824842
-0.15472314683936986
-0.05248861181804831
0.048737466812756744
0.010146678567264127
-0.008890367110024226
-0.07657722553167018
-0.0696685837461742
0.06410963305228858
-0.00993140630494599
-0.006091894052328622
-0.06309109598113494
-0.026378220165876112
-0.010785278848225872
-0.015326384627921172
0.0026313269986019904
0.0209699177459776
0.052923960691209006
0.005904787841253685
-0.04147620540077523
0.02549881067397483
-0.06531883641651247
0.054110254262383604
0.13649160706510166
-0.10007571614559349
-0.013954541821518614
0.016965007475549916
0.020749920250281016
-0.017387758077731012
0.01989514677353641
-0.0052536149513854975
-0.005273446540654177
0.010505723958266402
-0.012841617112907088
0.008338640093827778
0.029777736814848143
0.02989884127040597
0.031983155273046654
-0.037753843572892326
0.0002613233720388176
-0.030807484315989637
-0.043302606340976234
-0.01911122999990284
-0.0065257728704082385
-0.026304108153515488
0.018824107398470007
-0.04340004917802952
0.0015891128506663795
-0.015339313304944315
-0.012869129411343376
0.0028717101821640603
0.02405414159550384
-0.031217868709822634
-0.06037673531719638
0.004972664750459721
9.342484304981045e-05
0.01819990510617953
0.031758463626574314
0.04118222411010199
0.12839545876939198
0.1335121404605613
-0.0007707482013158713
-0.05017009897121779
-0.0018154222459389655
0.01573889357167347
0.05913573559325601
-0.013728180389032183
-0.09198067421857399
0.0035849067503760214
0.010284073248633412
0.06334785889436421
0.008561206752709919
-0.007774023121851955
-0.0059876015179389334
0.005003225911918387
0.0034133614912165394
-0.00031759206547776015
-0.08641069793577888
0.02675615821443949
-0.17570156902362913
-0.11760596677797379
0.05299598846965875
-0.08343949057436884
-0.0368765416998053
-0.007862655430519831
-0.024247817017299254
1.043522313532285e-05
-0.023268886528931592
-0.02029340123410224
0.02212201452872691
-0.016846645560231098
0.24105488127652192
0.047636417565569335
-0.05830297860521294
-0.05842853629940808
-0.09113782743084611
-0.026731702477222223
-0.01934028211479365
0.028236987429715133
0.013627748267726347
-0.003609764565729448
0.01151490965548235
-0.12478943218172273
0.0962675037070874
0.19045914806777808
-0.04534188178466645
0.00804430079067505
0.025095561786886517
0.006210282139203515
0.09703862230337994
0.11584401554244762
0.006906140739922825
-0.021141527555456993
-0.00720011330677134
0.0566845566899793
0.009549657919915137
-0.011306787194269623
-0.033535490602686
-0.004042823000371674
-0.023133860416039105
0.01726914555952092
-0.030025302523548975
-0.035620410705705007
-0.017225111724532734
0.026762783573634968
-0.014228258991251873
0.028923070900120855
-0.0038064080583641788
0.10864292294660442
-0.06686187402248342
-0.10894441369441242
-0.012381635736648555
-0.06630670402834542
0.028921999381248814
0.0007858043536800292
-0.007252227353622428
-0.03521542477228223
-0.00801875715346271
-0.022370039439375787
-0.07259309772805937
-0.009173714878192137
0.026862682104131758
-0.01797965577244465
0.01854548791442012
-0.0587887258599318
0.023881466482025673
0.05468390345094791
0.08139350717371961
-0.03233729136513572
0.09100645488258198
0.015774769582416054
0.05284108377140376
0.08657163095311739
-0.03354553896800356
0.009262794637286497
-0.019840491907505003
0.03290583736709716
-0.007089859488240278
-0.01647875923910763
-0.009248285653019613
0.05227749382961796
-0.05893005637032449
-0.017729107604618616
0.07570343073198868
-0.024646174341465103
-0.014141295826486901
-0.01135756389176878
0.04010330702102291
0.03781606602216428
-0.07689638611056186
-0.07879381443966367
-0.013468009162943164
-0.03813967053797012
0.01789654565379944
-0.09779747166395635
1.926197479363938e-05
-0.01733567678905689
-0.01137121656102796
-0.04543825171976827
0.1286829696492147
0.051594007619680936
-0.040834627504999985
0.012534034920973188
0.06404230849138808
-0.004241782485865511
-0.003728155862773137
-0.0442689849184504
-0.015441135544994555
-0.019810626660257433
0.01356020194925986
-0.03361909896340435
0.05170437548662005
-0.1570030890905669
-0.17684147027753608
0.04076797105077348
0.018788404483288702
0.014604785704237884
0.015412382802504194
0.005319446067031698
0.07593863054916268
0.1581898485196944
-0.0072574799674970155
0.014337012136492876
0.01329610723199873
-0.029884508912301846
-0.006382217246308238
0.0007790382922170937
0.044806046001635166
0.02823810643232336
0.008451143177584379
-0.07962593048886646
-0.056126451211551506
-0.03587274147682468
-0.14275256727934418
0.010734109944297883
0.016484473656024817
-0.002564693852978353
0.028302282636164723
0.03881174801943132
-0.04723178530384345
0.03690084229719238
-0.018779358099190093
-0.0025957365841155376
-0.04055353839129436
0.05784779903625787
0.06693403378143899
0.06296484685696814
-0.019216864103317258
-0.018739681609633043
0.15204847505993288
0.1095558954367005
-0.06577177784550223
0.032046736047038574
0.084025547509915
0.031854172233005046
-0.05127420698011491
-0.003377326073017264
0.01143883727547859
0.0015008963024861852
0.007564402224859699
0.021593002285531317
0.023954839298960237
-0.013280543606134492
-0.08879853297570837
-0.01353484733286138
-0.010565488703731736
0.04843464985366615
-0.016113020937264844
-0.00587604444304918
-0.009123597513514308
0.031494646446355
-0.11035717013520181
-0.050666617334030044
-0.08658616475085536
-0.0015943614523001189
0.007415574495191725
0.011423611882721897
0.015148460745915212
0.021820548614626678
0.042474397906939666
-0.013680603679934854
0.042880738396508224
-0.06407891736324486
-0.08095030245908051
0.0289575367588125
-0.03931474994263654
-0.020791954572925493
0.033615329764058205
-0.01880048630375462
-0.0001272115932328076
-0.013314114733461372
-0.007976381158656487
0.0049828896804313015
0.023446570948434643
0.016860539060403707
-0.00012022063505944013
0.025357500095584493
-0.013241612808650799
-0.007276925828014182
0.006331430134815459
0.007957299993364687
0.019215114943799728
-0.004531825453517628
0.054710696223329934
0.025052817599029165
0.02492162719134513
0.013942175977755362
-0.060506642782700196
-0.011553280862557466
-0.029470989250719497
0.008915385599920295
0.003613254561540442
0.01688943862256682
-0.0034367739702222517
0.0011679603056888902
0.03249081309641291
0.024552751904291483
-0.00043733584964901625
0.01793607428447003
-0.057215177217760316
0.024680982464359305
0.006191799074828927
-0.025179296140573442
0.024300933076899203
0.012788942583192953
-0.04823110644368915
-0.16721928218378668
-0.02125878961036382
3.8138210353068915e-06
-0.012099820788988011
0.004133582746861301
0.024759767266710968
0.02481975373006356
0.028245412850232056
-0.08638144830583898
-0.04417701964036605
0.02007295477461879
0.01781888267148696
0.0035357025875574918
0.013175389889063372
0.0337780207208859
-0.033175986265467604
-0.02922556328412248
0.048646722882876296
0.03759807198400874
0.014406749030991511
-0.021307205027720433
0.006294691809702232
-0.0012892965477145487
-0.023824639707229242
0.013340923749321948
-0.00747252044730165
0.03326363003554825
0.013256739039892888
-0.01597769755400684
0.009851640361947894
0.00964643564762242
-0.01300295868738959
-0.0009672313136520519
0.031694722454768356
-0.042583197097703494
0.03045853176857371
0.11667052454839204
0.17296522566172592
0.015397623654002122
-0.024482859851600335
0.019499644608502825
-0.019839302529452603
0.10321599562554588
0.022529286754532647
-0.0161137250371895
0.00036334591237269497
0.009814688377378193
-0.03788769906624501
0.007391759702863986
-0.02909376459669913
-0.011069028419961019
-0.06817305542592829
-0.20969806953762637
0.012929225322171193
-0.027876987683114016
-0.023080570378686067
-0.01022349685462929
0.029442354336369332
0.08362362321575326
-0.015771170836857553
-0.020403285555308646
0.0009468871355217453
0.044680569317143586
-0.009471271622914295
-0.011527924484475508
-0.030018097645579906
-0.026307632628042695
-0.016299885116896676
0.015204669394137987
0.005343446601223323
-0.021907678025728586
-0.03489547724339147
-0.021664383571636338
0.013147764586874692
0.0018143100209711467
-0.0007775381330238929
-0.0033438086649854484
-0.022977446373980755
-0.011593603449930502
0.024788724857672615
0.18226173624503914
0.028517133825881936
0.018940754797231178
-0.19285340039722995
-0.050499266358257605
0.017954085278372743
0.00011388039572880529
-0.003304228602134123
-0.025454566588988065
-0.013434224058076965
0.03730470582709076
0.12539921682065922
0.10865891005409843
-0.09598809787915946
-0.2638514367516094
-0.0023654357280141385
-0.018386570670253358
0.005297274009848514
0.017298638033295795
-0.006960216143940865
0.0013930393128333363
-0.04512942906155073
0.001960265920441758
0.09752785505883242
0.0628250164516699
-0.057631672985733615
0.1211778375613267
0.2091251640820705
-0.11636625199679922
0.010538559145364569
0.03111038867342586
-0.0010088422566082642
-0.03659599988631595
0.013832564717487898
0.001405081002515159
0.002808661200376505
-0.0041048102686249595
0.017688202533014303
0.02278595774842354
-0.02243093012049981
-0.012006977248891063
-0.0026292223591405464
-0.014463273700076409
-0.0012912908637234518
0.0018009342625639065
-0.016522276097531294
-0.01689810072865475
0.006960383540228968
0.010535369389266162
0.07654288227762894
0.04380654006741479
-0.008359477418638845
0.036240366572781874
-0.02681916642251101
-0.06858013895500979
-0.03487187715231661
0.055539583408007326
0.027888218597961357
-0.02143687679717757
-0.035706558630631484
-0.04976849166591697
-0.0014472781125049866
-0.03753136340055065
-0.06240259666617881
-0.016854719479780424
0.004090192893126913
0.020189491613672044
0.018024512984183685
-0.026430760094379706
0.05738137246981161
0.01811617121888575
-0.03142072192977134
0.019865165416783633
-0.021831150263303827
0.01327739129781245
0.025809883604565327
-0.02884468979860648
-0.005631426727700908
0.03627495741788475
-0.004261552490386413
0.10301909183248958
0.04808394658115738
-0.005699081823091799
0.0037278796747715823
-0.13588678625811212
-0.03115077741096173
-0.029417102921208187
-0.0451864134712683
-0.029058739182689884
0.0013565256147317413
0.036319580357069794
0.0977410240886934
0.06288165156953411
-0.028827343964432497
-0.24901547908381924
0.005218982875764537
-0.06685545471078415
0.11169390392934948
0.21175915934210798
0.015735653707304655
0.017597550602465435
0.02014322123262062
-0.024221902189561238
0.01965636443000577
-0.1247219903094188
-0.09137977538894543
0.026454208707601123
-0.04414512481623974
0.03870835674477161
0.004723051947879099
-0.02966634225348801
-0.013136197747010449
0.02099801541178265
-0.006916945148157952
-0.01829211033130953
-0.012951849802312126
-0.029460179904662834
-0.03846101428311078
-0.006144215465754157
0.07412527959274039
-0.005337161477130596
0.03563502448628855
0.025478408477422426
-0.008517553153784963
-0.02346526443215426
0.00023662515063200103
-0.03606262689219772
-0.034600142816186015
0.009667127332871698
0.041924247267900096
-0.052521546389477106
0.07333937978926708
0.10702267216049877
-0.04782776102355377
0.09111215820100349
0.047919791322923934
-0.006232701556821655
0.00930678725063448
0.02827787180234261
-0.03627279158708658
-0.025926080483507054
0.06152734167816189
-0.06443489447215552
-0.062333409863303005
0.03867718686408194
-0.01239190133954178
-0.019195787199766317
-0.032825562976689884
0.020921662212439112
-0.02102287777888472
0.0458794807119077
0.02770261405855964
-0.03172208302552226
-0.16206296980677132
-0.005386825614242767
0.004668844116836609
0.2415702749462432
0.09801462136294462
-0.051863727648968544
0.00772534211750021
-0.05840011602153013
-0.00246133292668346
0.015111992332873508
0.022017086221010132
0.005653946812712103
0.006803351580903567
0.005269751747264004
-0.0003085258412169781
-0.013042319704703965
-0.05402555420999911
-0.008242227888050251
0.032416919848335425
-0.021691608177658184
0.023877087035255318
-0.045909998163041366
0.009235534968576644
0.024458836022230236
0.003366609004153037
0.009892632259383635
-0.05340851136484981
0.019385166181460176
0.03459685600520643
-0.030802047452461002
-0.03060212765669257
-0.03677101467438826
-0.013291252271993603
-0.019704011915627092
-0.002634251080166285
0.00693577671761493
0.025806018848591523
0.0031087973445360585
-0.013756318042676546
-0.010050416911694553
-0.031033176543954325
0.002632746120231171
-0.015189220132784413
0.01362821369087762
0.0002829823560786006
0.0014612897086379664
-0.005420774071469577
0.037794725151891015
0.015046281753963692
-0.02898133279077863
-0.033486722564926116
0.03032135737267027
-0.025781559282967107
-0.027277569137732723
0.029591909372238295
0.020891937962721912
-0.039409271528258065
0.03197247943887985
0.11288684131702316
0.051511860469055384
-0.07727476753529056
-0.06995314532590344
-0.08467539996984363
-0.029999925478662506
-0.04416125785350528
0.012081712649339238
-0.006815469288964995
0.10627884043795639
0.0503762233114652
-0.02518870158596353
0.04304171726821603
-0.018852120684355798
0.03548399087828892
0.024317674263345825
0.0020277831995173575
0.005229634189868548
0.0365980210911898
0.009169295743329855
-0.045635680236816537
-0.06772337211812259
0.02806623308397343
0.025158704497880224
-0.029621868486178354
-0.05156209033858248
-0.0166402887186599
0.013985115878751848
-0.0168558367947713
-0.044674195998640205
-0.046193256643027605
0.0212848660216389
0.0208834840601173
-0.02600604955305587
0.008367512998180518
0.005710229414722488
-0.006520352806969022
-0.007057897543062732
0.04324410290991818
0.10387569551020649
0.005990221178615545
0.030366432171341783
0.02987924483588455
-0.04780108303560532
0.032424764852187454
0.0041529002884743834
0.032836335266285065
-0.01740316718575557
0.06280022675084196
0.03714806206342272
-0.016689895962471363
-0.11658156502938806
-0.006459695638655424
0.034262414443153984
-0.0060934746705108645
-0.03315951441657432
-0.031034493550680185
-0.029928418329287994
0.03280774244340658
-0.007486289411416859
0.016035788739008676
0.013024257254658477
-0.012508764513032384
-0.031784043218860664
-0.02101618902418954
-0.014312646591037613
0.07771736183200117
0.09367371260604664
-0.08195838600043195
-0.02956332466823001
-0.0023849703302227824
0.08010906864776335
0.0006150444538787883
-0.041688682308764186
-0.0029027303060915324
0.016286455561753486
-0.002085523404749569
-0.13419834559529328
-0.07245360870262824
0.020713507858580144
-0.015064959051104797
0.0337012460811499
0.032723181540146945
-0.008605973580079106
0.01919768470262018
0.005562119755235768
0.02064024957091537
0.030028605387917413
-0.007976501020012614
0.0051562514399527345
-0.014393365435625778
0.004170586717465402
-0.041792286864383923
0.025648597990136874
0.08597847884199032
-0.011671225723531372
0.01735514064418498
-0.00653778215858004
-0.01781210917865277
-0.016676331522051648
-0.002789790359660262
0.025005003533488175
0.02463462934857715
-0.025782808274442147
-0.060365227454993294
0.05678055477659935
0.039706501657558096
-0.004579702750294492
-0.00685191184264413
0.0016505873393824492
0.018398109478001055
-0.013406162045486327
0.011361934813422995
0.04625022869056969
0.022440622028497014
0.0018978461026204763
0.02136622315052101
-0.0205011948829149
-0.02195636380675346
-0.01089922892915805
-0.021709005593604176
-0.039561851196793646
0.02975854040397605
0.047490340358458914
0.013965609542218333
-0.020129977882828845
-0.004186113216919577
-0.07159485281423794
-0.06936086132858979
0.0293125069775673
-0.011242236932335179
0.010455894091629404
-0.002655298846584263
0.022134149619428896
0.0408468640288778
0.04043930970275292
-0.011549675059455387
-0.008615319527360152
0.01672264186422605
-0.052797006294344334
0.0025259751949237266
-0.02304585785171637
-0.03452178372968746
0.014129948675234847
-0.004164599234746489
-0.006108238640077912
-0.01873867279312041
0.025856348540544773
-0.06751008086952952
-0.03858513505674375
0.028164929352756118
-0.005771033343477023
-0.014794940175082223
-0.09772724448437199
-0.08174258662437905
0.0064937721162125475
-0.012026587072327937
-0.003156240591664189
0.020729381946048737
0.08575228372049612
0.0012360633119540445
0.0824167685265402
0.11677173544229875
-0.04094373230300241
-0.037039456757702226
-0.022149723971171726
0.031477513282899855
-0.002684546446248863
0.024848014882173527
-0.01818951372747345
0.0001986099208531101
0.020587594274007425
0.0021953702428753937
0.01430457715729368
-0.017596089852232273
-0.10401112582233772
-0.027802019008543212
-0.015722164821023867
-0.021617145931566068
0.02568424215705858
-0.0552895097364204
0.017336799161720845
-0.05408433109108243
0.18995389463789336
0.1611729153070514
-0.0634003564342999
0.04403279477208842
-0.002792678644467894
-0.012759141034400455
-0.019003044370759017
0.021538898997542775
-0.0032690683384207333
0.01112008526427279
-0.04493975577727988
0.012044697000905411
-0.0368637984770988
-0.0003738847320777851
0.11128602533868386
0.002517856480341269
-0.023644611881380895
0.03187343363852619
-0.015315859822225011
-0.00962865787383155
-0.02715131386992832
0.01812049791498758
-0.03513911884317126
-0.051339778486233924
0.007571966782947083
0.01237301260635103
-0.012366806134495822
0.010628095773969077
-0.01185757018346164
0.036928156718607545
0.0056186896856163775
-0.030089388630992236
0.023652712498221613
0.017580341565038477
-0.06380532182621446
-0.007708109658036381
-0.04250622120523887
0.10426274966700726
0.0036350494256155662
-0.005887262997114307
0.02785299078629212
-0.020481933120597005
-0.032810091714228835
0.013068502591047661
0.04548100754757504
-0.0004434014221113942
0.00026160863369493787
0.024988833388611773
0.005505561240040534
0.018154419010791352
-0.007033106412967658
-0.021966681746608714
0.007610376364148598
0.006391117050514915
0.05552032369937512
0.01526411039430881
-0.03573914327116506
-0.12186445381927187
-0.024185546518302087
-0.0066165319380047565
-0.030167140170131074
-0.06563924277491312
-0.01566450581826206
0.03589247191698327
0.04331280976075222
-0.021851567829970622
-0.011166617523196195
0.017245429250487457
-0.038084527653955855
0.19570607110014715
0.027007736732214474
-0.05893224653252039
0.029569689151664753
-0.03777560857781484
-0.027270720991798725
-0.021751528263908266
0.005566621727102537
-0.05545591442541233
-0.008247360616427522
-0.03132466850376995
-0.015053719416318445
0.04890915176317114
0.01365222649225484
-0.008441648512514922
-0.011187587828250408
-0.004813210029695914
-0.05518089015452891
-0.030927001411961277
-0.006591601543045549
-0.0026527026872943615
0.026316688459982845
-0.02323740417586212
-0.05021270445830453
0.049728360826376335
0.09816984045280956
-0.029301166401689012
0.0049232603225995535
-0.155346186877032
-0.11722852983062448
0.11984688952999159
0.021231880577351477
0.11858500052474583
0.10544871065467588
-0.007620179519569313
0.016446211043569966
0.005235045130796883
-0.002777666946701808
0.03286933127464752
-0.015029570178518479
-0.00014841777343309537
0.0011170086785259152
0.025354685440162943
0.03272797459500739
-0.025419040290297814
0.04189373197056231
-0.08503370578558594
-0.11263439017766279
0.08606648157878659
0.03082117244347524
-0.015075720697980173
-0.04993845711132748
-0.02321051612147646
0.012034211202834554
0.03127276215490431
-0.007763325995023268
-0.02744467563799965
0.013608624399848938
0.020609053164707018
0.02585049134019473
0.0037622478476167474
-0.005893347596048278
-0.028157416919821234
0.021281926303612978
0.04076834994620241
0.009857730360136886
-0.021589530098014797
0.0008755981438355803
0.047584530044261435
-0.021099758175043705
-0.020541082744331956
0.025936166694557113
0.014426457581136249
-0.02267940640079857
-0.004819384377816544
-0.003501355599266838
0.001341507720080399
-0.04502173803605269
0.0015384209294192327
-0.009162208563232561
0.02126949477458923
-0.0018019996524726142
0.007278314378597696
-0.04647418544289317
-0.08307407911470602
0.0024703534348304123
-0.00022788941872244729
0.01112739567427803
-0.008677388330293023
0.02158794421745337
0.009054942524391435
-0.015330060947939896
-0.010906322437513355
0.02692379220295498
-0.008768573406476129
-0.009041333243027817
0.013193634733163965
0.0680833150215474
-0.048197064741645465
-0.0022463746760667067
0.11357166701973898
0.018584258043486884
-0.00417769735710297
