0
0.022758112215052907
-0.04643367795397157
-0.10419054422971162
-0.08781783893425055
0.14031238039013536
0.025817113363790695
-0.14371005137923953
-0.04342951609728048
-0.011522159721863883
-0.02321703101071654
-0.08401865750963255
-0.035684026343660774
-0.07268027520897305
-0.006021268878031712
-0.05419429044299504
-0.017239103604049816
-0.04856316494558049
-0.04926777172224755
-0.04009944840925756
-0.05480013335980461
0.04077344821517538
-0.02890763458965737
-0.044939689479294574
-0.00650007973597564
0.053186192494128065
0.05268119435246833
-0.06887156087339923
0.004364645734810671
0.03530609325975487
0.012873098301318098
-0.03564269026350117
0.017306274590959146
-0.0064753966469960535
-0.02066323300307285
0.07215463563188448
0.029115976618339423
-0.05087490953722331
-0.02625700923725002
0.001513737563629226
0.023195298461350256
0.032266544162179146
0.009845000417587348
0.024806619287452727
0.014223816226408798
-0.012834341923168265
0.017600714007370254
0.006827096053614632
0.022208486712098824
0.008139719422613264
0.007290460458835824
0.0014507900046147886
0.0034495022115467924
0.038943458117855316
0.017566251038522884
-0.0322308443580574
0.03997097120111264
-0.11137630608621424
-0.15115418578633624
-0.015905446263578295
-0.03051799383640797
0.019405255676052342
-0.009509896127073779
0.04934402614469617
0.016242386019048136
0.02547460218546076
-0.020398602697234994
-0.012944913065460046
-0.04344753946165048
-0.02941495473191233
-0.0489624161925991
-0.16741069113966484
0.02255122790547987
-0.013969557989617102
0.06954300141392686
0.05285172345728534
-0.008956646168074747
0.029544333442184375
0.025550665379215427
-0.0244466064910549
-0.00909448388562225
0.059436234312607715
0.035097954154725705
-0.034421504539635155
0.001270981246440507
-0.016331483453589923
-0.01655007802936942
0.031520537867760726
0.03058461755873091
0.03867933107658645
0.015144668408755588
0.020412827203914605
0.054810153553173625
0.05908540813806702
0.016987893285710095
0.01898224179552721
-0.01145413841354393
-0.022622687719798192
-0.02431281481206358
-0.0011360811708975176
-0.03715701210670975
-0.009923057003235914
-0.017506548746824557
-0.05003422308940586
-0.006749543790889228
0.09696332889078486
-0.0025308810906463277
-0.012066626856489444
0.011796485992265716
-0.03481787916494326
-0.008465615435712975
0.018013222831906456
0.030180692005271705
0.009669920843251138
0.0011570617817480283
0.03291941491712383
-0.03214696212213832
-0.009630648713399245
0.026087040451918383
-0.004939026685505427
0.0019782966831475377
-0.001219829626346311
-0.0015353896645240192
-0.02617255355564047
-0.021323233661383945
-0.06057175678646493
-0.033734571880228166
-0.01488691220005138
-0.0074367692930311525
-0.024537905318854313
-0.023519728592972508
-0.03055263678887415
0.013121306184719057
-0.03316829601861778
-0.07070520990523337
0.015416177406322078
-0.009720860594260335
0.1844642362499992
0.1571381452910505
-0.025166464091142045
-0.033086294759120824
-0.026012779348641102
0.011175424831669691
0.02818595936736092
0.03215376345492202
0.01935553426314353
-0.017659915485324383
-0.008341350482937292
-0.010498289649931825
0.03834016067487056
0.0032958986116408437
-0.0444521154497726
-0.006418230676684629
0.023326280509544932
0.014998855807945249
0.019267923140786895
-0.02322985500576873
0.032014462413365204
-0.06538303325545106
-0.09873484680785177
0.05604025240851162
0.003117679291607757
0.009644293856313593
-0.0037813820099825194
-0.01668820596087732
0.0457423649673355
0.030022267006925906
-0.023262594585483905
0.008329058351487999
-0.04641852226204204
0.03063169374631089
0.033307068394892475
0.009444703772534478
0.006629180040084902
0.002734757085470582
-0.02093598296395744
-0.02126060081670513
0.02027203222644618
-0.027660515557861257
0.03151560447766756
0.005196211765732222
-0.09011199833974065
-0.01184638776643765
-0.0038780388470383885
0.016336897732342457
0.04096763914749502
-0.001346604281027252
-0.017046335192659707
0.010782580580383304
-0.017046839559219703
0.00046059769491498963
-0.0072213359446048515
-0.01790606424294859
0.002696720787021396
0.02107670154642549
0.05249344906411024
-0.00907730482232422
-0.02593984783745489
0.02334226920548889
0.004026465819373296
0.01661645879182821
0.01821420640085804
0.004180589512109127
0.02626300101854483
-0.0631561445193274
-0.03470036995399574
-0.06292967280998048
-0.03273430214883508
0.05135124231019272
-0.0076969692542224084
-0.03265052677943354
0.023924112896285234
-0.014671677736366283
0.001672245294190153
-0.021612267024811924
0.03121169379251549
-0.027913429284305423
-0.0008643774434498638
0.0004775564446733148
0.022769277477035575
0.01724042530309694
-0.03583084459174455
-0.04722567381332539
-0.025079574543722165
-0.052212510028915506
0.12335904521217937
0.07429508383281296
-0.2429707742863606
-0.10072728126659213
-0.01073779918603337
0.017506905791771
0.028492076562344787
-0.033228924084008564
-0.01635133365967323
0.0862161581505446
0.02554483775317061
0.20533172798558394
0.019212068930552266
-0.015913368577545044
0.00030474059478737805
0.13125468474451513
-0.0005716499452452638
0.03157680420711329
0.05417123159210053
-0.02512316480269146
-0.005343689926400236
-0.02379605283862465
0.10861194957442069
0.1179671883129595
-0.08284883320514752
-0.025532538722976103
-0.08342671594878334
-0.0787250342529694
-0.0005567226774999315
-0.008113974531452572
0.020445839876168027
-0.0638350819755495
0.1546306666607247
0.11093515774815989
-0.08588570195471494
0.01976105966287471
-0.044120965700710627
-0.0210643256885729
-0.09406205995943748
-0.07220707055336657
0.0011424275607889514
-0.006736134992631756
0.045361477324137464
0.01615459264703211
-0.05941097824571391
-0.0028261305598057404
0.02805889491720998
-0.02076335083201013
0.02368342856788036
-0.02751373803288151
-0.03405211657517822
0.002613297012119449
-0.015097949064820645
-0.03904134849405992
0.07059218604382773
-0.020586491714334694
-0.005916211204027005
-0.003524783160522295
-0.007689282598605915
-0.03386564016452403
0.06840561946043708
0.06916377961538585
-0.02061115113123593
0.007537821611215534
-0.017370227750994987
-0.02150900518377554
-0.020917529995509304
0.006698125747254944
-0.046090756529319
-0.017829540447507883
-0.021910490763082744
-0.012401847344301204
-0.009362660167606911
-0.015658106912525595
0.008346598177677708
0.06256535277791567
0.11456679166072217
0.05088236437140738
-0.02739291792163223
0.0014966303723965215
-0.02744186093267578
-0.02692281929567628
-0.05959290663204504
-0.0019900741041330395
0.006005837621096998
-0.025259712095469445
0.06462618420541252
0.18752678113016424
0.048347571553843095
-0.023394364187462897
-0.00975905048080456
-0.11725395306623586
-0.12171928805383281
0.015225099278833577
0.09340142456270227
-0.020818692583320433
-0.012793571167661073
-0.05091166123913612
0.03749470818101024
0.07021782064722407
-0.022909240751481767
0.02356245619350502
-0.0624771635556742
-0.03998148287787835
0.014707806238359064
-0.014862474722545675
-0.024506594208889253
0.02105556668252266
-0.04180599848590866
0.005707673540404968
0.021735697346318663
-0.01235433267698143
0.04980936673446321
0.011344597148656535
-0.0015946449265696705
-0.027321781308623307
0.010344477858080622
0.005328035338803915
-0.008629503862798373
0.02450306603935823
-0.004468869547036017
0.01299290765823587
0.07410358923515357
0.03379565124182524
0.003931389767240661
0.0016602410742562765
0.004999299500153507
-0.10070421562097133
-0.033303138869693966
-0.007070642285771558
-0.0004824013897791961
-0.025186807121585025
0.004023923628414336
-0.06936124741900894
-0.06947859146861132
0.028009003627843733
-0.03780321494647402
-0.01730714592078648
0.007423733450045735
-0.01189045375009514
-0.014684098242575343
-0.05288873338197672
0.06441182601474285
0.03773014320133709
-0.041303080838013866
0.0664261759043441
0.033689817952381594
-0.008678042687645049
-0.017187266279069836
0.06255663193708624
0.07309920837474963
0.03209199878839182
0.02426988542620763
-0.017619116295490764
0.008774830665765874
-9.498630154550294e-07
-0.013828866365820992
0.040129273896819265
-0.014605298179536739
-0.01510188087737135
-0.022112286813003822
0.0046467103565271
0.02488351607120476
0.01867026806327078
0.014574952972372497
0.03001144873909102
0.0010900079977491216
0.022072942380454395
-0.017891233021073635
-0.02579511923168926
0.04703465060671358
0.07270450654064466
-0.032915536690306293
-0.012953897365227991
-0.02503876571505591
0.030809747735807556
-0.03874510897775064
-0.049060361385363085
0.011848182139209152
-0.007906656953065116
-0.05864647033802074
0.044526141961811934
0.049068609131996885
0.0059384554320762225
-0.015922343418902127
-0.007780846371118176
-0.004306114009887571
0.019996770298984903
-0.1989618094805843
-0.08439155156837218
0.10432900609242282
0.0690917435252214
-0.07202896524807383
-0.0001387228674770529
0.02335875313278773
0.0031227955694292588
-0.008727384353076087
-0.006228582456120494
0.02186124753974592
-0.012152211176435269
-0.08755245071708935
0.027375192231534586
-0.02394664161367155
-0.06559994240680865
0.02157310540418291
-0.027978298434153576
-0.0002433421952567819
0.0319680975621918
0.013659900379853833
0.0209188744106768
-0.016432892099514665
0.004345324691649707
0.03753953478017544
0.011225701419935076
0.00105225084674947
0.015295819362434454
0.02139882579670697
-0.01927836572484937
0.017121706654915317
-0.004772454295065088
0.020188517540898912
0.01394663028234698
0.03627523343058051
0.04324721781587983
-0.004013489441262104
-0.0015424889937613766
-0.03896253556969124
0.008289275736154024
0.020441602855639444
-0.012654129389199702
-0.019451894730125686
0.00034512945037985365
0.0060225323767112374
0.007047503948082753
0.0339631362289972
-0.03498264717551983
-0.06960916017067573
0.01418594417351517
-0.0191619773135526
-0.023658961973995543
0.015074084802715422
-0.029665307217444682
-0.11002464593933059
-0.026722994156197246
-0.011569451017636284
0.03625002456169753
0.04965297485579329
0.01940065339268416
-0.04595246285027205
-0.05266676423686799
0.084746869598391
0.08344806261966195
0.017330932838578186
0.04786040219077865
-0.011405282805033525
-0.030293781063944283
-0.044757644729699494
0.08097965503633814
0.020697469576206457
0.021730377533567977
0.01005187843955443
0.010432067275401387
0.005663355396460223
-0.01811806766011715
0.01341788701365752
-0.0029971733438234234
0.05228078454934489
-0.009719877526372215
-0.045971287493513535
0.039567351132842155
0.06285985825953624
-0.011908006204262394
-0.01995886227437922
0.029323977717745947
-0.008365297464404389
-0.011216857412411987
-0.030397720860144403
-0.05963866423356884
-0.05043161400395132
0.09517866811440909
0.05434667532764313
-0.04058916560414833
0.018719539170235305
-0.013844020848590734
-0.01335981195274508
-0.009024827709420837
-0.013300511847992786
-0.01585874606071971
0.011042155928768465
0.03766687752720333
0.08076099166182635
-0.00034354402777866407
-0.006638387155217745
-0.010940643031506379
-0.2672462578981845
-0.03678097558297682
-0.033411997703652795
-0.012664577849738954
0.039020331889209975
0.1205447919171727
0.014810808181330027
-0.012663079877550174
-0.008419297980504097
-0.009317206718521329
-0.016935486583944677
0.013843807728602013
0.039587627591260166
0.016032346161480186
0.007973440537438446
-0.0069871300480547115
-0.03695383667430477
-0.07155609080112713
-0.01981959725296112
0.03578890161347796
0.02002103071030933
-0.0007326503686822569
0.005018470604762513
-0.0018141145535593261
-0.043945705972219876
-0.003715588579953018
0.02673808604113867
0.014225816016340345
0.0019111827346738252
-0.01613701436510707
0.007314633085906889
-0.022771588621991603
0.00731884020024894
0.01724767407042305
0.013905267194897108
-0.02023059275953166
-0.0045007701583513185
-0.023642944575109112
-0.01707853001507267
0.09615058420634894
0.08825864801159387
-0.016467749463376802
0.04245024796849846
0.0363665991929845
0.04975306076842498
-0.09433934989769173
-0.13198574685125203
0.07032261278496209
-0.027030707961893063
-0.022522742575479766
-0.015248761047678056
0.025619688261682316
-0.014871667573797431
-0.024533071286649184
-0.03984896890474144
0.056907878297067886
0.08867885507487025
-0.005202086866310651
-0.017306129202666217
0.02056267180808878
-0.11088825596621567
-0.022859083314434453
0.03856841406963714
-0.03144645095588875
-0.006024066581228491
0.02135194506342633
0.003217963310687786
-0.05535549657430652
-0.012029144866281918
0.07071223695820092
-0.029132362289480424
0.09637314848872766
0.05718200278437631
-0.048235645301882304
0.008024528598344138
-0.04856196757872934
0.03475644758298265
0.015657863291630745
-0.03042527478305948
-0.009882917279682499
-0.047844037635842614
-0.02450946393689749
0.14479737825967814
-2.1038558856776412e-05
0.029332666094805903
0.05537967020171724
-0.015326220415074886
-0.0069831640524461855
-0.004157670272293191
-0.007894312660426017
-0.02982703103196428
0.023668954488333938
-0.028106235742558876
-0.008231669105928463
-0.022535917075235303
-0.027118137211640653
-0.0212425930926838
0.006580637689857652
0.0067615667379679065
-0.009763984385079956
-0.025541430582791173
-0.011577928862883549
-0.012659728387858235
0.005676306869844334
0.011964585852434099
-0.014369788210294039
-0.014855788389845881
-0.03481954507036485
-0.012924550434775233
0.075838026269325
-0.00023404890009881056
-0.029999034991643827
-0.03143834493874533
-0.04255910396923375
-0.00901492170995851
-0.026845636813762216
0.04212753944815741
0.214626231466877
0.01010290495840028
-0.03005216378874209
0.002842484269987901
-0.006470916534802833
-0.03157028498828127
-0.049505703233794336
-0.03654845016143292
-0.046826850065670424
-0.028339544097379592
0.017187547699634514
0.04155266839715086
0.004861799969577986
0.012020644653531604
-0.038674172608487226
-0.007872398244405271
-0.027124108997136066
0.00765861000589044
-0.01119205303016214
0.20620083017566165
0.057970423212949845
-0.07327278650078889
0.010213848343187393
-0.01994723934709797
-0.009227089414128736
-0.053470470146963454
-0.004982929863659441
-0.031136778444580786
-0.03258709046065133
0.00411732015633394
-0.012359437104426215
-0.03865660715060734
0.009198427263328791
-0.009572523786224214
0.03322240209921131
-0.00485725217623924
0.18600296812577993
0.06497566287068854
-0.024181075193318056
0.014844004006469855
-0.0484987108524385
0.01635086130611632
0.027168557438949
-0.024173370680630222
0.013558389982285663
0.04246383898677198
-0.04142767614776966
-0.014471954316257583
0.0059074348699929
-0.011556223836221728
-0.026291214719807048
-0.027567093889763545
-0.02377123668857472
-0.026905136366653298
-0.017320153575685348
-0.03468147218080905
-0.021979720855418345
0.019686758967825645
0.03656874237839101
-0.007321031034099308
0.0012747187469030633
-0.002206883014682148
-0.007610168893181231
0.008674572003764619
0.03664396968405099
0.0426382973930773
0.012324031737914454
-0.011222890362378031
-0.0013237259066673094
-0.013543599853683145
0.018777267116922673
-0.03416169927605113
-0.005965100063676104
-0.007640035772450907
-0.01747077187048517
0.007134703203379323
-0.024781585836568136
-0.020783140628868033
0.004186381035022565
-0.022406378106151984
0.02043742248436093
-0.021066600411962372
0.020935689821890657
0.0018477669678839538
-0.005202459927160224
-0.019875222200702668
-0.04468731646139134
0.009525497052720268
-0.006894905665549518
0.03073178061929145
-0.03243775088942007
0.09500165918721722
0.03536587539464857
-0.014990031717739386
-0.031402462975345345
-0.054125472225195835
-0.013711348554395805
0.007624509409520413
0.0030625034123016696
0.01105995912351767
0.008968680754126952
0.017462243881531322
-0.0426849380715873
0.12456138416893388
0.10419348683271389
-0.03579366098829862
0.04248126266696394
0.01933956963459932
0.0028683852877536614
-0.042840479289835344
-0.02437708184294215
0.014301010262697818
0.014039342508627976
-0.17274301979255335
-0.010050290177663929
0.004861057653865368
-0.0027250791457750488
-0.004493089159086101
-0.05385054233747929
-0.018166640500495806
0.02260904248332879
-0.0792425794872888
0.10890717903256832
0.193859807263654
-0.09959608086619848
-0.034974620147090234
-0.013129387690704743
-0.004144440113923362
0.013964077872188469
-0.038329815319550396
0.011927027090323866
-0.008615967063387664
-0.010434209233423452
0.04032003298213549
0.006019241858473013
-0.04835642437819874
-0.0011504419001100552
-0.05945885544015342
0.06534049573493318
0.06774680192612242
-0.027958133973044204
-0.0051202073330193255
0.037833241267940826
-0.015638137914707487
-0.05011644582912633
0.058887598990347456
-0.019911178345950017
-0.04813537385614758
-0.00792337873039868
-0.01335666956724761
-1.3640631844135265e-05
-0.012706628680491057
0.015001108455158382
0.031468680831890555
0.006788369477728851
0.09278444118545233
-0.0012347961064911057
-0.03602309392568816
0.04564279725994604
0.024343395448583466
-0.01109676913398185
-0.027830664701617144
-0.007835133721809795
-0.01140311147989473
-0.009304838188707669
0.010536086596209663
-0.009508406465882368
0.01109309428090282
0.019282635871352958
0.009842315694833516
-0.000762286538550065
0.010154120902494358
-0.0023954875672484136
0.03391632905193185
0.02838461769013756
-0.018232437882225738
-0.011619737188164362
0.008300193537543403
0.07403711413756955
0.04894261527742481
0.008691918449080844
-0.012308586043360839
-0.02568597341471685
0.035692213794727215
-0.11486143585534964
-0.23827692018465108
0.030889351015037824
0.0006771044678561881
-0.0021716767430579706
-0.004077609275443251
0.02658229777472231
-0.006986739564322749
-0.0005176350085038688
0.005185000002747406
-0.013591625228632883
-0.03386731703532517
0.026977107245995485
0.04596293024901815
-0.007277967339931437
-0.04227456831909123
-0.04198897970039656
-0.0029217751309429346
0.023189480659620065
0.02357693652179938
0.0096151236550454
0.005357727084575779
-0.015358804445746374
0.057647552659928235
-0.044088859245834215
-0.09004192974158869
0.043295213388145265
0.018011172230123444
0.01952925197619125
0.005078431209842277
-0.07272533048200383
-0.020215800914211646
0.1674114270816967
-0.01581143550165611
-0.011788866076930561
-0.0037759656993952427
-0.006046247031526935
-0.03925332458810589
0.011917769373315738
-0.00821072422141233
-0.022225909032791587
0.0009773877388877911
0.04177909880205112
0.07664114143802946
-0.037099542913340236
-0.026326963009752683
-0.011680816819847745
0.009168116384721743
0.016522496953859787
0.03687254968166667
-0.0011335736218034368
0.025375378754696903
0.01735115896230824
0.0009764045236350244
0.03409313382964955
0.09662498086649607
0.0013972266845967312
-0.028508855261882078
-0.06221238865443126
-0.09769404240075077
0.0009802184338528449
-0.020946990809000445
0.10682122919856427
0.0460949569783499
-0.003013228216750511
0.015104207004206829
-0.10436765210085437
0.017564384567507575
0.04207791148095355
0.01663090327365592
0.006810578782931463
0.012614101178452061
0.023415054999473946
0.03990776332632444
-0.005573713541802685
-0.03024890857638481
-0.0012874111171231658
0.01507575315997069
0.028453114563513796
0.026711290159627376
-0.025479319597376534
-0.080168909727912
-0.006338814808530711
-0.0034974105335230186
0.010893415526533709
0.0006689834400254091
-0.006771092575193302
0.018045933822372923
-0.0731761939844617
-0.11483115811622
0.051234897788229844
-0.034536960513801104
0.025808966956615564
-0.06041207855741307
-0.04570154887991159
-0.015220926943063331
0.032042445257003456
-0.04819966583525948
-0.03664028328262075
-0.02913006780260974
0.00043988665574306896
0.004645874723352034
-0.008549413630006063
0.02666292560712522
0.010437022866916938
-0.00733025673664051
-0.018684195602673734
-0.00924889995560679
-0.04162201259793754
0.023249958548880748
0.06118835059963027
-0.01651926678545805
-0.004695335005112026
-0.002813651995832448
0.0006368303683601649
-0.02122914313816149
-0.011068212667211868
0.015143059462752592
0.007921605837182401
-0.051310554820525926
-0.005648015484476674
-0.015466341458619538
0.014415366501426524
-0.04707472616368806
0.018558122355432756
0.08202816966745238
0.05548348992104406
0.08716408434369366
0.13114612505528117
-0.012192846518533708
0.05528474139148424
0.04554389799377022
0.11566881009803057
0.027806266485029978
-0.04131135231713301
0.0012883578271117658
-0.0015531329536641735
-0.0025455902109734903
-0.010910277044610879
0.0027456539039479775
-0.008268916186363088
-0.02246189357330172
-0.0004279103083431721
-0.020987817853356655
-0.12163541969733546
-0.024522956378150145
0.015272577774531289
-0.0012845651974465512
-0.020430601848155747
-0.004582545475807639
-0.016591322265246945
-0.0015821067813700474
0.019094779771652744
0.020538441855499856
-0.00408568146032793
-0.01371540469376981
-0.012317877493695225
-0.013158972989143416
0.007458004550418045
0.019418485798231386
0.013134217801749677
0.010776339114235277
0.011291082362864963
0.010903176258894545
0.010498464587869584
0.0013330585640413597
0.00527858264487466
0.06572164571323523
-0.017884989565602992
-0.02700255553045296
-0.0038409441936905725
0.027282013958334236
-0.012050777721378159
-0.04251317270015273
-0.05870914440300545
-0.046747092028941825
-0.006919349818295545
0.002325823056580933
0.034158876951074155
0.0011050611392778868
-0.009340998029335298
-0.011238344593311392
0.011469768973230631
-0.08606159638193245
0.005529437691361544
0.0037404634390654687
0.01769544031340047
-0.012326549465718388
-0.03249829754152045
-0.032318422989721936
0.004576688071036687
0.026899388920175477
0.021664549538357225
-0.022790057571781437
0.012470881237141802
0.02214885262452474
0.03991701759106393
0.0015704783751905973
0.008721945319589608
-0.0070024610186598096
0.0055573734248568355
-0.0222896273503825
-0.0025609548074805645
0.03089659097870018
0.01624919858870009
0.009824923935897213
-0.006291664569448995
0.008950422989707286
0.017880247278243184
0.005522616318398703
-0.0035755441278151954
0.002323061001760535
0.021904370458742498
-0.023853611766365593
0.00852500647661612
-0.04433641201394852
-0.012301371614149943
0.012748726314843804
0.0032493963682207693
0.0034311441985866633
-0.01709900183085507
-0.13766557682592462
-0.0010045714948927929
0.03197108126507391
0.007926586207099436
0.004595471592228013
0.03254128003354051
0.014016402249995044
0.013635481542115918
0.10137998342093506
0.05050063597108511
-0.11577630873593223
-0.034488057313557814
0.014812651175894554
-0.010059066843020811
0.0320717705776748
0.007442489763002144
-0.018005505596117157
0.011198930261660038
-0.008664643732474532
-0.030833063903714483
-0.040402320698741286
-0.05345897246732465
-0.007614329011616854
0.03170091065922332
0.022530027419429714
0.025768858613037175
0.046103803898791026
0.002770809687390387
-0.014861244881179531
0.07269916317634534
-0.038212289976736695
-0.09437223196752366
0.04563019958756083
0.020951564593857643
-0.004808658134193037
0.022289629736289163
0.020565725716943036
0.022871675930722403
-0.007814379606337336
0.03193970634543924
0.015412763043773658
0.0004361205170908082
-0.057250432721375755
0.024577731076152343
0.03564684896912997
-0.026086697975509266
0.03959768937990927
0.08873426741665653
0.04427149055421705
0.008381704289282796
0.012340221714153957
0.04691042843450329
-0.024881172646493952
-0.012776275167663683
-0.11835582015087284
-0.11904912777689791
0.018676335582814955
0.00878842102210435
-0.0036425673900133213
-0.035781879582090816
-0.020452441836053
-0.03070715393093324
0.02049423947533085
0.0381855111665433
-0.0944581364873693
-0.07056777347095022
0.005108668467788163
-0.003485845759076209
0.06419860688942886
-0.019320287376629146
-0.10021053063587979
-0.015716686525898464
0.03282580126806468
-0.018745612454484233
-0.09890672418073691
0.003315048715455252
-0.029905214369496516
0.038793387705383015
0.09372051668289104
-0.004163335824534529
-0.03999080369948323
-0.011102662386460758
0.08094557580267822
0.07940211996762415
0.06147719789873893
-0.007065862213267614
-0.0020867733634688246
0.005275074367841378
0.0007896404533997871
-0.04384506030435378
0.12063191802433117
0.08242681797540682
-0.03842166858632298
0.01691971659809734
0.007029946435669872
-0.004376691646745828
-0.01131632112641521
-0.013991187188366982
-0.05367778249960877
-0.007989202398795381
-0.015672179804257252
-0.00429412614441896
-0.0011521912032013686
0.023678120239474812
-0.024775818428207634
0.014203796717838682
-0.02118442257055138
0.11916864205203198
0.10305469350064532
-0.03466746205214664
-0.00881058174013209
0.06216627073261302
-0.19409975215148
-0.1449999196746557
0.029595393237964156
-0.013102155072916889
0.13831407185634975
-0.0024520981730660873
0.024150177856197285
0.07070757706515807
0.07805733133130828
-0.0028125533229856393
-0.017910535655300874
-0.06131899809600983
-0.03601261896248318
-0.06377569101333395
-0.02522441169544788
-0.010198294225253413
-0.013044970404027995
-0.027970318402111335
0.007589997341403259
0.03284042819983746
0.015466993037838207
0.019481416245950227
0.003314316159841044
-0.005663890602003251
-0.030371493046726865
0.006735202152788073
0.026067481644697563
-0.005776470441078749
0.03112524203701747
-0.0016645327073042202
-0.06156816954872282
-0.04118024597026389
0.033399172078703555
-0.14991985787300838
-0.16180553736455378
0.09250047400728059
0.0702320128696725
0.013225854930462026
-0.0008179659851428194
0.03444997581568583
-0.036447898304892215
0.11164927564612577
0.13449011914711492
-0.05168774245922317
0.047074316836304426
0.06748269799953725
0.0018692015433755735
-0.021645200300679845
-0.05002992491342727
-0.04112096197787107
-0.037840320375751337
0.01563805423856665
-0.024171734876354718
-0.04622803317376885
-0.04717690302328485
0.0626603349586727
0.06558558347114064
-0.051746774309977754
0.0017290521511680757
0.04922431402708961
-0.03915801735268262
-0.04415300579944795
-0.007510917400759758
-0.02860220634454049
0.030277945732097522
0.017062355078919574
0.0015279188215885904
0.026769568238213803
-0.01948027204484644
-0.02530299972961211
0.005702330909938229
0.02085835029866438
-0.037871993582405734
-0.018417802799783972
0.008982459742634135
0.016061881373387564
-0.018515522008522155
-0.042028710202744055
0.0018240920015905567
0.0076100265218003275
-0.011455593699149119
0.007914639882451134
-0.0033130738010272508
-0.002855874031511858
-0.00699797024724729
-0.004942547193776883
0.08767653001304745
0.1100537080289502
-0.01596252414269481
0.008572298521302923
-0.030042686387617437
0.015516838058160148
-0.05148455269813167
0.012214295465010154
0.003885919569976964
0.061576618085631
0.09459886750279851
-0.022125001279931923
0.006821018637254189
-0.015296054886494857
-0.032595055720415544
-0.01626385659901827
-0.01232558865985573
-0.015095398642325978
-0.009694873043354464
-0.0067138198417598695
-0.0648505971284372
-0.05381005435272119
0.08102711159520187
0.08324196519450724
-0.016818825155442106
-0.01224767448061434
0.0037000784155729717
0.05077268474933392
0.025491632816872823
0.015386609279015657
-0.08180770037569705
0.010878733324079137
-0.06428848278213367
-0.06363411113686598
-0.014972873802783063
-0.0012915554581742316
0.03141470849762695
-0.0008612731414500261
-0.0322846198278567
-0.01067262414728839
-0.011823472081430024
-0.0430284890414737
0.02561086988253488
-0.020222832751005403
-0.01365957471456303
-0.03072140889452044
0.08507320361965331
0.07074572229410399
-0.051694761073732415
0.08520544366762925
0.043744417337103034
0.025039439697356742
0.05158654639850664
0.001303635782297651
-0.012895005666281012
-0.00020364397659766812
-0.02416652808418056
-0.0059003695875327
-0.06318813606963748
-0.05618490581748252
0.021437803441655252
0.012402061752118335
-0.02078435917911147
0.022505104417178644
0.01977042421870322
-0.0036019563456366832
-0.01641663716237819
-0.008272953791985801
-0.007081225462197843
0.0747254151379708
-0.1212287181841413
-0.20545527525524607
0.024886283715062116
0.05606387454058186
0.03928832709234537
-0.035200235517178206
0.03982065874846793
0.02668970207518923
0.0013178206868801256
-0.06562708851659266
0.04940727796550547
0.09247863190946429
5.486545707140895e-05
0.08821416845306147
0.0545728799585524
-0.024984882384557396
-0.009137696354907238
-0.016320815466799914
0.01313516382012427
0.04355607194577104
0.020891429205437132
-0.004782326017572318
-0.07507811777888891
-0.08232627933435978
0.0149884657504506
-0.019430080984962305
0.014731150334071378
-0.054403494189689976
0.02403382627539262
0.012483090834772049
0.01762833036744403
0.006613194472328121
-0.0451218753014808
0.0871885165495735
0.09919954598743275
-0.12216844908064538
-0.05006019057601767
-0.026899572848607237
-0.012056830110265659
-0.02070551116477288
0.004988737690242377
-0.04056317559696692
0.008790601289767547
-0.009403061899618783
0.005234955022038734
0.01434088393700216
-0.02042735280250991
0.01308953302449428
0.018275868612833156
-0.003107892711869584
-0.005730327112505385
-0.0075820793690733095
0.011724724252832058
-0.02850685293458073
0.02930770380774277
0.020000500355712766
-0.01769327883224913
-0.011272346258702833
0.049512708046847716
0.029745969377501933
-0.009230296593629136
0.02584666104890968
-0.02687584460603071
0.05470218058803587
0.021059099632124406
-0.019418836821497358
0.020784832238254333
-0.00745451313452789
0.021541930801964607
0.024199750170522834
0.018020105749669498
-0.0034482339459548377
0.00536359675414287
-0.026840916657038465
0.014338016916639853
-0.024246424134107984
-0.024729572625436007
-0.007611756859652743
0.06313687498111607
-0.0036467081572710298
-0.018049207428553777
0.005210250561875994
-0.016352615620752117
0.04905892240037373
0.045651034725514614
-0.0073640592818339885
-0.010772443189316106
-0.02109134809595391
0.02589582873233105
-0.016124178879597193
0.016168301979933568
-0.00962159251998135
0.012766291012104896
-0.12279809539578988
-0.0018051298059964752
-0.021004964968680484
-0.03973661056639983
0.0014755655397742152
-0.004845447545201359
-0.020275920659737497
0.03314064250662994
-0.027994669353536044
0.07188840381359865
0.09143831596342666
-0.036018228931862475
0.0346028369830382
-0.023668185181596517
0.012557672623514798
-0.007201680075746547
0.027846156463029577
-0.029492905394045168
-0.0823118956061526
-0.029302926334434563
-0.04246300287322881
-0.019041137878882314
-0.11138018068421761
0.012839054593449846
0.009864884042508236
0.006952658703364531
-0.017959379697263075
-0.008145909529518231
0.0131823641554732
0.008818184109232399
0.026859930399199906
0.027388844196864458
0.007018172705993897
-0.02940850238096244
0.007617248317262332
0.016399667136830488
-0.006385099571492352
0.00436591000706771
0.031108546556743187
0.07030771491400205
-0.016057525503711742
0.02524387456274157
-0.0034220582205634073
-0.0243145052239471
0.011249333651065606
0.0037589490926956564
-0.005158299393555122
-0.004274800392311865
-0.09548304051623262
0.08101540815436212
0.04896681799529091
-0.002925335757055501
0.00396219121684501
0.010440029509876991
0.03164709600518388
0.0015677838594126844
0.014342952800233875
0.01937772746106908
0.008640230241429207
0.01640206879954545
0.0043795466255218
0.006093973871091616
0.03447241627493827
0.021092872044312764
-0.015073699076976569
-0.031817238270757435
-0.08773843838742297
-0.0730016516323937
0.02234683301020731
0.06318689030298108
0.002735797224964604
0.034522820984638485
0.018784591800060712
0.006947554756591579
0.006964684062820501
0.0028242926869088882
-0.019363550998511603
-0.016373525870292973
0.01177608930814442
0.010445653527008951
-0.004579207421794398
-0.1197006005149384
0.027368413116371924
0.03087926083188451
-0.0341166256388315
0.045186444343359757
-0.02562339555669738
-0.03394044693930286
-0.026890188710369908
0.0868256389569446
0.02472127154947613
0.01961062218675043
-0.016530684333219636
-0.007766881629003238
-0.017676084616762136
-0.02825932486175218
-0.046445994016545464
-0.00024077170420971512
0.0025795537534367037
