0
0.06788869795575807
0.009542577173390684
0.010750382870780235
0.0038568605677669217
-0.007080447449188955
0.003418111941015195
-0.16034484504506144
-0.05827627104887222
0.032486629682326525
0.01939109334639911
-0.040659101078548025
0.01625605964066792
0.016772138602666044
0.011871153528409815
0.05102490837400708
-0.02735462710718807
-0.16292714218745016
-0.003332309321532205
0.02044092450032219
0.05294852531916291
0.021841650756968364
0.011916919942133597
0.01628706155494231
0.009989950459542516
0.015175771151312236
0.0179190754497366
-0.01718823388748007
-0.013076933513523495
0.033305885709503665
0.02364543464617675
-0.03764644223214069
-0.052865581509980684
0.010070111052439485
-0.056525377357812094
-0.027111624363324597
0.0298807234404132
3.460342374671475e-05
0.027459955033478804
0.03223739689054398
-0.014572810825627757
0.03326402151389581
0.04200334058029776
-0.028217568615105448
-0.002393907889496101
0.018499002046461342
0.00014786166109347133
-0.001505515035057258
0.00312232658674695
0.008172459016143897
0.008574128998225712
0.03979359152767388
-0.042480992395198404
-0.006122287614020174
0.016413581740482155
0.0025796075037383772
0.049713476288786286
-0.04825176950662759
-0.059025961748644384
-0.00986331751850539
-0.007212844914215775
0.011607945017704126
0.012193523275784778
-0.008516400230045656
-0.0037555273023988324
0.009591091880740128
0.13590914681105204
-0.08129793048640237
-0.2225812702364945
0.0013126137110985139
-0.054151701586136726
-0.010167866393059447
0.027002801967840558
0.06845957644954653
0.060001046948146675
-0.02665334471504524
-0.009687827200049433
0.02953241944092487
0.038833001139227115
-0.040211977854654066
-0.11918339161607538
-0.016622685873747083
-0.06969487829471568
0.0002444226164638121
-0.014904098818186974
0.15904207671998546
0.0725884969253355
0.018558988646756154
0.07740567776088182
-0.004699901276276962
-0.0141734128578928
-0.005310967316983463
-0.004498169825007569
0.032391004101355966
-0.04894847618064871
0.06465407268076281
0.1162149909004822
-0.008715550547617372
0.012302171769986152
-0.012397588340207492
-0.026711880252662107
-0.16183327612983736
-0.029821403678326995
0.008109174098885012
0.039144736778458755
0.0032506916354325933
-0.02051394261733075
-0.041608577276923804
0.017862264921586487
0.014149385543861333
-0.004390625788457556
0.013344147782715818
0.03472508969499199
-0.01806712661579728
0.07252202423641621
0.021376215852697892
-0.05781168114915015
-0.031469140748228534
0.020167193729093508
-0.01076741484850276
-0.025059426168923926
-0.008934649008208149
0.044075265006283185
-0.002991238405491434
0.01705529793754645
-0.08501147415788961
-0.07840791992694676
0.05105848493882937
0.07054255829931615
-0.087706650468592
0.08311101241437485
0.07265576801642068
-0.06276781043235531
0.09281793674509649
0.03587842822928112
0.0017462872850325906
-0.01727365172071996
-0.013858817560887068
-0.039141356061159434
-0.003916240113475076
0.0027076457129478018
0.02623438017315573
-0.01613343830738153
0.006878566044544893
0.010070644423409507
-0.02639005954807566
-0.011753700894444075
0.02636850918675789
-0.02172258718569297
-0.00747604212486753
0.00024997007188332223
-0.001898046375355121
-0.008588384115866073
0.057605243871588906
0.005256222092747068
-0.017222029412975577
0.05179710080207534
0.0666860951697507
0.006987033254877015
-0.0008446787379058665
-0.04777366415423414
0.01789665302721447
-0.03504688752656178
0.023572029778213772
-0.09468488574890066
-0.3000789870400079
0.004252310285941699
0.004797597894334694
0.009193365680997816
0.061273170549301155
0.18053866809257083
-0.017643309484145317
-0.013913204182272633
-0.022378737734801445
0.026351733034998694
-0.02304313364709513
-0.012395228759116307
-0.019098034463485375
-0.03153737020255266
0.031047141084434467
0.025350989041042285
0.007783467624422235
0.0036311689383393283
0.008498657748360977
0.0026907811100551414
-0.04681219614531494
-0.016717910433163587
-0.030147661685419807
-0.00790511677679949
-0.010706441613269738
-0.021760562057708717
-0.030112918332922615
-0.030823930585250667
-0.019590622442091317
0.014178680855070167
-0.04622964070711633
0.003978884166616562
0.2075518172336553
0.034778386625304726
-0.006591991026648075
-0.06422512786595079
0.12391075558223012
0.0585920919953418
-0.03583324515285904
-0.010660442233131036
-0.002593253927883066
-0.02898407336182125
-0.024351696233672473
-0.014192555776726611
0.03361348887912689
-0.053223268130398856
-0.0902903718388763
-0.005299725171918541
-0.0004198327507447965
0.007038899116964192
0.17125443915710592
0.09786847064491809
-0.054742904701857824
0.024718572692654303
0.06427826402864957
0.006046287411756114
-0.033969955712873
0.040122350726786715
-0.03504693080896741
-0.07273187335839708
0.09905578865775579
0.08692944717104828
-0.0560644732773869
0.03662140980872652
-0.07914716166518151
-0.18103750989583212
-0.017580009365825468
-0.05824028295523836
0.029622346398743223
0.03559266488691718
0.02328479231228592
-0.006741072556180765
-0.008690130684953818
-0.031084347446966972
-0.009927244547596756
-0.009178790873508758
0.1197022032562114
0.0025931261414822923
0.1414450985892199
-0.010253980070999444
-0.24744742645092987
0.027630707727524483
-0.016803740315838776
-0.03835771768247867
-0.010554368360679195
0.013651479769506083
0.025630201592876458
0.008173601001260977
0.07811785940380463
-0.03156039146358243
-0.013636025517152098
0.021674963495473782
0.01710975560861953
-0.0063792232936638925
-0.002538778947795741
-0.027441448532616496
0.010426852537154778
0.012861230189575093
-0.0032344381347921254
0.009138588755463445
0.00597754309972176
-0.0049151491436025315
-0.004826607819882965
0.007101496122474454
0.013907186445122935
0.025187068148529522
0.012778090957641354
-0.061168598083153725
-0.04146410459525332
0.01278709387572387
-0.04064015048311672
0.0025269116808277884
-0.005471829776339615
-0.033389815061921596
-0.0002611636833326098
0.02702550047691129
0.015296029572116608
0.022461032117362004
0.007996998980230057
0.009328581663266094
-0.014895565972936271
0.0032833795736851874
0.00525703937084593
0.028034501466439318
0.008313707902006555
-0.012628424488644378
0.010602381027699916
-0.024285187201826937
-0.013490203170433177
0.008690137489899425
0.0023784749922824214
0.0193077974617985
0.005943292189436455
-0.004181797441817382
0.005634870618234016
-0.036273390543573585
-0.01534132635020081
0.06163579123812347
0.007415796905468292
0.0013193842952907392
-0.019770959405550445
0.025368487712046476
0.014445583231679
-0.013321040695058376
0.002586403017183346
-0.01984588436204742
-0.0121634763438305
-0.0006700039669510124
0.030377545975235128
0.02537374729909874
-0.0031714937932199863
-0.00419957714701876
0.04689316666843469
-0.045011171588090884
-0.024564748241164183
-0.02702389443571956
-0.010087776246968883
-0.01880193068188996
0.029170285987432248
0.012331149277358877
0.012934898487759451
-0.022785274024334477
-0.03269855646482869
0.002964234931491307
0.07829177338545892
0.02003701463601975
-0.026321329626129406
-0.02432294851315314
-0.004318355915810283
0.04773223145275092
-0.12358294800999038
-0.14802301462575843
0.0470508075794742
0.012501078082633175
0.007097129695581523
-0.03597825706244463
0.04280733695823774
0.01989958488652845
0.0022209343483303146
-0.0219825581719995
0.003312010598006158
0.05810008420820699
0.036162186989503624
-0.026519659109375
0.019583235136935984
0.0068880078205083494
-0.004013254343517123
0.014184052008316099
-0.013737998227877688
-0.03226564373751043
-0.005930474404884956
-0.011964795868864042
0.03803642179942874
0.014643030046967535
-0.002551100493422457
-0.011458540481877083
-0.01849540740135765
-0.029817172358559043
-0.027769862735415502
0.030333982917319965
0.12076103872187535
-0.07877459041237596
0.158172388829911
0.20025814124608665
-0.05357503635593573
-0.04005556862372412
-0.07979579895918172
-0.005647791248698705
-0.03444016666115685
-0.005395405099219862
-0.004242336303275981
-0.021230795154085314
0.07008153353483779
-0.10398510372360895
-0.050155418956561684
-0.0001746931167452116
-0.010265206451008558
-0.025143967727587743
-0.030505723089821964
0.007119515089812333
0.020850855579611433
-0.0346833985994052
0.09512040220678432
0.06984689221412066
-0.03896105014345368
-0.018726186086447147
-0.03321712439544871
-0.005985998734089022
0.00739442041830603
0.030704820777728927
-0.13581668521654736
0.008021496940875268
0.041155810492594494
0.04005875082977075
-0.028224779978270737
-0.013829411265204183
0.051515187401646026
0.11310383966319212
-0.00476417512351828
-0.022716300937035833
0.012681547642547747
-0.013316409348494648
0.003385133241182638
0.04726716745952703
-0.010180806054726339
-0.04568776968333272
0.023573257285011195
0.013328344070105223
-0.020749825252777833
0.0007814016891589556
0.029809301448550905
0.019920678243413006
-0.004269543162256329
-0.012831766193997918
-0.011528769650248441
0.020707348256380532
-0.015175111688565559
-0.02644558754266795
-0.01851536658535926
-0.008328164324658903
-0.0018700059931766625
-0.01592478689564702
-0.0698642548199388
-0.029720185766088387
0.013473426453777432
0.012000493919561166
0.007649005685529558
0.0025309355880614123
-0.008332117757211514
0.01754168076186765
-0.19288053298646068
-0.1152601320604888
0.07268350961167674
-0.023801899817867754
0.015228521049580335
-0.01863521948076722
0.03406854072727582
-0.00918274376551771
0.014025242744199204
-0.0605332280731866
0.213151926635767
0.21126480939751371
0.021336076008674973
0.02321652218182931
0.0628265315504137
-0.03853745559553707
-0.023782270074023445
-0.037084775512892035
-0.10389293069771106
0.009678097741328152
-0.007830499896264493
-0.002019952452681673
0.03029654341741599
-0.001707347737985199
-0.03205282360105105
-0.016426879447534327
-0.0030494772619939305
-0.0387096113534957
-0.0004986049308489824
0.014466794723007001
0.002010054634175374
-0.03020805377754775
0.06052845529931515
-0.09760386724316998
0.030548245320155983
0.11705896880869752
-0.011896138032092827
-0.01578499209475782
0.07250812264654298
0.11105155977537624
-0.02764681044781761
0.0034890669879045254
-0.004705171758182683
-0.033460097011556326
-0.010647698481943463
-0.0034116239067860953
0.010694953782539726
-0.07857103917678879
-0.09536551688735999
0.03478294578050465
0.0007694695248741593
0.006542991884821113
0.022819634336626513
0.028141417949637232
-0.006755554249285059
-0.0002694270776408333
-0.06536985250116997
-0.017638584501926843
0.016579855676335877
-0.0016874888630306172
0.003555314045064285
0.017616615749681517
0.03851827137238456
-0.06092600759724027
-0.0956730858949532
0.028725516760259296
-0.07962723603566052
-0.027413561618089416
-0.02642110110453797
-4.7040805814233953e-05
-0.022845249882557414
0.12194679208548433
0.07189688052473928
0.08787120502094155
-0.01161647259925315
0.020072252441530266
-0.001570135540937724
-0.020882675514914423
0.006841350033611318
0.01958087146160717
0.019434715162596237
0.003185370241873565
-0.04367243719795708
-0.03369020862801107
-0.021666340740611162
0.05060259962061463
-0.10654766994537429
-0.03181381178371287
0.01744290989355021
-0.010923616256007596
-0.010503004728593616
0.009024282159252767
0.010387811990624801
0.03515642492323308
0.051023479326032746
0.0008867606698559083
-0.10505158753681614
-0.028800902085326593
0.006524918078465308
-0.0067790815189752345
0.01813055308768882
0.05024426820211279
-0.027028463486117683
0.05807556251283313
-0.01000571198827425
-0.0063744043696625525
0.02689013396120529
0.015610460615535742
0.04743667712949275
-0.00956234512263462
-0.04479287036864126
-0.03710629393092066
0.049765521786421914
0.03248678604172768
0.12497630228986888
0.020857159340502144
-0.006059282732245567
-0.0035213715485970473
-0.025289958903799127
-0.017677414118643014
0.017329506836011938
-0.0037407446329307597
0.001949062936423392
-0.00047146336820364036
0.004735459911009635
-0.0055982622432172394
-0.01531075838938424
-0.0051990819258763985
0.02276110332630014
0.01632439309925036
-0.024378777704500233
0.000990665047269658
0.004674270350036237
0.010823330026453873
0.00163442752651291
-0.003085044115730565
-0.0063546767652422715
-0.0012135247474770144
-0.019523140538551653
-0.020530740050858504
-0.010280585220842773
0.008213139603154541
-0.003397171868027367
-0.014201364651203523
-0.0856214543379846
-0.11826604772820101
-0.008542847330173301
-0.03322631495039707
-0.011303196296310927
-0.1130494815189707
-0.04636123856093026
-0.09000949502151737
-0.00018855724183524164
-0.02971864608525332
0.010444851840378865
-0.023050075385358776
0.05185078104200563
0.10321458313032662
-0.016853194866690444
-0.05902715660000234
0.203666222830728
0.12337458459190254
-0.05061798851174111
0.029561661836312685
0.017451049885033893
0.018699013887924852
0.09307017677149086
0.04931498703738067
0.012017135482750574
-0.01723931362625651
0.0018551943698585918
0.0030578148284538865
-0.02609483869291151
0.004986165700651692
0.2568589408008306
0.03699459646406585
-0.04813020695673941
0.0058130160844029576
0.004385603916737692
0.02260394806088952
-0.03898293838854067
-0.030426626881225192
-0.004507986390938303
-0.03591261737013252
-0.2407251800780056
-0.03553799678099195
0.02763073860810395
0.003108661011917006
0.020171039241252083
-0.030664009996237408
0.02390744904473299
-0.002521847525410166
-0.02027016847274965
-0.02695423981635381
-0.02105624998517291
0.00819088366359359
-0.031103960283302253
0.054893420856348026
0.02854725209286111
-0.005855959505670838
0.026515610737500906
0.014615692842695713
0.12102644065100183
-0.05825780373752994
-0.10003250405552079
0.005878640384380481
-0.01065559831727754
-0.020928287728248368
-0.024950261097690836
-0.03801902316564908
0.030636862092348626
-0.00618748295872662
-0.03495342208155015
0.00909566887575102
0.029741684568959682
0.019764832813168952
0.004864277336111601
0.018782894576576982
-0.008735578979688538
-0.05384041759048869
-0.0024355385136448147
-0.010642159449622312
0.015347400472234414
0.003241502788685272
-0.0165381563098606
-0.021264768088071834
0.06603336060274785
0.06075013654662534
0.019627759993031214
0.05600010071803516
-0.02548781025443565
0.0016769386863558955
-0.03876993956040866
-0.035733999426850085
0.00371873031387123
-0.012492054554489509
0.0003324638485526131
0.055185719430460294
0.004550001908930717
-0.01703645267393912
-0.01749766166212181
0.0191341225003858
-0.004381046045939371
-0.025591359472432313
0.01121115933030205
0.0430340540278587
-0.02213833046932593
0.020091916684237234
-0.002627021923621449
-0.09209122524195561
-0.004719008392111004
-0.03055747632785252
-0.027356673651249712
-0.03511221808368279
-0.024460845224573036
0.052587412453777606
-0.040928269223187055
0.13005173402358675
0.14638123217759916
-0.045209524124784906
0.13964559741285312
-0.032718758923663695
-0.06957370367563752
0.011303416323124506
-0.015267458466384371
-0.0016748975164459165
0.036927017382539874
-0.18672582152412634
-0.12408200875024665
0.2775239803187301
0.019592287828809656
-0.05603294894163218
-0.008227366445596889
0.05675339414336206
0.14419975062929785
-0.013400071468702776
-0.023326580142294027
0.005377308742166156
0.008634412992120095
-0.03790996018761441
0.026601612710368667
-0.08315857795687098
-0.040235794455797044
0.015526458561821048
-0.005007817654603734
-0.07022214801934966
-0.24399529301457595
-0.04054162351917809
0.00751731902044048
-0.06517387455995552
0.05017924536332324
0.1406295542270904
-0.018550387591370218
0.01006306432376561
0.00926234258278472
0.03439281014821144
-0.0004051500034845948
0.017943994684818762
0.00017808333877218548
0.07617631868127568
-0.017357201656428962
0.03264541065332839
-0.1258680164742085
-0.1445432977615599
0.051473939703158264
-0.023691230265339074
0.01763161793267239
0.20526690862618535
0.06601862752818223
-0.027962760638696987
0.014163115979798193
-0.0036696930023210612
-0.005051832156436665
-0.04390613970216134
-0.0033491605508063965
-0.08680801852549626
-0.038613188567232636
0.054927694314580486
-0.030512770181125828
-0.03709243616830184
0.01620425605691235
-0.028255805868856194
-0.05244156355008948
-0.019754814407538762
0.040234384763985796
0.1477255111790952
0.00473085401322196
0.04766931002593274
-0.022027194881044716
0.036414691967535495
0.025086426932410106
-0.02232380820449342
0.016375741386287876
0.010541961035887571
-0.02670507719750537
-0.003438699348674438
-0.010305180005348897
0.019863114186160085
-0.012630221384513293
-0.02187174033113712
-0.021564914670496312
-0.014213798159956013
0.0016113139945270092
0.0010774036425595932
0.03195899840021858
0.011650935506041704
-0.018981409137639977
-0.014345877731883025
-0.025804882866690367
-0.07027923879426703
-0.004094914902875038
0.04417315582551588
0.005495612060534805
0.017922293224788225
-0.016985316750425552
0.0658495550572569
0.08047057691648667
-0.031020252715747237
-0.0007694155646324618
0.005521894807180671
-0.035023055716672566
-0.06135929117408167
0.0319963033360592
0.0015357622226741764
-0.007723007162334047
0.11216296558852444
0.027552273434456837
0.007610686723342068
-0.010476506369499608
-0.033914286466771214
0.007230881884181072
0.0059640093064253635
-0.021636372374485388
-0.027270753230509863
0.00817370171404524
0.03943343049481816
-0.01316014195124425
-0.015421028173221302
0.04779490431271706
0.004489699709626652
-0.016259325344580404
0.021948497469164625
0.01714981215636008
-0.007499393142398411
0.02446091933984766
-0.0915326556925338
-0.19734000043717997
-0.09572768797483275
-0.005712411025260784
0.041991427516015756
0.0372692284380554
0.022432093496695022
0.0063783253582449465
0.0006651469537420735
-0.03100691778381236
-0.021061750477504373
0.004012919795230215
0.00420803135723486
-0.02314123847192079
0.041473954698965504
0.007044361825705747
-0.0004449191916725577
-0.010353454234363891
-0.02059750105420554
-0.007452992420184153
-0.003520671913227544
0.11706466184697852
0.05323104808253991
0.09885848848512772
-4.7186505231644477e-05
-0.02250469172600448
0.00637318025258782
-0.010839213666771999
-0.022145308785308133
-0.028632181886774473
-0.09073382211330769
-0.010809816190333063
-5.189178688438363e-05
-0.02486452788443859
-0.011011756787734946
0.03221015414197272
0.004680470844743948
0.017810209678070472
-0.014797726236628865
0.02164929350006285
0.011778854187718466
0.007770003917718044
0.003306826433740604
-0.017998522168020836
-0.047519160362435
0.09363702865609523
0.08110535550899292
-0.03074569411299899
-0.009200476896393724
-0.004701314341675256
-0.004793762769797321
-0.009089336890562271
-0.03313720765108839
-0.011005783600319995
0.11192264962174818
0.03440113304416457
0.015128656728490605
0.0019567069009167925
0.006428502463140693
-0.0028625462707810557
-0.06382286765029681
0.003021262043532649
0.033466710938421323
0.023649280942981556
0.008006437132201786
0.04544278667982946
0.013486253414697925
-0.0061215543505955755
0.012742103179428314
0.03235276644866649
-0.0016233561548208905
0.002217197892964148
-0.11535047863176928
-0.07582715538933604
0.019894136453166286
0.00422821074327529
0.06325661210494031
-0.18337320481892067
-0.10766239664086164
0.024116185835387872
-0.05038496224693371
0.004127197476480352
0.02986543794594587
-0.01884609216045801
0.011438461070964398
0.005678928954865479
0.0142309135852447
0.007353241035423173
0.046395290836552396
-0.0039387229837894114
-0.019317720423083648
0.03378398210029412
-0.01875763765673352
-0.054772465662271355
0.004473120000428725
0.05885461776093804
0.07063944116195559
-0.02806040766407925
0.031481547682575814
0.2101505683797126
0.0331814583900648
-0.00905704880868552
0.03376909164746773
-0.004414244068639008
0.02601009270895025
0.04189134639901292
-0.040006382627705776
-0.18040832858401223
-0.0402401628836565
-0.06239081179243986
-0.05901645409175169
0.022992925159083237
-0.04817347727660328
-0.013489028828838278
-0.06013720301140351
-0.05114182611325432
0.026454809499202557
-0.032082736409156896
-0.11017232829646478
-0.0018032587004148798
0.119070410731647
0.008093389125397098
-0.014334879801798091
-0.012328267329739262
-0.021105625293843553
0.02557661093484635
0.02658485508584952
0.04986104246915515
0.03295319739465773
-0.027364160403719504
-0.016934988675040463
0.005022772868222875
0.021556756041522636
-0.020010499704078658
-0.017345503508824498
-0.007196929726661297
-0.011716373451960568
-0.018881051916270646
0.018214421385983615
0.026774819603609674
0.037122397522500156
0.06996933785823176
0.008818544756174189
-0.04161687878843778
0.004760413902976301
0.064981679165348
0.011415502398117758
-0.015011497651649055
0.04132738147009112
0.010557468857625981
-0.009649064805463197
0.08830515048711278
0.13357761770659127
0.007429717130727764
-0.040690742503342925
-0.006239881223421353
0.037375694036203264
0.006433957327175175
0.04388173637531541
0.00790120895358665
-0.007749543190241182
-0.023202965483260795
0.05284865870420915
-0.03456626493160012
-0.06983075776378225
0.03190767097876592
-0.01486260329604391
-0.07796764033301883
0.014379438113603402
-0.0024432937172292396
0.03448799448200784
-0.05313703111321586
-0.06440418494497646
-0.0009527719158406358
0.02906771736269901
0.0545440776178883
0.0027899579395155466
-0.2804989516822649
-0.03980848225047755
0.028958474128086432
0.03442435651852503
0.009097803044406964
-0.0018693479821418554
-0.011448612572930953
0.026691748628099005
-0.008298092821849682
-0.09570610729547166
-0.002934249742765729
-0.009491481583120374
0.02591025064922009
0.006342302785420949
-0.05082760784893656
0.046005761820386196
0.08987712546200481
0.007025560524870038
0.010200599903493162
0.04164292822904002
-0.11262859985868501
-0.05397679823730765
0.002326728621787656
0.010963979876952246
0.08154216914509883
0.00677056206183026
0.0794654654283885
0.027916264476682207
0.0013303098226748343
0.004014332189002198
-0.0776020247744009
-0.003213794891226918
-0.027530544348154752
-0.02540907716979517
-0.013936157323924978
-0.004531336683989231
-0.016142829263430813
-0.009602543500123795
-0.03352306200678571
0.04514856956050004
0.009930424242431641
-0.04124619565148124
0.021930161238843282
0.0016372398600951984
-0.043286824224004095
-0.022168150828298056
-0.031290804383829425
0.11237820511103341
0.027064498509722045
-0.04084452089863384
-0.03909042554205209
0.1574978519019361
0.07039892689435902
-0.028413169790959765
-0.01457023545700366
-0.015838700660182743
0.047591401788093415
-0.019690255486715224
-0.0034751538338500805
-0.03803287846582724
-0.02312096818697246
0.007904201959825854
-0.03603229191094602
-0.009316637440821651
0.021357233647309525
0.037134583561795186
0.006377502181025873
-0.01689843988673871
-0.017161697390687694
-0.020912013126328406
-0.037950132184538125
0.006004490324484497
0.16251077822618346
0.04353228485075796
-0.027657567655703093
0.055718963285376205
0.058865771721172515
-0.04681316555873579
0.003123968522832154
-0.017147989130101696
0.00875604587314188
-0.023361879047978852
0.0020129308444300203
-0.04359481152172121
-0.026417261477731442
0.04042831766639371
-0.008682826509776764
-0.01732866781859656
0.006299173192280067
0.02926352631128006
0.011926347903005634
0.0019978825644130214
-0.031007200939815432
-0.0325493677794012
0.037409393093246805
-0.05186015267634589
0.01768245424376599
-0.01759432764555033
-0.23591102525495572
0.0004880789357553617
-0.009651852491601318
-0.027340882919531392
0.1048959972082414
0.044021310506824216
0.006308538950307645
0.005418683177280148
-0.0038780755344545227
0.020167057319430096
0.006446998788058489
0.0005920264759369729
0.022830939924771462
0.018157193847304926
0.007675024380277785
-0.006215656269438783
0.016987361703909184
-0.008045912832073107
-0.018301470776941567
0.01785958858077757
0.016186183285812582
-0.06160059967556365
-0.01217348144102053
0.010082692557250264
0.047084297416179775
0.07069396072625812
0.0012923107606283971
0.022068328606349462
-0.014901916449377805
0.011276722176625167
-0.0011308402936624834
-0.02427508144941681
0.0015242693919888394
-0.0005186475814256896
0.01940090578452067
0.0065630209101217585
-0.013168826516544689
-0.022447321463062306
-0.003547926703971283
-0.014024133373936045
0.010287553660693859
-0.006818500608735198
0.017823257678702752
-0.0036817770297945646
-0.014774601666961975
0.02489023229639229
0.013572847912717925
0.0017377478019078429
-0.010126629940960396
-0.0036434704992342657
0.05486049512643819
-0.2104235768346973
-0.046404708008619296
0.06115977523298582
-0.00628943774654245
0.0067983353246099075
0.06089259014489728
0.027413224715730003
-0.21336683109104562
-0.011246440684133222
0.06515212027178977
0.030494581361545488
0.029354001086046508
0.0069319353205302145
0.0002650965682590483
0.036750050192993024
-0.09247623113075835
-0.22068819118373026
0.01019341514512421
0.06188733269742743
0.1195592246495822
-0.010988282567342609
0.022801069476782225
0.09416034338530983
0.09509533701260568
-0.02875647888015912
0.18997839481947068
0.005129366212369767
0.07139834285664
-0.06483246606192984
-0.012591830210869048
-0.17803374710538641
-0.13582120245244272
0.06309960957559717
0.0071290580231049465
-0.05822767410248942
0.06642806283527973
0.07977955999163773
-0.0649649720534078
-0.03848069015219364
-0.13297176195970564
-0.0009571371332018964
0.08045615758470512
0.02420126791627921
-0.07513940891634943
-0.026288536067149797
-0.05171685782831907
0.08792207048346391
0.024123299658805237
0.03399907869777223
0.0052558186072169276
0.0011881793103141556
0.0010360878526616535
0.06509692777398221
0.0415740735940856
-0.027793154925302252
0.007128209710605831
0.0477969405553971
0.015612070819973869
0.031685066766068935
-0.02853854321246411
-0.020009825119501088
-0.015307243048361795
0.014353493125068076
-0.029997647697090197
0.026657190452724997
0.03478342510300609
-0.007484340511146777
-0.002706543531822224
-0.005591135358121485
-0.0038468362268902563
-0.0021334147101963632
0.025208324399229227
0.010381811734184159
-0.03333401030062511
0.021936650458625234
0.024848232169047607
0.023825153555512322
-0.027793232319875977
-0.015183377566186247
-0.05046079824556569
0.01852255016422195
0.01726491701222267
0.004383522877328293
-0.03195743352751022
0.028073151849325257
-0.05859199088253555
-0.07283193819007024
-0.008696334448412535
-0.04443006831090518
0.027519930903677336
-0.024922884125745712
-0.04116713866441683
-0.027366296319756747
0.016402403225518666
-0.013439893420937188
-0.0039737498381482725
0.03507090249846613
0.019934582800297126
0.041996415051169814
0.022140016694734022
-0.011587542942814404
0.009561351912833077
-0.002120298168045369
-0.012919118352875592
-0.009260285473877871
0.01510828204909438
0.011477943442451134
0.025583249397886747
0.07920241755324625
-0.014385277322985187
-0.11931232681944492
-0.0011054140270884717
0.03196488407841205
0.012708433601527075
0.0439319055405751
-0.011155260915413868
0.013231685479665474
-0.000825982634491315
-0.004421920168795261
0.009253680927835661
0.04155627508549635
-0.0051755283213545345
-0.009116671157816652
-0.030942141547394535
0.07072921614358497
0.31330192204312657
0.014082022207079657
-0.12900647504050555
-0.005958162418088896
-0.018407640294465562
-0.03729742970472816
-0.033590444804420666
0.05854018449779045
-0.24874714839226528
-0.1663044665890465
0.054522575391881704
-0.012468726964489528
0.005837232981151289
0.02580945182598282
0.05103490772927248
-0.006032414182419382
-0.0029467690099174338
-0.010263115272434732
0.008056127984596328
-0.0077317761394737365
-0.023873415211865916
0.005427644579420562
0.03077349708139415
-0.009708582731904449
0.03255446511771124
-0.009195778613036096
0.05917601689454742
0.022171054104805594
0.029673177625373214
-0.023320584280965898
-0.01166685465564701
-0.019846866158031863
-0.006410690964180069
-0.001590923456949367
0.02379215106362573
0.0003378341947988938
0.006217061762845078
0.0036292928196217282
-0.017359111406521757
-0.010361002904639947
-0.019657683321832695
0.004384804765998
0.01038702250635755
-0.022195232543625907
0.049852059087233336
-0.0771051699069375
-0.11798020015808236
0.01117120578418277
0.019419128436391726
0.007136014149646231
-0.005753769615456994
0.019267325948654997
0.03431901475611334
-0.049589397957342345
0.05337002944550248
0.07812731786772407
0.060569644504603344
0.0006070766991049164
0.015518790486678745
-0.02972098193824582
0.0003456121149385611
0.03645308662932792
0.019469263809489143
-0.09227216561080766
-0.031034717915572805
0.012976878087098956
-0.01971297837249562
0.001647122679813245
0.06183717106516559
0.003043460435233819
0.012941505410408128
-0.03205466311245706
-0.22318966013772715
0.01304822342137552
0.011658600497789143
0.06767558317119672
0.05470080769938837
0.03891435837880892
-0.013510374673369014
0.017302995521626435
-0.01908365876735104
0.003180550148241089
0.0012211054979074385
0.01788771545719071
-0.07230788206855611
-0.017458598017301243
0.030985718388100082
-0.015877351712985974
0.09019886131531425
0.002203338185340115
0.018826076172518476
0.0024167143301217836
-0.02654401023995889
-0.061236519820060904
-0.05823642992462155
-0.02658118416575491
0.004621748710065676
-0.00749100556170702
-0.07325891874699403
0.008372417823560498
0.1849806757600251
0.03921847663145611
-0.007597589872160496
-0.03936716468157682
-0.008737218798189809
0.06455290638571663
0.10394055814437124
0.06505622468705745
-0.026187129873925647
-0.020944402846298605
-0.024640179028041474
0.02997673222702348
-0.010036659516649832
-0.010109227264594664
0.0246069004355357
-0.002358443190646401
0.001733472684935925
-0.013224942974568943
-0.003953240802190159
-0.03657908798374467
-0.02089695799128616
-0.03391223976768867
-0.04133692708796991
0.006409268414306072
-0.005640918897055815
0.04927980278203789
0.003448971912877244
-0.04034733681996584
-0.009374672725928405
0.022463734950445746
-0.03641859612690209
-0.025502915021700198
-0.005285220903157992
-0.03286389818115623
-0.006472323590415105
0.007491752533042643
0.06414617140617594
0.16107196399545523
-0.11700013888511336
-0.15709927456298625
0.021770520434939034
-0.020935408228646
-0.008081549185377658
-0.04896951431462683
0.06514576278629065
0.18957991666847426
-0.051718941699747153
0.006629720248019929
0.020276517767905105
0.011506541854870234
-0.011901378158353243
-0.006755373245607903
-0.050034226094191725
-0.00048749077242589607
0.0026033619528786143
-0.017548990660618862
-0.052141503705089846
-0.016061527905699962
-0.02464806449230242
0.03687774420139823
-0.11476477964438316
-0.04097382855715013
0.22248440359355012
-0.05701477135786669
0.0026723489489203943
0.0040301083900404055
0.0006389054926215641
-0.03789634926914326
0.06729930138368935
-0.011951507469045218
-0.03951387998569439
-0.02941699732177569
-0.05959807359067491
-0.02321238601763163
0.07678873329693608
0.027988237750074554
-0.05019780353803142
-0.05929279764866813
-0.00844236342780795
0.05381141167023726
0.2699648660493853
0.11179912471559043
-0.02630816791602115
-0.03144112681229593
-0.019507857756844292
-0.053771500597280086
-0.009482885491838317
-0.007839215026033144
-0.030539099858823637
-0.061788919156897756
-0.020895700913101212
-0.038201083278998196
-0.08265001069204245
-0.033654235060061814
-0.005624406429540778
-0.041494633514126175
-0.02752556894801596
-0.04252679988997521
-0.041039131866844644
0.002776926184561763
0.13751281198229234
-0.026533137518570987
0.12169460416707517
0.2533795596336288
0.017806468244615504
-0.023817631965594704
-0.024322500895537263
-0.012824587902532516
-0.04858712099005305
-0.005147879624429442
-0.04488709695805061
-0.03977183378098577
-0.0044386143220233555
-0.02572306461134277
0.028778333503923764
-0.029527922009587988
0.05193370596782107
0.008112673319446694
-0.004518726205955133
0.18690328373533588
0.026894016999874336
-0.03517929166461602
-0.03523456671953333
-0.02600353980307843
0.03902292780792362
0.006248616514723195
-0.023714668499610844
-0.044870100032675136
0.04123184418256739
0.05321617152680421
