0
-0.022680852233666348
-0.036457535461840836
0.029681943086206083
0.0645137933590011
-0.011347886391571265
-0.03013426662425555
-0.017819085412753115
-0.0088566753862043
0.008999756630696357
0.0029398012879807162
0.03701569854854778
0.08067078591049541
0.1471577486512161
-0.0031498565240245632
-0.027368666968223765
-0.004515852416911551
0.027328565367475438
0.01156773872634585
-0.021413997673949685
-0.012228622054209852
-0.0021423937848047353
-0.02291070429072683
-0.06121709202137299
0.006299094100239553
-0.027932098225251625
-0.09236443063243668
-0.0424919492590795
0.05660352431323144
0.02846835613588423
0.152643933616119
-0.01756360830792507
-0.2502959589794605
0.015444305205606463
-0.02431962630777338
-0.02314657922383405
0.010913811545178679
0.022724970875572514
0.019455321057883442
-0.029425061417808405
0.01920627245155636
0.02962064279475043
0.12847499907232962
0.07541510679501064
-0.029711517296043825
0.021201513760850867
0.018699924959218822
-0.01060977381652119
-0.002269067730558701
-0.009346928662027213
0.003884727786849143
-0.05105788624634994
-0.17130639252304794
0.0032426331140866225
0.0033833276171548335
0.001186980194832365
-0.02747855847159419
0.01743333241316607
-0.013692374713236578
-0.009845488644067632
0.03001967314521469
-0.003537299438450444
-0.02698253464246736
0.005527262220489494
0.02038026249546315
-0.015387033074499276
0.007441321969532967
0.1103878606078418
-0.01853198626031072
0.030042331263410885
0.028151839926662776
-0.05771630163816281
-0.00273999918808922
0.028388327732596814
-0.007150700009276832
-0.011830579943179294
0.08512765819308009
0.07799091008114407
0.021850084460034527
0.07415528824419063
-0.16713570211307177
-0.11945834540303457
0.029775044405651416
-0.008485947809009816
0.016756000753052534
-0.012365494044418607
-0.0030933351880011515
-0.004193173350895029
0.007366323690480592
-0.024980390561956833
-0.0350936396347458
0.009392553261255335
-0.01777445293230243
-0.05529397598896898
-0.013116362619421005
0.038377206143674916
0.01932023884545334
-0.012121476574372226
0.0035704671189685107
0.0062607203700422165
8.474608314721136e-05
0.025132977542539625
0.0027826385684607455
0.025251913379064843
0.004307278300121311
0.008812812754919847
0.06193535395786289
0.002400091013524011
0.009515593996562599
0.040186032517880714
-0.08778616950418754
0.003799356820679222
0.03321481976559909
-0.029066894489143402
-0.019224740213034566
0.00936141158315716
0.010607487759063186
0.012223045295075672
-0.010545209714033641
-0.002801732447862191
0.007364030372389572
0.09267771231532397
-0.07851839458124271
-0.03646302222077933
0.020321363703025463
-0.023706493333549395
0.0071233019080391815
-0.018127643519101216
-0.00667324597952468
0.008227767999425964
-0.007222692646081594
0.00017073122147598477
0.022373595102645052
0.005539559769152099
0.06174150715411481
0.07319064135009436
-0.03355654110671085
0.025272788010748545
-0.044373437390794926
-0.10532693631693693
-0.06512977047328512
0.018928130357114614
-0.01962032590137058
-0.028972797927782595
-0.05731195680659904
-0.0021188172776482484
0.006816791204376434
0.005613958097254466
0.06169930381538881
-0.0006041893213348254
0.001378481606506567
0.09914493464930581
-0.005603853648194158
-0.004935098830154652
0.007142807065741822
0.00034999803262361515
0.012895942883011305
0.010971661962258192
0.00855608775954346
-0.02941761263230586
0.0350485036392399
0.0271585178294196
-0.006079842652782066
-0.02536628768992126
-0.04671767815536162
-0.07213123589336044
0.05492887558280184
0.014638842121668503
-0.007305809663836489
0.0004043766162516162
-0.017939844325833152
0.0302098208637674
-0.01120168325369563
0.011389429713139798
-0.005717500554567307
0.08565582881344706
0.04859544272669412
-0.033435586277998135
0.001779790951847949
-0.011933888700793113
-0.033479892293261024
0.018336435282773046
-0.02094060658377893
-0.12009391024294422
-0.03111160791086955
-0.028612683826805048
-0.025425390473596376
0.012681099573859794
0.029662788516083668
0.0066733476540129545
0.02050378605724718
0.012487014137839753
-0.04328760729691215
0.025314704947022097
0.048025181399151934
-0.014368797122257021
-0.008547875388721347
-0.010666865716784206
0.0005174679041470457
0.00969122777477033
-0.0010698614907751671
0.08705318931040927
0.02262809464368228
-0.04492304208731509
-0.003066359085056642
0.008557932452668103
0.006112004070301204
-0.029927776476544547
-0.02465572444305375
-0.018483643531852743
0.08804421464710378
0.05219553487763342
-0.030942800796858037
0.09726517751279228
0.07254688643402318
-0.01983872769279086
-0.007244421645435489
-0.04363184112649443
-0.006300946702320442
0.0014855984298424484
-0.06171237082767704
-0.03259159157569566
0.027959135460938443
-0.015265528936152703
0.015589249058265418
0.0025656537382571344
-0.000652821413090817
0.0031041319814058893
0.0034095135848030427
-0.029164884359792784
-0.01417777393314536
-0.025380850173256624
-0.03022012086688594
-0.01100593813730592
0.03162062387849689
0.01183566033253556
0.018508379419060052
0.013748204152343608
-0.01741568332431272
-0.012293154108364202
-0.014840342410670775
-0.048815225494661794
-0.003761465393964775
-0.023330095266899182
-0.004849644962272628
0.04999841802055475
0.038073461486100996
-0.06399823859453843
-0.03618642076621409
-0.012897464018424608
0.02781847469783941
0.006247035790606549
-0.02131681858214453
-0.031788178334582716
0.020627982088040193
0.016689435902059763
0.0027955789220699802
0.018258839885023085
0.0009042438028551748
0.01232324279938665
-0.03320299638489521
0.04895166806044815
0.13904412212220668
-0.019992797375379123
-0.0015845802280484076
0.005057890465404521
0.006986610466769859
0.01925036888834407
0.024507429791450836
-0.00035052086496587865
-0.02180097966921838
0.02642422371797911
-0.006851651259335422
-0.021246595923789233
-0.09644042780210783
-0.10771781733145
0.028490184849357517
-0.05064510607780777
0.05452229482567685
0.03404333086731141
-0.01159744177838094
-0.03278895828638887
0.01290305972143492
0.14783638364192347
0.0691931424898545
-0.027099735996136628
-0.007718212511218989
-0.02650268673693922
-0.04566565467574645
-0.0007632271178662487
-0.08501255436225479
0.008038720030575515
0.083631648613309
-0.019499455909816377
0.027491543099328507
0.011469041724731528
0.026456804720000764
0.0062776530396952655
0.02588258514857711
-0.12863151496799985
-0.12760540593561037
0.12547909209750482
-0.029010317312617096
-0.014467012462045774
-0.0534211040627163
0.02366568333935829
-0.02166058751346873
0.031506243964241655
0.002700320928977843
0.0004186390231290143
0.007263230300665525
0.06739406309287321
0.047706745056223694
-0.03131823193391094
0.03513011624639287
-0.10461784857373024
-0.1905783780866684
0.12911715628656464
0.0187264487034282
-0.07636351415263654
-0.023792218512989724
0.019330826026193192
-0.004289980488956
-0.016772897369138045
-0.0381928886884898
0.030425236708361808
0.024698868616732168
-0.0014492734184885657
0.05000071967404756
-0.0074569741400846426
-0.006908346930079634
0.008237464053475562
-0.017314394801355798
0.022888163346408974
0.097351371720317
-0.0038974688181781345
-0.024461218832895235
0.004702011987367065
0.012965687470100679
-0.0009449313743983486
-0.0003486971231215577
0.001677553486945672
-0.011841089997388338
0.029437376087893215
0.009450133683770325
-0.019373233635737078
0.00027507697535027555
0.0023955367815724797
0.06547372734974381
0.16814751732637673
-0.023558796066260313
-0.0423177214492207
-0.012489209777585213
0.020054235882044757
0.01998278343457891
0.022469470848089344
-0.006085532171569015
-0.002044646156752579
-0.009629419907019125
-0.025575074736582104
-0.05482873994382185
0.04162511258889535
0.043497373798814264
0.011692144761937964
-0.0204387000980073
0.0023788381299823616
0.021834182979613977
-0.046533360373283546
-0.007485900356291061
-0.012407125970763494
-0.004538174217270733
-0.016680866031530586
-0.01443540841216728
-0.006713257878936044
-0.05152854125748092
-0.022902649892713015
0.02373694542185068
-0.005868967367951824
-0.04020358374423067
-0.0372179774393002
0.023511264764505116
-0.020794513470550138
-0.024540369703490158
0.0017740304504877237
0.003837465436015344
-0.014183766138632644
-0.016399351016525794
-0.015322464565647096
0.03796926134613016
0.00586809744496068
-0.016891647286157482
0.01694791508379787
0.0015601454468495703
0.009430804976032521
0.07601272509814921
-0.043227912031219284
0.018205792565865606
-0.044927259894736615
-0.07423321397856449
-0.008907620528942523
0.03441080862348879
0.020446213305468808
-0.01484187311374
0.029062306796954835
-0.006271910246383014
-0.026649832774477404
-0.01660238863587618
0.011617266276822403
0.012154409078067183
-0.0283566384789338
-0.004027096563938495
0.002914601965894557
-0.013040295426328822
-0.03225756313785331
0.026282415721275768
-0.016183006904472753
-0.008306236833382509
0.010181129452502763
-0.07798233236554437
0.01281805769340592
-0.019980439231369326
0.08394347098253682
0.24286758983439025
-0.01827378034056616
-0.034415950120115425
-0.01682727633201941
-0.021883515028243827
-0.003488905847042997
0.010887186084590668
-0.005958744539280661
-0.005567158512569325
0.0047409206855838154
-0.016299764321720745
-0.020325362458008228
-0.033551054618035016
-0.009043874878502172
-0.03908196575381929
-0.03738005616024042
-0.006221214917708644
0.05240305607948277
0.17676089867959993
-0.030382030577639083
0.025409975695386226
-0.009470178298892122
-0.03808233062836969
-0.024358774480828738
0.08678015611050796
-0.013799667495656302
0.004531797811598167
-0.0712979389045188
-0.04005692196895434
0.05677089025500547
-0.0444958617068013
0.00846902952866286
-0.009983550408336291
0.003441514052023877
-0.0029937190325111025
-0.013894429196448494
0.09076521803640368
-0.00736382544703797
0.008126867975802123
-0.020907171385727355
0.008932457839539977
0.04385285760502683
0.0024078373529914827
-0.03736486427270437
0.06962390960501143
-0.04708729379474436
-0.0859792140460528
0.09119961835137164
0.04808735344671715
0.0314979938693144
0.005013335410356038
-0.009858299815751752
-0.004706686302994858
-0.025402566306780606
-0.013977717524481957
0.001532444189645156
0.013539404005058495
0.02315347058079852
0.014932178512773012
-0.04204189746125512
0.0004102994153350385
-0.008364312376402585
-0.003120507880254437
0.013096512829964971
0.0004375175711956978
-0.03319689960427261
0.05079025741255286
-0.019864172410950273
0.0337871126975809
-0.03912535996183024
-0.2318776642461517
0.033605251363810956
0.013752840666546503
-0.013937473829616716
0.01679091513278987
0.006947649535467221
-0.008965594606095067
-0.05447216299669404
0.02788674732981871
0.03177382305424808
0.13597039423445145
0.03970817251699897
-0.1556839220063828
0.014916587668454826
-0.04274162192995083
0.008662343143456371
0.003744030804913614
0.023073925367757923
-0.03079060921161072
0.010085791440756385
-0.028447881654440562
0.004305054782834703
0.025903804985432106
0.023378412090319118
0.007387630958562855
0.012949470283974982
0.018632030779635822
0.00409514296154319
0.01095255292041084
-0.0511988353749833
-0.0465636652134994
-0.02846747584526577
0.023961680919762897
0.027336169995247395
0.005941896553896645
-0.007493443019615367
-0.02053924222325539
-0.009887924812480721
0.011465038094236444
0.019167062333749554
0.02241150548510196
0.018149536804450937
-0.0022494561503170825
-0.04743024535306827
0.05706635461784759
0.0028223171431544475
0.06061431079530187
0.02920057467638007
0.026233008258390932
-0.11740413843594111
-0.06620995136680029
0.0552477945884102
0.010682527610881589
0.03257807946971178
-0.005414989673530131
0.023898197053661772
0.03424577086473538
-0.04670563652275298
-0.2281347355383581
0.035505258780994024
-0.003635786553055174
0.07593566636099856
0.022109023312849876
0.0066121856275142155
-0.010895893698116202
0.013354992530723815
0.012485663302682292
0.04412589376506896
0.01157975240734378
-0.015817209501247036
0.027702331894382756
-0.019032701778474728
0.0019465963188291396
0.009908003788795484
-0.013926976336742737
-0.03059261788038867
0.03099926196080975
0.018484116215047787
0.005086135658838905
0.022063083298481802
0.0020527753798798925
0.007118207035787163
-0.0096776340431189
-0.02252048039247162
-0.01697804487793198
-0.01009564478906061
0.019341270997974933
0.02856990778101035
0.011307163072390327
-0.03313681494258419
0.02313993707545827
0.16583338148662144
-0.0018531158151786642
-0.015664343433470167
-0.027906644907153486
-0.02069248370543303
0.013187467694613436
-0.014352186481379526
0.009157716178248522
-0.2074398530262075
-0.1725307638947064
0.029542845195271568
-0.0203953441945622
0.007663957201293418
0.006528709916708526
0.010438127643773533
-0.015690198273601727
-0.0007174593735417569
0.005462114621507022
-0.013069833258005013
0.125509989660003
0.02557076244259489
-0.006736007316897105
0.010514184686372366
0.042943387651847714
0.0348491849336853
-0.04712610691114114
0.003919640019478179
0.027472525993841833
-0.021850173126686346
-0.013021779446828046
-0.007832635695251191
-0.08040152727168574
0.11001944381662641
0.06551688743558166
-0.01451359146649714
-0.003075450738001437
-0.02405269395857073
-0.060622368663765636
0.015328357728668201
0.03523282095784552
0.03552706425178838
-0.010446945096995945
0.05028006874576088
-0.010509477565509573
0.010032390583842562
0.011269979297217661
-0.002803906804459949
0.005405071570899941
-0.0020223894630245366
0.021371229469666613
0.018934342178003633
-0.11137725491655316
-0.003139556879140307
0.008199521562068414
-0.009422715042965126
0.01831286290695792
0.07502154244588474
-0.027918909258208224
-0.052362893373946166
0.0023687214264833055
0.0302855089687083
-0.0056667725003323646
-0.025234229679742093
-0.02525474294421996
0.024659453144300816
0.03755919557635174
0.04487284097693769
-0.0013409809736666194
-0.002187601630299266
0.007227188704749558
0.012911358074316169
-0.06340151645526995
-0.05693872490848159
0.011697402611639623
0.0019831740164825344
-0.03212870525530701
0.03805571927288527
0.009664788027466039
-0.03804056174541332
-0.06012277084815892
-0.029311899329854407
0.024499335973249377
-0.006027425696760439
0.00020935027520154316
0.017469527552595412
0.05231282064128956
0.052705460495968595
-0.021182918199391793
-0.04024871748271102
-0.04169467144069479
-0.014082750710323746
0.018873840839337755
0.0037933278342172877
0.005200370811397835
0.004801656789996288
-0.04636025311313515
-0.018014737390502418
-0.007730193281678816
-0.015271535747198264
-0.028318339579788313
0.010303818095781932
0.03541547808495318
-0.06276651124327444
0.04359735174342032
0.06998396026743542
0.02272936092141428
0.029673669581651265
0.008371701197693829
0.034005540895347006
0.14938156199995783
-0.004637727828862116
-0.08187756255035462
0.042021435051548886
0.022946389648185486
-0.03010817706161816
-0.05345589682842241
-0.011538080654388095
0.006304573270685004
-0.00859626689218349
-0.022722579196929885
-0.12020507715607623
0.009963955918218876
-0.0046328563001274145
0.044904119257968084
-0.017292392202309954
-0.10859373145484952
0.03999869637537812
0.017024487265150923
0.012530225883414632
0.00958612676908697
0.015746279472127284
-0.020777072503729645
0.017193222326533558
0.000614420073590095
0.0174083670060657
-0.00017676456323264113
-0.013309705531417167
-0.0033210152903164303
0.01927130966838817
-0.02592833537594056
-0.014651400129073554
0.010702204533409298
-0.003707765719283952
0.006409248477779392
0.014753444740506138
-0.002055464194753271
0.00933342897085855
0.004521245692147989
-0.021684129950733686
-0.024843071838716257
0.023538616933268024
-0.018357923772791454
0.011833609278068462
0.026290480984268658
0.015212489767150143
0.03891692070504044
0.03031342471517807
-0.0664352171816204
-0.05742290368498452
0.020065622146500504
0.0333663441492038
0.013918357213018512
0.08336082957864943
0.0601667026248112
-0.007198142362073488
-0.012151851358220365
-0.009787423393958829
-0.020073300654790786
0.04861482703627852
0.06386259346909938
0.033128708495687005
-0.004639252715970155
-0.03879228585066831
0.0022110120359169066
0.0013744683616092907
-0.0016812529731272542
-0.0394337493589339
-0.048206510115408614
-0.014028634787776249
-0.0055843898786838535
0.009565528995790488
-0.01969526548422102
0.026798601221269126
-0.03321856947680674
0.0296600869930754
0.0036217326262964855
0.04708703028150435
-0.19924966710050698
-0.044505686257037894
-0.006636076057334922
-0.09035920729379757
0.026676612465655558
0.0029470093419221035
0.02032682344340001
-0.02875237232928418
0.0248858751063354
-0.001617817208738851
0.03642451634463738
0.0343512590968702
0.050214047004191076
0.015494438226513507
-0.02415511486364562
0.013691717570051247
0.013593775396845722
-0.008968689332414036
-0.028096571289328756
0.011757218769950808
-0.020193565451311575
-0.0035600533929978757
-0.013164573031564038
-0.006015530388674824
-0.010516631407276256
0.014595831467286475
0.02676727000544757
-0.007037219998831172
0.021062554521185273
-0.0015297357072567817
-0.0005086382492109497
-0.008858311918089076
0.017915521691783887
0.022599684478499617
0.019933325492671117
-0.05256615270339364
-0.04903393432070993
0.008161628573232375
0.0062303614514012525
-0.050513275382678705
-0.030353350900912953
0.02825722941286888
-0.03662038735910122
0.20248212016869255
0.06019491774268478
-0.06474032458217599
0.05031467020854943
0.08496780128651954
-0.00837257457683539
-0.04448152012560965
-0.034497387455801505
0.05365949105969659
0.00991153419787488
0.013337487471984356
-0.02423657252043773
-0.004727668161201524
0.00574159943021853
0.036900655625399355
-0.040835801907068876
-0.011052994961105896
0.0035769294933423656
-0.00818419029605253
-0.03489985627730928
-0.0032932031595419445
-0.027753587077973804
-0.038960122178105294
-0.015184709301710784
-0.024438781896649484
-0.021477467857891924
0.009763544341119488
0.010235511202199288
0.00473720798308379
-0.027521384050544852
-0.00892948659717056
0.01459635365811164
-0.0024091970679857924
-0.01408707067359994
-0.026793337236994452
0.024493299142198017
0.04746213815813615
-0.10964313024163443
-0.04809105554080773
-0.056175196546284625
-0.04070290141695657
0.006991088307526715
0.14903572369672127
0.0005692965395592858
0.05169244333873387
0.03114583460802607
-0.06490098589278911
-0.010841271930444225
-0.013991706124726293
0.004890678162568194
-0.01478750848071259
0.044156917699367186
-0.005201796225109175
-0.011326139408028929
-0.0007596156411528667
0.03391496078912063
0.09081612247817314
0.08864548151651877
-0.026135822459046415
-0.014148207585890934
-0.028260917613931506
-0.011223324675689449
-0.01542720564746858
-0.004957983722663536
0.017714311806680684
0.021894458025427006
0.03969494671030046
0.00219109908765878
0.06497350144489566
0.08601918165151254
0.11048107782822925
0.05214657986322715
-0.02686353348185135
-0.039074954099765365
-0.005322733616032695
-0.00919397311801963
-0.0039687147358875565
-0.014794678548682876
-0.03337793730448503
-0.23042335038276723
-0.07563988192902348
0.01408637019809404
-0.041279546700228736
-0.0381263043031794
-0.027129328484947743
-0.0010034789668133097
0.006914002212774228
0.01648377511543372
-0.027239191999028998
-0.01939828185397668
-0.02033230572517405
0.04176594540443067
0.0782817308325599
0.016890567517361697
-0.0010540056669976633
-0.009909694955274294
-0.00654728700733973
0.022597683105449122
0.0029390239247856524
-0.03040503915093556
-0.011208879132993848
-0.005829478460774075
-0.037616353363166884
0.04028433101280118
-0.0304722413721611
0.024342686610940446
0.08750321108296158
-0.0473232422303145
-2.923690146009172e-05
-8.984993503217178e-05
-0.01174942851159294
0.011979075721825482
0.022737979079413294
0.016346960790921235
0.0021542616628894766
-0.035096262421169894
0.0018903791917567582
-0.00969366056150763
-0.024386053168417635
0.017405253255755433
-0.04102692985950706
-0.051883359830351056
-0.026683890652985476
-0.05052195146458189
-0.026841869885298183
0.005262290733879997
0.019220936796982568
-0.02183123573734173
0.010884997470427463
-0.04849300384808412
0.12315376644504288
0.22568907693361018
0.005160484929455186
-0.0057901974997915506
-0.055873055738590624
0.025438264791356115
0.007980535206764406
-0.06753083091289783
-0.04055696287941533
0.007917850552810576
-0.019660994075916163
0.20469226245147462
0.05544839109501854
0.024829093676242853
0.006820061782931887
-0.049141054254279296
-0.018144546471577844
-0.008833244502541148
-0.0022874577116231373
-0.008883934109230336
0.0264188341008872
-0.021636540817939892
-0.020048651060815926
-0.023509612821437993
-0.010897451274338941
0.018504071567498753
-0.023242864807695985
-0.045841895162406096
0.011022474386677278
-0.03537716938583062
-0.0175668076080689
-0.04431735778968345
0.019812046964878607
0.06600444785405649
0.018090499476969155
0.03686010393859266
-0.011954613164030957
0.0024432899836775187
-0.013604485491946247
-0.027992988673972714
-0.0016999419169954626
0.0648742263262222
-0.007067201078776159
-0.06039940543586375
0.04764197610850051
0.009839325949785595
-0.009114128619221222
-0.0805161336171923
0.12016141116824913
0.02831586204311743
0.0026517757270067685
-0.0870057645925955
-0.04527884559139288
0.042223542621706384
0.00990498700231702
-0.02184693768534773
0.04965013842866261
-0.1235765569178944
-0.22033155376207728
0.04890741693234182
-0.055406532233243225
0.021587188004751807
-0.0431111784757249
0.024817702316997273
0.12965726778434425
0.024218355744600524
0.012631410703617967
-0.002178336246592426
-0.00015053331823892645
-0.00018670337035471646
0.012729337195597986
0.13743009707753967
0.00919442671979634
0.003816315043291777
-0.007532860764191765
-0.01656951309485896
-0.04978656548161414
-0.03197620700966359
-0.038723954995957904
0.007216761629042651
-0.00024977305248130674
0.08941796409444597
0.0624119466502649
0.004818721065933312
-0.005849923677980943
-0.02582760294189872
-0.023031611738442252
0.004096637766674076
-0.016408106865106162
-0.001522186490964824
-0.024708659358742047
-0.11394913607551682
0.0031287009605311254
0.009002368530183722
0.071804153040803
0.029074385568081187
0.0011402800507588095
-0.008266983208065161
0.02832748817735619
0.0037404151888661462
-0.008759186412200885
-0.0005556504091912582
-0.023723920578688183
0.02011229534038119
-0.007593158203266373
-0.008502085925859614
-0.02821240837191436
-0.01711219106218506
0.008365596061125207
-0.012473392118354527
0.012957143556024082
-0.0048537100367733645
0.017050379659479142
0.0047096404324609015
-0.01900896595526493
-0.011076748603674238
-0.008313979203437195
-0.0012438881466616913
-0.015943994893116875
0.00914736594937438
0.038649004068523285
-0.02934067483306121
0.032860176667928696
0.0018219196721131477
0.013938427569864093
0.00757204166418009
-0.020733924628881628
-0.030519915662659398
0.04956064599344306
-0.007030174203543483
0.022319888216557622
-0.004381612841616015
0.011660118985816769
-0.009749460524672805
0.04303768454749816
-0.1740271336236017
-0.0015366439674849139
0.07585601447195793
-0.006882085242362934
-0.0006975510978395294
0.01741261908421889
0.021353486726443844
-0.01571905020147781
-0.014062784985594998
0.037290882223120395
0.042860500756763335
-0.012792338873510353
-0.0032825251159789015
-0.005228197253274449
0.017807553455648037
0.0876595981174564
0.10434137299574568
0.009827539706767153
0.014312569334640089
-0.053935941224189675
0.028335256412857036
-0.03475871946618642
0.0069469925845410205
0.004296170939107786
0.011201298769548116
-0.03676488615443941
0.003029137852880155
0.0021198299848093605
0.003957212369654691
-0.02453924612895242
-0.07746932556882227
-0.03172647244583452
0.02891271034370439
-0.01428602734900552
0.04964293570150154
-0.262065180413832
-0.12098121415372583
0.036546571731975924
-0.002857352775775555
0.026435537650731956
0.007342006589164355
-0.04352356154724969
0.19444974938222168
0.16457546718992655
-0.013159199129504556
0.03671596434149943
-0.04069230089731901
-0.0880603907893303
-0.02387425293144516
0.03385390260422
0.00487939366626946
-0.05776760496037499
0.017310623089930848
0.027405524329852392
0.004587603128102589
0.00870902074155752
-0.04095920286878647
0.012522531090380392
-0.021763550338546635
-0.07118479403578773
-0.03209327888283502
0.0009129153496604111
-0.005505836198943527
-0.00255929945028145
-0.1236267819262193
0.037175087397489856
0.047818461421567926
-0.004620805644951282
-0.02553259095221101
-0.04010301199426873
-0.01003686842524437
0.03168050831148675
0.007756703079542965
-0.009413143270898334
0.07682070557859152
0.03436010366576693
0.0064932215981022895
0.00048204503896702737
0.026116813910975922
0.1647127254464242
0.09335473831645906
-0.04721349808623433
-0.01621026307476736
-0.04236363304731305
-0.0008384553130111747
-0.03761993115554189
0.022715474250531102
0.097284951476351
-0.018993757633115314
-0.047309487258235965
0.04083829583803062
-0.008092167112047143
-0.04101795662027702
0.03229045338468233
-0.05972797885126979
-0.041339296308924654
-0.005120534386622747
-0.020243416038739245
0.06637280576434948
0.10373820416944028
-0.007235481324576781
-0.0008992264032114571
-0.00475178281054816
-0.016043348249088433
-0.013676291795944729
-0.01604646511231295
0.038840631401616255
0.011286862547831112
0.014866593296194846
0.0021667252675561764
0.010069709410568745
-0.028580486822959567
-0.033714229758285016
-0.015784968810211596
-0.028881033921003593
-0.04000392024329081
0.014062045216530386
-0.0338027410654255
-0.03528288329554361
0.025240362375668176
-0.019111144895334272
-0.0025947116990383966
0.011825971055190732
-0.02122407523839104
-0.08866158551932048
-0.026779514411086176
-0.020152665674364825
-0.000855652504847122
-0.012101981918654366
0.005835318999416371
0.036165837462814675
0.016412681558353685
-0.0203587054939975
-0.011160801428938133
0.004949575094655981
-0.012085831784292154
-0.01488960571607433
0.009703340370036492
-0.04882889282843648
0.027560705595532774
0.09171268947424532
0.04065420573970056
-0.018169408962238443
0.09986537095030039
0.03647078132039914
-0.007855096108807264
0.017177775509197454
0.09038737173253605
0.04293114375689784
-0.0045193223509052485
0.018655214239444003
0.006744344592595411
-0.035036519960339116
-0.06023095644888669
-0.14896969417653314
-0.011781837801796464
-0.04527068535161504
-0.03312225506431108
-0.033334163427923176
0.07250037610640782
0.03402715665771933
-0.021915889833258224
0.02319774773176927
0.018719291677425833
-0.0009247875409830121
-0.009772354604502211
-0.002838807416703471
0.1114677934004826
0.006021380969565857
-0.004993943396999627
0.008048376444465228
-0.0020296643143729175
-0.029120784405417238
-0.01986817704055322
-0.014003174775645732
0.08714346689761843
0.06703607402532183
-0.03456253271425043
-0.02249457125006607
-0.025991473891551892
-0.10439398192199525
-0.08408079073854875
0.007712463825217138
-0.011828349742895332
-0.009637056036657958
0.016431607164560724
0.03067321627513771
-0.037014904918962234
-0.03425445286145956
-0.00903889311226476
0.09613768891952904
0.06111511858971822
-0.05179594354862544
-0.009650446549522846
-0.02316819756264194
-0.022266002275299387
0.011519731365550857
0.03520499327455554
-0.0573088688168617
0.06383106936030505
0.031525475126314456
0.003717712700946165
0.030390549317135147
-0.02314401758506195
0.026750308835148815
-0.006107713399949069
-0.0013803457163476553
0.007554831997175398
-0.001712971452333853
0.046757169390948754
0.06780528435428423
-0.04323620471489463
0.05053296377374342
0.08379437348353355
-0.057803348298701845
-0.09388934230251103
0.052185209433967254
0.019537407133214592
-0.03304200402321031
0.004606134363856264
-0.001883756664426651
-0.011155136056258268
-0.005299188845352045
-0.02202269378966411
-0.020634588265807125
-0.011605808999695679
-0.05433371410051774
-0.013165927215561844
-0.00014220390361442786
-0.02175909059433451
0.007922541759677378
0.0038865757403769674
-0.04429849240454819
-0.03629601314427959
-0.011101319087219601
-0.0344069663393189
0.04892638017381782
0.00032359587422492594
0.021440917103572682
-0.013128000050497933
0.025453880906990727
-0.010424741031871387
0.03697486844303818
0.05971246737197494
0.03789000637260785
0.04156046695535915
-0.03265656034469366
-0.05436837502239886
-0.009062201432873902
0.003931397629328959
-0.012621483094113643
0.04222130859840238
0.04200059697981228
-0.03495419671733597
-0.004439394792197368
-0.015228963246504596
-0.027828256491791135
-0.0094222146740774
0.006184432868547149
-0.0027636902156710566
-0.003267402589089123
0.016528652043265802
0.009087845032810807
-0.0212910303883288
0.02327196513773848
0.02298042641742867
-0.0075990874154892455
-0.028792904873599902
-0.01510433806804631
0.00297539307781781
-0.00857391527551095
0.006214716932379324
-0.010863805928933021
0.019084482529525514
0.036043965682224476
-0.0189461563171856
-0.014884625650492712
0.031859872037809135
0.035141688571372544
-0.02316837387847777
0.0006002836441435175
-0.11254141739281971
-0.032834259187261315
0.04102968768702959
0.042603089326503564
-0.018125153381289068
-0.031000467252740412
0.043106424000211904
-0.029429454223661746
-0.0013789680842564787
-0.021753893672492405
-0.04296944992024925
-0.014681667567281358
-0.0038035922127782505
-0.025665131095661438
-0.04145101650788751
0.038811741067390604
-0.03632011752740248
0.0019042837275318738
-0.04524362240406731
0.20705252885185396
0.162860171706315
-0.060089435921837235
0.0005631090318219923
-0.02077027574683054
0.019659090957168026
-0.021259658810277412
-0.019554224720808425
-0.021390562370771485
0.03015027012073483
-0.016903297530101682
-0.03138657894330584
0.04740860344932571
0.08103727434120284
0.02135943476040334
-0.04344511155317003
-0.03179019304132345
-0.009641440596450685
-0.05628015273385139
-0.03887633014490181
-0.027677525915152146
-0.020066363864039698
-0.060066358120384265
0.03520616076733865
0.043798219220525375
-0.04839830473748134
0.14123678155539174
0.02559759089307748
-0.05602188202174608
0.027204543864407793
0.006349144951112981
-0.026518260634868174
-0.02543854821896074
0.08177926446168012
0.007593240338252347
0.0036319738461125534
0.02308540389975494
-0.06428727180249662
-0.026537397276284624
-0.010424241913856908
-0.009824027878238868
0.0012886821699102235
-0.027556179040723685
0.006650296715708715
0.12643952212348525
0.07870679797556024
-0.028467460126414608
0.019388726756275475
0.11046129318804102
-0.04260975383021278
-0.07382386558049168
-0.021500389254465548
0.026433964964149185
0.028908728480167248
-0.003600744982096498
-0.01944563346600444
-0.0173708090909463
-0.021262722577125054
-0.028863602807975987
-0.0077159419230999554
-0.013203806194129742
-0.014951807847301818
-0.021136934154152076
-0.029193100581940162
-0.006330834166579735
-0.04820511899008297
-0.06286449679096644
-0.03451746988496714
0.01336143764986923
0.006242299336141682
-0.004536695078888155
0.11396863447774928
0.03949210599296497
-0.02152904690387338
0.014547776543705343
0.01889125963077721
-0.006269542402829556
-0.02328347804520389
-0.020203050897762857
-0.015134167246225818
-0.05901881420416143
-0.04711848967719045
-0.03998743314274334
-0.09358235690082604
-0.05141518515473074
-0.07153519811725924
0.18027121841433089
0.13411565220095245
-0.055666365917457813
0.0496782122891147
0.14256760045374303
0.015464022491277716
0.0007138433815441136
0.018837477745678132
0.01739852161360433
0.0031807466310011813
-0.01208399509080145
-0.018287390095480593
-0.018186884369570503
0.0037877965649143965
0.00013918104485648666
-0.01271718136867529
-0.00043730700621092447
0.02665218741915984
-0.02339336024827315
0.04311711826163839
-0.024912723851429907
0.04586181964412187
-0.0489056181079691
0.16831404426834734
0.10658250054577581
-0.019252457407796145
-0.04038720348003209
-0.24934479405189947
-0.023672377967591612
-0.02392946428159788
-0.03817046991111936
-0.032803272407445225
0.01074345022894467
-0.03601580417639876
0.04316087373655624
0.01674619360504332
-0.06178735683237142
