0
-0.03563074457704286
-0.02063189312732087
-0.028550496113166124
-0.023328158226688097
0.024310348943781403
-0.00974978397211364
-0.0038450791457670295
-0.05399142549752223
0.012950288487417217
-0.020071173709159004
0.06288023030040175
0.047892304250843835
-0.01806825716049656
0.028555655246219187
-0.047986258135714985
-0.059924623983167655
0.044185920748194024
0.025662497677878728
-0.0183808287748882
0.009064012742194993
-0.023133892326632162
-0.018068977344140053
-0.01047857605247774
-0.022019990235460068
-0.022674341948833384
-0.0049831016456569855
0.029609718574180786
-0.021149175502956464
-0.04363404498045416
-0.01776045318682118
0.0372455322185309
-0.021173705030083836
0.011070478072553125
0.14889309821880814
-0.03200511237373074
0.05095837525849727
-0.007197893475388137
0.009514407751143355
-0.020976377212728763
-0.020064416827492347
-0.015278987282770815
0.01975804884443806
-0.003035926806647508
0.01455804560993441
-0.02260035301899079
-0.02459180324461539
-0.025109039567004984
-0.028504309846804094
0.015514754319624296
0.04727507130635047
-0.013425961298125398
-0.016681132463788637
-0.031234236867244095
-0.02032171331574395
-0.05725515137062336
-0.0038563770359779223
-0.08134665449357721
0.1237948552055639
0.049668192833240615
-0.03349544237776512
-0.005993361921369072
0.021638998857381703
0.028388460959917827
-0.07181031078630885
-0.007251743062218835
-0.011168167671464047
0.003368982249932046
-0.033153194666938224
0.02078098480673452
-0.029912660444599098
0.009932096435532271
-0.06698261527248273
0.1104048667060224
0.19008003236836474
-0.03518604598850474
0.07441792833779823
-0.018262527444540513
-0.008218793502857891
-0.043855681659835256
0.0027230005809725667
-0.02172915409267874
0.02882206491039729
0.018707079482263814
0.006408970422375699
0.0032419814098792873
0.019422850744619524
-0.07560235066612311
-0.0398490595328535
0.046505675022279015
-0.02250408368461655
-0.018527650703427954
-0.007890453804480491
0.008452871828817607
0.0023626865410970805
0.008113019843976835
0.017465315952343026
-0.055806972101575994
0.017571810789224974
0.048159849690584705
0.01928980169106417
0.06308353167974518
0.025578223951474084
-0.008418347343821155
0.00045615487524717835
0.001945465056614151
0.014838125996772342
-0.01716481640987611
0.011272745314855507
-0.12872432389006355
-0.11955125575961648
0.014689568685084057
0.04073095645481515
0.04231344911778438
-0.04487826078604201
0.0037081898383682344
-0.015655461404789735
0.05562314784085997
0.07674372457945941
0.038268217344629554
0.018903457936912796
-0.040386252822047046
0.04157652229591871
0.013952800366784963
-0.009532424335359769
-0.027965534080252343
-0.01476745523349301
-0.00642508157060352
0.010912862639764967
-0.17442896313281012
-0.05958462837263925
0.033436144124661
-0.0014072668443287951
0.015847977717792387
-0.052854350998133334
-0.04880481205068143
-0.026096624245655616
0.003920975666534671
0.03170233459877064
-0.004668984880495401
0.02630997991069855
0.06724068671926313
0.004947427648507753
0.07423321435858986
0.03441229381745972
-0.0251828152401669
-0.02073123765239101
0.016067853988401326
-0.029858325458380366
0.005094084910886933
0.044749810793339534
0.026390676737072554
0.034847932397887804
0.05352991238380253
-0.006611697407617871
0.04075867143498298
-0.02787261847553435
-0.10223099540243233
0.024964785204490515
-0.15949433012617628
-0.04792894977703759
0.008163563201475163
0.015611347359092378
0.030705493411831226
0.023222555179048667
0.0029753573759797886
0.025980813337815035
-0.007457076259620915
-0.01619806040602187
-0.00702249114840495
0.02568823096856798
-0.003113404226191018
-0.028434548722340483
0.0664253904734278
0.08509929113058705
-0.16555185811190623
-0.12123514598454152
0.04189234853386244
-0.0012596621929532475
-0.032122293943579586
0.032725079543160326
0.03486522326979631
0.053690913747942125
-0.013489009109620647
0.013671258658774303
-0.00550794947726786
0.016422899962829588
0.07684756441728707
0.015932538158241666
0.030499079311630248
0.0023979710390799364
-0.02654866723882066
-0.022937858228301685
0.017104891367380706
0.007182273150567941
-0.008091358946980471
-0.03647081174314286
-0.03859287534698037
-0.019502209842836113
0.0050836161099433895
0.05105380194210488
0.02520748620924936
0.015298060460398478
0.01696910271870865
-0.0006264427800968451
0.0022928696022021786
0.0033811343286992623
0.007985304962088288
0.006368881839530028
0.020884516744387772
0.03234374511634185
0.04089541109888711
-0.05578687364233941
-0.060876240464283304
-0.005145178871350314
0.02548458787836042
0.0325196119322366
0.010157782615389984
-0.014022236892940845
-0.03397838724868659
0.029247380090349467
0.009987153449789263
-0.009009837761396081
0.0014468631399630896
-0.007089852043157661
0.01856425032317883
-0.005336006413122263
-0.0021570293143215857
-0.02027041751702294
0.009976804454500256
-0.0033710332734825433
0.010275728940724578
-0.003781260765990288
-0.009048898380099217
0.03713783555023077
-0.030002900566471345
-0.06574848314154265
0.001498432298404178
-0.014018436144642847
-0.0017663918968064043
0.014239748508237372
-0.03068555423843247
-0.0640744731562214
-0.023866052636377384
-0.041873898122121625
-0.049418633037356906
-0.010664487539694506
-0.04308709603555067
-0.0031167325397582924
0.0060437602497300635
0.021949163903555512
0.05211086853114906
0.024923003414179867
-0.002382971366203211
0.01550419516814532
0.03920493465150642
0.004805885378613616
0.026660514386193285
0.0025653952905571173
-0.0329702443154838
-0.05137262396033557
0.008182206444882434
0.031623742987388376
0.07196500273037719
-0.0066925659941504114
0.032429335150357404
0.043513917241486344
-0.005112829103028524
-0.03504955496532058
0.017609460463425753
0.03605963448845276
0.008278105996479226
-0.022156273454454364
0.0035970325997226474
0.04498989705740189
0.0019445426025127572
-0.04600633503539309
-0.004862807438595856
-0.014424605511520182
-0.02525100552897689
0.0009661517646344512
0.024481704170905966
-0.004357946874993713
-0.008210257338316452
0.037692995768739974
0.009597322292886776
-0.022237017974017396
0.011941905876794006
0.022468181810676738
-0.026618483070100726
0.0015249879592051322
-0.031640852805203554
-0.038401239976992525
0.023685107765786778
0.05035207461173
0.005723331089780498
0.019320166690997304
-0.011120516861975708
0.024779753975952317
0.014856098103864793
-0.02166582645773747
-0.04971087278412546
0.09830817175897286
-0.025416702064007368
-0.07822939116170526
0.017306733902352385
-0.032477202155254646
-0.004826822669736592
0.05322682506554577
0.03989365744713142
0.02400429071110242
0.06956207028139334
0.004310139259958291
0.042571221727143164
-0.0902884834712453
-0.17015291691540232
0.03548616816044993
0.035245313136595555
-0.03556258491596136
0.006981513453404027
0.05231001850778309
0.048718301932032464
-0.14227875507209647
-0.03631145911029657
0.04202450419903207
-0.01074070949200799
0.018639602927788577
-0.04982613904149297
-0.004898218363055017
-0.0013964144875760868
-0.18081168171893805
0.004709276863195294
-0.002866168957067735
0.0194290692810166
0.05962828047093908
0.06369177605086201
0.009078219125893985
-0.03254428538530828
0.0376702861867967
0.03369618371878877
0.01726888316072721
-0.008688640244672986
-0.005179961586681346
0.027081203985415202
-0.018174912337150486
-0.019559802341287146
-0.0017097011809140642
-0.009740956629816132
0.008020755892709517
0.03731437244828843
0.01418317290645019
-0.013241518841689452
-0.020788293741860284
-0.057147179212067925
0.01054192770940383
0.05726510188432607
-0.0018723619307545278
0.005048811638723006
0.03818267205749106
-0.0037698196632649284
0.03013787430774471
0.003071370812970206
0.03126623484627141
0.03531205692406946
-0.02118115100009752
0.014744988489296226
9.785072278028867e-05
-0.001888091766417718
-0.010928799525145241
-0.01314775348341899
-0.007234088158603044
-0.014134332677754442
0.00742209518442249
-0.02470114692961576
-0.01695264024071784
-0.010635297657738105
-0.02245544563078912
0.03657933452695707
0.07122400830904622
-0.06164211608322708
0.022219113788567092
0.01959687166285401
0.00780890400905002
-0.09387747874866113
0.00457995228680759
-0.016326798866494307
-0.040488099887240774
0.01910218861769552
0.017599665956643376
-0.02294189062897622
0.014544740465756104
-0.009925755329068801
-0.0011153869774436465
-0.00047706221657331125
-0.001955828355795077
-0.018463734697397923
-0.0017702784588995522
-0.07579697045651847
0.06488513984282643
0.01305110877005716
-0.02961793061184742
-0.0010601447014133814
0.028755259678741017
0.013829575544732006
-0.027184936850692683
0.0013102240145506181
-0.021998398468695512
0.011289588919832089
0.024414659833511536
-0.012188262146528536
-0.010031185179946186
0.011118037884244147
-0.02375307542635141
-0.023152111527465026
0.004452530003380372
0.04923448238062074
0.0043202844281778245
0.03981020023201613
-0.028855172312786535
0.01630783225218466
0.04295723290527486
0.01838764039867462
0.03498586222806644
0.037295936359636815
-0.0544954420686051
-0.04978171437533481
0.05076250468843577
0.007193626416487999
-0.011499223657272356
0.009507993950920507
-0.002844426988345826
-0.02087246129852689
0.08079770426483172
0.07495042400445613
-0.037298040070481195
-0.016649150932796793
0.011721104177783681
-0.012546168913974486
0.002038291189957358
-0.003893423868707369
0.011264240692993796
0.011722128069982485
-0.020885703182550286
0.0020983762251538932
-0.002197242962645675
0.031117238007441733
-0.0018318062380755452
-0.017687026914905823
-0.002766830476013757
-0.013184879205916749
0.012305861748988482
0.016661977295679087
0.011162760796637508
0.007898835471025795
-0.022642487461916386
-0.18225101587762346
0.0013628575973642556
0.0657040351663823
0.026857601592685822
0.0015510316320719994
-0.14296867965322643
-0.006552113605932125
0.015905746296847226
-0.010424934538467736
-0.016347735915764154
0.022118028875990185
0.0005347814312561362
0.001641618359039189
-0.020489097997344125
0.05161000276101098
-0.009705792782092037
-0.060608622462402416
0.030186673298746504
0.05109387334187217
0.09539009616669
-0.01598830906691965
0.0033740252604220473
-0.04940696316160984
0.09666483586115672
0.10260401772979344
-0.006269956212927001
0.035685471486774714
-0.19043530448708243
-0.030373315127767097
0.04697148360714766
-0.01427159368083132
0.004957193277849575
-0.039157849668813825
-0.14592373207398426
0.02043351506970623
-0.054206443445241864
-0.02885020297292076
0.02364851068062313
-0.020941385922862574
-0.005179563754107656
0.044169584544271404
0.012329737410184217
0.08085493919537481
0.005640169940472292
-0.013724831431238293
0.01245567101533082
-0.028179706323080728
0.003600065436809695
-0.0060732590499368916
-0.0023264827636229634
0.0017889914248286753
0.03177634105713645
0.05372022024401316
-0.00039957961149555136
0.02842309823618602
-0.0027644448191331134
0.03295392907351137
0.003930869316096617
-0.008560392265132484
-0.02014834031930985
-0.002094619864618714
0.022975317661730724
-0.003139558647848625
-0.007851561121024175
0.012432418363700981
0.006485713749192685
0.029871302313460645
-0.02349350989275846
-0.003286629942308397
-0.11883538360191788
-0.07231160544024115
0.043341676346145976
0.01358013916653715
0.0309124857815
0.0037911530384613385
0.020213949062521913
-0.008933958619576347
-0.011803092440238356
-0.0035284265498268987
0.01644512183272121
-0.0065079578816136996
0.02959072726140231
-0.01994689080291268
-0.027464868027063705
0.0013518437280050167
-0.004048054239332623
0.04430147413886563
-0.0009356086782876024
-0.009219480361077169
0.022855039369204272
0.13532284763703079
0.09937946172401538
-0.0029023329600814884
-0.009649264171754693
-0.050853316992313984
-0.02219063994766783
-0.017826326999024315
0.019227255200598956
-0.00425664821496793
0.006085820238765886
-0.06046587917123337
-0.036401958194220166
0.02813004569957264
-0.007006576109879677
-0.03652721829248137
-0.0424374501910377
-0.027305258771353116
-0.01769058616151224
0.009392210749184903
-0.03517926370582106
-0.038325403455790365
0.008444901656245134
-0.026410389786022472
0.03288255522589605
0.04585357496965275
0.02395238858713383
0.04184059328564662
0.04189738916199048
-0.040451308029770414
-0.01755248054705157
0.011106787527624803
0.05979198981265611
0.023898449691940427
0.01850252440449591
0.03788187721494911
-0.029507110139058847
-0.038746730330776295
0.011015306173771786
-0.02174226572574827
-0.014444048353233218
-0.03669589717458686
-0.08429757833328334
0.017377785189905435
-0.0014540080279337342
-0.1217260954311201
-0.03803697963798073
0.008559350293635174
0.007752625357039012
0.07940532997290309
0.015854646024402695
-0.017043897906091395
0.02957188647764923
0.031157449062586065
-0.006976313650146183
-0.0036471757431547594
-0.03624652501485107
0.11190834982460066
0.11604449342122862
-0.008209205647194366
0.005944570298286323
-0.012204469922316266
-0.08006764910303174
-0.002589599206267624
0.0023411944571175786
-0.010977865377760729
0.05005532504299009
0.0005372259638005633
-0.010599720635499847
-0.025375847123048155
-0.004246633171013151
0.0023097760162105736
-0.023262565278213816
-0.002309687454078303
-0.007749352553580472
0.0033770467197598536
0.03771963187382372
-0.013542174538703667
-0.02732898277192522
0.032961405052314416
0.01451161379988773
0.008139748503134979
-0.025727841449508678
-0.09346437969854936
0.024676256531931715
-0.03807241593091714
-0.03475488439652345
-0.030885927792676567
-0.021885936797920724
-0.02837979043379418
0.002158402210029362
0.023625335920202228
0.07200951018172752
0.0023574034925768457
0.018154740009858585
0.01841601653545688
-0.002828613362238532
0.00626383439782166
0.11291922434647728
0.07750468862057051
-0.002578084505819165
0.015535982549417062
-0.10076184629921217
-0.01386772580674034
0.03286508101051035
-0.015305542536530346
-0.02393727078224903
0.0050002831040599814
0.019446559855215123
-0.012459443517428205
-0.0020646540976743265
-0.021069741596876558
-0.0007203834127361959
0.01526788401167714
0.0075732423404749165
0.024182617713371744
0.005254241480844791
0.011110028559072007
0.020969861908828234
-0.02002801369540811
0.007372578264768947
-0.09501112230238244
-0.06063111198555393
0.02053716652126882
-0.009413169849244563
0.037363991953967994
0.020979087947815004
0.00024452104398532746
-0.014990819851545423
-0.010107247230479737
-0.09117064431526038
0.03152603364566431
0.17219335574328917
0.02158342667883555
6.289090041210301e-05
-0.009879723087069026
-0.032048031446254344
-0.025239648358861905
-0.002681564822230757
0.014258676380413591
0.03847989025206159
0.12468664841265527
-0.1143610896957045
-0.09028224484565366
-0.0022092203325650866
-0.06256620298147351
0.024773033095548583
-0.023317000234138487
0.004504747717203778
-0.029751218810260643
0.02761718380437625
-0.011809841144329295
0.012188219599543406
-0.021805990139686798
-0.04053885221871707
-0.005205169039527026
0.01420890180625835
-0.03625298359571122
0.14283015353815356
0.08944760805131072
-0.068048070478866
-0.04063343292255325
0.007205166198991302
-0.007861648774406323
-0.04297372848274042
0.01903348519156808
-0.03562122347527162
-0.0010146083508982041
-0.021815522204693988
0.0210674732948472
-0.0025499986733155504
0.04987520315772831
0.05227212436074359
-0.00019561598084761743
-0.004977128899039096
0.002312483090332176
-0.0020844291330177045
0.0346228189444415
-0.028998689084183776
0.008296858355632765
0.016983546675056825
0.05660430060288122
-0.03259669142376169
-0.058562099986022804
0.04801818600366659
0.01126189230112804
-0.004234181988497194
0.010458603183340444
0.01008912300323941
-0.010185643782327742
0.0018118674499278144
0.0002163937833586244
0.028405384683160263
0.007696113781180739
-0.016690647298782377
-0.08882678537743015
-0.04861363796084316
-0.02491396415751802
0.04112864060485004
0.045450082151753536
0.0003321742380618384
0.025130277074383825
-0.027023509492159255
0.03470232258214208
0.0168626996628956
-0.00572680482922552
-0.05309782687314455
-0.025140559140209212
-0.0882621830507732
-0.04812255521262374
0.06169131496332765
0.01682721976942038
0.0451093902049057
-0.031180479846815982
-0.009664971329940486
0.0305711616523349
0.005776651207685177
0.001880964882843047
0.017765241475190284
0.04888289102663564
0.0248936384257756
0.015108193789561722
-0.034158075880994045
0.001165855703805065
-0.043528872188579544
-0.1471185584207985
-0.03756063134322621
0.01501033826073863
0.09483408009009704
-0.03140166639228588
0.02969552238162558
0.014116082150363623
0.0019249219462518265
-0.030953814442729252
-0.004265520357045844
0.01717701503206621
0.005753047225183841
0.008149459360388462
0.003954435810490154
-0.011442379360015157
0.02612589567022541
0.018468488034170782
-0.006024751540303364
-0.009683743908405514
-0.014248639178073234
-0.052004006519875426
-0.010726709175324232
0.027502190304826514
-0.0004075756938316767
-3.878227449924397e-05
0.015429411733731344
-0.005926789879118021
-0.026912910813005418
-0.0522312231019762
0.08961524545429593
0.16770691747992103
-0.005090576454314105
0.0019494555570586762
0.004449852806295229
-0.06293007975864583
-0.00559092128403371
0.015721071590714203
0.03194886040329972
0.0025034463999960253
0.027599768066594917
0.04029848272149121
-0.0968417026164817
-0.02684785754010236
0.019677857569087614
0.019685911376527226
0.004912474975669515
0.12359099883684298
0.03312354002705342
-0.018092013708540685
0.006557029097114626
-0.0091092334020725
0.00881578903625608
0.010114694840376432
-0.06245036546989589
0.016166575980416143
0.03125772747120136
-0.0065192482515037675
0.007727959890378043
0.03989002940292266
-0.05147291044060025
-0.1452147362469586
-0.04711953601545894
0.0076037005811899925
0.027288691723647302
0.03229603799876626
-0.025784646402124866
-0.11184719082852553
-0.04341724868194484
0.06503936108039877
-0.017731751947968482
0.026988077076653495
-0.16286357125611772
-0.11210442802436263
0.09430791283059392
0.017118916563162216
-0.03369057028241223
-0.030113527969129417
-0.02815685692584116
-0.01827432116388748
0.020839989589626323
0.053710507563365185
-0.003217279378756
0.036891076797397865
0.013000625695715405
-0.03587065499101759
-0.027467067326841888
-0.0065634266016137005
-0.07111414753686135
-0.06262246310193278
0.024155760061767954
0.009032282049541379
-0.02885080185677868
0.053167294825009544
0.2697591986181502
0.11303647473330893
0.0668868299978818
0.09626418205887319
0.0447040197118113
-0.012241255632371367
-0.02400860700181843
-0.009203444816199483
0.0032650258883655608
-0.0026897365430121395
-0.03708982325343956
0.009315599826246981
0.001065324551931327
0.037105814982304745
-0.05215094474844179
-0.01144113560261958
-0.06982331219314118
0.07028243740420376
0.12835766022326636
0.005508481787406511
0.023392639529483467
0.003749128357931878
-0.1409293800640757
-0.2199368591768511
0.06770315542356237
-0.11063795452490034
-0.05220812886513443
-0.023192117289828926
0.032241942267095605
0.03736125091659946
0.020514864499073453
0.0007179479952087706
0.012360171217052988
-0.04922174849574969
-0.002025049423508865
0.02764500528413985
-0.0023288934463463855
0.00659243828279738
-0.017257105669703874
0.001481037472302112
0.004104050091350089
0.08021354176949806
-0.013607885744496536
-0.048323796201073875
-0.0032963225016400446
-0.02059481326530536
0.03224571304891227
-0.007922163802169256
-0.031045571092905483
0.009179483438289946
0.18515251736994814
0.05680705189719272
0.004846316503153085
-0.20059158247077968
0.011388604354703947
0.0032676586337152197
-0.036893783073844534
-0.02567126628414662
0.004615971953849191
0.032107754499733084
0.04729589441992591
-0.037595968137235355
-0.03623273443350572
-0.005918150065444654
-0.005931982662489387
0.004002991730734489
0.07423021027388345
-0.0061394119896462426
0.07497292908590941
0.11335988884164526
0.016598777524857014
-0.00769957415809847
0.015075515314447131
0.033012299463569254
-0.009016070357197427
-0.013615685398190564
-0.06320539128565321
-0.036946717760394134
0.030837771819912006
0.01673945008787871
-0.00887312917231398
-0.025068102239951276
-0.026614232532974316
-0.03722242874070777
0.011658913687838815
-0.03295357531467149
-0.017570000209533407
-0.03117593620233868
0.026526576335538777
0.008906580991709913
-0.07209722580153645
-0.03441299048741903
-0.03801352390781174
-0.011324807854480428
0.10369715021204184
-0.009844479470909858
-0.012231122841675702
-0.019598310829064554
0.008869261783257993
-0.007807755454013262
0.05720202408125956
-0.019004749050445698
0.02846025665077476
0.045701359509601504
-0.03841670313988464
-0.0025608750142494586
0.04606514289520196
-0.00016674187291275711
-0.03377167791300896
0.003558133854618516
0.010649314177651598
0.02002524846212275
0.020203136342777976
-0.008842401906340383
-0.014361339454245493
0.028413134447560648
-0.006198306852124522
0.013861915207314408
0.02221585079748663
-0.009932648932929763
0.030813950686751915
0.0031161495016812702
-0.012381848086991814
-0.04836344697504257
0.003310897205588176
-0.026350121783656817
-0.05166601191368266
-0.06431023008112856
-0.03577981724294683
-0.0028560790790205185
-0.028534641439363805
-0.07228815502303622
-0.016910135347988117
-0.03095877844061709
-0.033592017151219726
0.016907032079565166
-0.013834646028829145
-0.011888601481097704
-0.016705845828073062
-0.06930996684890649
0.002113917361073338
-0.024355050593098223
0.09044581122421086
0.09411276612929442
0.028549096861044364
-0.0027958944942596434
0.018262203239559495
0.025114970978798855
0.018291954429598984
0.00977361105903625
-0.003939457509596645
0.09309984248374445
0.10282213296453428
0.00659442282807886
-0.004848832577443657
0.05165737820538948
0.10298589814647158
-0.02838831032032109
0.01894804490699511
0.009810623735012272
0.009317052057670172
0.025474287199447578
0.06409339746867569
-0.0011254620604506842
0.05158180449128606
-0.06447129385675936
-0.17081557011324192
0.021613155617029124
-0.033558125764914716
0.026255837073175844
0.05144163825677942
-0.09751629171785228
-0.018703244741825387
0.01574992000857872
-0.0063269142667704585
-0.010681567754214624
-0.016226793462759175
0.0006888450772042778
-0.015186422689238987
0.013159348041863424
0.05051344501028557
0.0227850654120055
0.047119677709930925
-0.05462267552260765
-0.08314707303582662
0.03736049022833838
0.028655408928668694
-0.14647313790995437
-0.11256322245704563
0.09538061435134813
0.020652353742792288
-0.03767833944702829
-0.021816225345141955
-0.004333112295874029
-0.04724250325255445
-0.03715825517606422
-0.02331161504524965
0.03866741624088754
-0.01811500832187818
-0.1875476207711577
-0.009966357663247757
0.00823516060478895
-0.06439488009371432
0.18192377625692963
0.09861778036244684
0.06956724353534448
0.13567212925115368
-0.04556000736236199
0.07446310582910655
-0.015482483301650833
0.022338467999344934
0.03727972976472643
0.020314433551211264
-0.022717745833425937
-0.030993574048532882
-0.04347382944106763
0.007080666381044536
0.03719808999496475
0.02159736489334051
0.021624792824063627
-0.0100210721444138
-0.020676203545301936
0.008465352548357613
-0.014872435267473796
0.024682403013374727
-0.025131603067061255
-0.015061519478684398
-0.032050115939238295
-0.0025541069500220467
-0.014991386039894278
0.017482263610748554
-0.10124057225242199
0.07836972822224822
0.03577261014864174
-0.044489930037637467
-0.019753719733285918
-0.09479572202683409
-0.06177581283044263
0.12027479276975328
0.05943088074807596
-0.02267840360661826
-0.15410925084949992
0.05303568849052086
0.01892157707705952
-0.026665421589945136
0.06619371846349632
-0.04563505576387835
0.06689450298973063
0.047187882849650274
0.025454278605221193
0.00645176720533969
0.03405056671229628
0.038558317728986956
0.040219178133617736
0.02387124135467882
-0.02093079604382047
-0.059564157300565426
0.03766131546115277
0.01976524510520132
0.03706083048776763
0.028743413836018968
-0.00989900846273782
-0.168971965777278
-0.004314002140014968
-0.041386080562819026
-0.05576530408694791
0.06066277903486866
-0.05652842245110413
0.0004432232913162776
0.03766611090112687
0.04740655586504424
-0.003204195333241475
-0.004180868677312499
0.010138760152393492
-0.018458980599088463
-0.10270877598809908
0.025579096142465053
-0.1388714368821564
-0.05394059393818681
0.08296077537956792
-0.005712960203237581
0.09395123215245602
-0.017812001469426745
0.00024529765157410316
0.02560342505667635
0.005801243716227372
-0.06541075284282777
0.003071198177121852
0.009592642434844258
0.033111493109262216
-0.018940879799109037
0.02979666231095754
-0.03272168427725886
0.005479632314793846
0.013914600456973856
-0.007514958602249683
-0.012932902490691426
-0.011491600377661719
0.010762003128559256
0.0061619529984819855
0.023245994243218854
-0.02141695519304737
-0.02495333906918265
-0.017961334667744917
-0.011603829142928073
-0.004154338861303321
-0.02761722493493493
0.03819854313526498
0.01626534074862578
0.14487182663763634
0.05456949952701668
-0.015649422919008848
0.009493314783247744
0.013482677643569412
-0.042892680610997616
-0.030551520309558183
0.011623453487480642
0.01862139316211495
-0.03787722329312173
-0.005220390675109168
-0.000548020323722883
0.03405384124074015
-0.0051802289754942004
0.012989421578031372
0.02090116440657874
-0.022738428093491855
0.00919391517574968
-0.008275871549241655
-0.021580934195107773
0.02182775986931692
0.05462592434145335
-0.044281992058998826
0.006442642193156427
-0.01746418975522844
-0.023259007401379973
-0.03641901040208498
0.042422604888520656
0.024907274267171913
0.007119103417287731
0.023176166343067888
0.021965708286542252
0.019647925437151385
-0.04909688282574461
0.010375580979254525
0.05060926662569158
-0.02718691604046224
0.035900874564682383
0.0417801084041169
-0.0009771772668148919
-0.021676510022243935
0.006731826232382338
4.097360610473994e-06
-0.0816469743302855
-0.01696263038784194
0.01724914655784171
-0.02194962669382699
-0.05527526899473206
-0.022749519271769023
-0.019736089060266332
-0.05639141463190459
0.0038700222612488384
-0.0040939874735346
0.01606909750498498
0.0411611559607509
0.02623238411726879
0.004323520012526324
0.005646712258317199
-0.002791494279880132
-0.010456062166400293
-0.05610490270746952
-0.0461402160458453
0.011532871403856766
0.043404938838367824
0.0334041889874417
0.03290446779178541
0.014424998001032975
0.06080804323926039
0.048976497179870127
0.005707419751487101
-0.03646595658662596
-0.12424797659018393
-0.03653840306890708
0.018898581104345374
0.003964821359837344
-0.022095013961530314
0.014090132548038285
0.007883856679198487
-0.0036305799564894537
0.030072284798433713
0.007202147998654708
0.018649905280202102
0.049964767771366304
0.021469974081204705
0.01678550227527017
-0.0268575165279524
-0.03998391909425208
-0.012929377516511473
-0.026409534378032607
-0.012787584916887456
0.03645470823598712
0.04110512106443495
0.02614179367117188
-0.026632963925452564
-0.05912998871231009
-0.03151276579243064
0.013500504223979632
0.0009844874539382893
0.005859496413401933
0.004363356793406562
0.02194218361852236
0.0040203725922424325
-0.04447446677018615
-0.044251504604801456
-0.010159653567696226
-0.019796783933271278
-0.04098898932468463
-0.036458207562364814
0.04299252219932572
0.03896714264345337
-0.004327588529085561
0.03281401382565611
-0.009962758862798618
-0.012795737596869357
-0.014241335635109301
-0.0760905575524728
0.018924837105981845
0.026857962960553493
-0.02212249543028911
-0.03994639566847608
-0.016290399977824478
0.019001210826078398
0.07953798802896894
-0.033556069772673815
0.022967981374251732
-0.0491156160187235
0.023808988374349492
0.013191765586630051
0.015850236677613243
0.0020642198859612167
0.09274150465776203
0.1206731852802916
-0.028625473490213105
0.00414859427499976
0.026487460857088443
-0.010810861107261899
0.015985797483330476
0.04918335929621771
-0.01577906311182651
0.031578765463804566
0.042569160313622935
-0.012879789257055116
-0.018392685113099123
-0.0007732800555711284
0.020018528518676366
-0.0374471178730263
0.03461442188934089
-0.10268872424649177
-0.10862165736031634
0.023866009187320267
-0.06850800203946837
0.011138162499906326
0.059302872000851714
0.006582325987759372
-0.030345870532291753
0.002730442533424358
-0.028203324773090337
0.01425829855457027
0.034184203111802126
0.03126352666948588
0.03675625406804454
-0.02232973460884555
-0.018473977311454535
0.04428783889923496
-0.003833654419921669
0.02803030518372977
0.01486529465237641
-0.02541492493027271
0.022975988589010097
0.014018322956802574
-0.019969670381987513
-0.03290710550494129
-0.003496585015730748
-0.004543504309081137
-0.022653915725817615
0.009925922174770346
0.013416793497163425
0.004197654433034253
-0.0239172431088637
-0.030254901038171668
0.03196190657007518
-0.05461819192965788
-0.11680329957669482
-0.006027914934168455
-0.0328675942505827
0.010332948567739638
-0.026488636721649136
0.010855092866003786
0.017990845078335156
0.0020192851024693963
-0.01728972275231291
0.022028524053442158
0.011976020048772207
0.03520847481497416
0.017295213748873783
-0.0038985539151653536
0.015730982555866677
-0.0017816559522233803
0.001275640255730279
0.003132555123983186
-0.008846648152718243
0.0031252703971686633
0.008497451329525165
0.07358511013653875
-0.00015975404336976347
0.01830936154456985
-0.01903595884543651
0.00690856614572256
0.024367091959627704
0.026542572486809086
-0.0016007800693110276
0.02331280366392521
0.019194394074566086
0.04807122129898433
-0.025254767508054877
-0.01440242807925862
-0.08341981775966875
0.05404241667917428
0.05658912490794549
0.032413366273063904
0.004495268170606233
-0.06655294043631117
-0.08853311180532604
-0.06622280084821885
0.02210638127512744
-0.02938550170417964
0.0019219967476921645
0.0046158063437554435
0.0009445245407447708
-0.0029294004792577927
0.005858602207568449
-0.026802219937134057
0.04834526701694617
-0.006926843937007534
-0.03481142685896233
-0.017295392080898662
-0.0018443288234495112
0.025193785652869317
0.0002488046753128737
0.0031569924462238877
-0.003434967310115785
0.0064292838346120705
0.02461275352295878
0.028219907964043583
0.022333828254145052
0.018133619064271574
-0.04349967714123841
-0.07404942126692128
0.030990163359537456
0.03509032311383117
-0.007986316857528522
-0.015130999094988645
-0.012249823011413665
0.015328355071375995
0.013745107653362659
-0.008473306279397784
0.0020056825909641257
-0.00602494872274214
-0.015459529676617902
-0.010582351280834274
0.03159805874484096
-0.01336034599218609
0.05617515713123057
0.06003974257466776
0.06040403157724447
0.004026603567959292
0.011806390690136387
0.008926158749208825
-0.13845527583583597
-0.07124367820321006
0.14716172841139538
-0.08373611720815688
-0.09702133643752991
0.05737845668602936
-0.01850625987638364
-0.06408809159808956
0.011689035124023448
0.033937564711221745
0.0148441388843495
0.02280349919019978
-0.0021376525821104305
-0.0025914120497611977
0.008322162806762514
0.03856314218983174
0.0020331658650280166
-0.012235712606843323
0.030903928077777875
1.846513393199597e-05
0.007513692810927814
-0.14731572437110654
-0.030704424799441812
0.017550087830503675
0.012678310349598638
0.012639236383016977
0.0014995351986868016
0.008178932109430275
0.01855744608917925
-0.01557865601796739
-0.026323389598041987
0.013445490689871388
0.01793326303106244
-0.016703017084160228
-0.01973183651310307
0.05727146407805844
0.031187583412123215
0.03325373774607898
0.015488221908499411
0.01962582718912992
-0.04127285735074814
-0.008493842222335155
0.004327990863407616
-0.007694578426060818
-0.026334746189662032
0.02765009893320615
0.08494016343071074
0.043574286667803816
0.013812962429022328
0.03155525059607388
-0.012884199579864246
-0.014741684828296237
-0.01139343367134872
-0.042103616698894536
0.01647951210043941
-0.10142718038500474
-0.12982173889383355
0.027435867494713388
-0.024959734761073556
0.004193868320641766
0.006520026101663799
-0.0017274250639417181
