0
0.03176756457996704
0.01264024981384485
0.013558124730093712
-0.1315636518959253
-0.02937384182781414
-0.07708247664911724
-0.09034359210875885
0.051417944576328804
-0.027909867451840174
0.005853436467046234
0.06392156889190335
0.14860088846213756
-0.033857496104998906
-0.0425715156168678
0.02403976218102816
-0.07359478646086362
0.004399135045068887
0.03529373366142791
-0.032002367420731925
-0.02095415303913389
0.01766538551386054
0.035082783592604846
-0.03006232705436366
-0.07196707155288307
0.015376360366671102
-0.00654299128195522
0.04249834965553219
-0.005698829088863742
0.026508066152674196
0.011525456317200857
0.02452725438177302
-0.14299009610184057
-0.0860853458857546
0.0015962377260024755
-0.13305489583482924
-0.026714922068880945
0.04004783305624159
0.029245481651107845
-0.013320665620860586
0.020311697675004205
0.16616414458365092
0.028222682744707624
0.014873091451532826
-0.013488095206756735
0.000627180101488808
-0.0002836212556566378
-0.0030630211291502313
0.0050221044619497245
0.0809594641628258
0.02933206073406207
-0.0439407191889882
0.035641247376247395
0.013346259875756194
-0.01712994896555687
-0.09492654791926924
-0.035846251317992725
0.004314143933896762
0.04346885459330938
0.04491047986692059
-0.0036951892579565222
0.00022662086503715502
-0.05473009906633471
0.01999478585267352
0.1026457942392988
-0.01670721901575311
0.06638773321008684
0.028960210912765714
-0.006932629808781065
-0.013422688580778486
-0.005016528040737905
-0.04784147984209951
-0.020822599416159174
-0.029181260702233043
0.02082807888080678
-0.005815995054817948
-0.0187437740834691
0.011208477696425332
-0.01847589475228386
-0.06006886781738477
0.050429841085739106
-0.01900379290997772
-0.01704566894880713
0.0013228624312245257
-0.0033588925637012164
-0.03759162889748685
-0.017111365723319363
0.011077581856418528
0.1268111206452435
-0.018614245739145472
0.02045019855666201
-0.01794918319160734
0.01774727522831629
-0.009992440889528172
0.02869640031724479
-0.03717352038461243
-0.04219323802529678
0.024510786516767014
-0.016944489079024933
-0.008262147839652562
0.0003750521509779107
-0.005589881013168823
-0.0004528646987450174
-0.001677873717830569
0.024741655927017426
0.017312336033610865
-0.01992527660362754
-0.0015761384577364884
-0.04375118615985199
-0.009526507695925241
-0.014266987751353238
-0.009890877518868536
0.048494236565267086
-0.007499143396850659
-0.006120375918840807
0.0674603252438857
0.00585949954422263
-0.04743131265325845
-0.006164008295700619
-0.047723277862782375
0.06968579189103068
0.009945405617807365
-0.048650241131747145
0.00042191952351896785
-0.009385030764815328
0.01522631820127544
0.022672037590697938
0.11416466959656155
-0.0015223200815238029
0.026441400036699196
-0.029283012155032023
-0.02585984420257394
0.01173636946979361
-0.003533015360441908
-0.05334961033974144
-0.0021167525248102902
0.0177751617103095
0.005755038944539437
-0.04259537439981555
-0.02161677814118277
0.013295985364571862
0.0127186074572303
0.018148164687312434
-0.04856185449965073
0.009466938200353898
-0.0024919114790972223
-0.014214959666348746
-0.0320462384368311
-0.009323499769798812
0.03274587763483029
-0.08920109736696286
0.02825653090916136
0.03501281271353668
0.07758020293689624
0.06730283404540924
-0.005438881341927299
-0.021665407578148093
-0.04800813283813901
-0.006985242832358581
-0.024060543148178182
0.011333165717994155
0.024891582686906152
0.015435789940596826
-0.0022455883912041764
0.0377280279023776
-0.023041350097613784
0.006379108568128421
-0.06137494850843174
-0.06781304354503453
0.02926410300246431
0.04805741584558838
0.006699069349681216
-0.00722575936138636
0.009736507474753997
0.009187921211494005
0.02560678343853887
0.0013172028783115363
-0.02710792749796864
-0.029602043899590348
-0.021924880356456955
-0.01164948052571558
0.03130648841134058
0.02338662604018711
0.009815260176006129
0.014917514704473297
-0.00573187242757867
-0.014333977711139844
0.014027863136416368
-0.023895503840396005
0.015826113410695702
0.04106490358796368
-0.008500486379972702
0.0014757799385131652
-0.010223641827664191
-0.06398146663433933
-0.011628464137654082
0.0039688812705606525
-0.01991841352568022
0.06644427874396085
0.018779226063542348
-0.0006207899060073489
-0.004743589518262411
0.010886129079302356
-0.00873547491130414
0.0030325167708133835
0.0455070909610663
-0.037481362459159874
0.0012259108319798138
0.005308226728628286
0.008333059608966605
-0.036711608313046803
-0.047122276481375396
-0.009832460552504724
0.006639428296939304
0.0487137590223351
0.03011796578525453
0.011534764365587187
-0.003146029880841644
0.016888160044542248
-0.048442608761183586
-0.10802630525336104
-0.014759901525343183
0.019157368211786662
0.009312526373166086
0.008279965988235148
0.03031410280031128
0.010279114783818339
-0.0037753544014881815
-0.03253108010071763
0.006882054976361169
0.015076041178340913
-0.03114902399202635
0.013568847327301159
0.03952578875898043
0.02724074010943636
0.026952189944049208
0.0420666390760757
-0.10816141799810522
-0.11615730281391862
0.10389576384444758
-0.020933689592186364
-0.010660812873934725
-0.01782868193275546
0.003194923119895276
-0.019898623294802784
0.018444276405479708
0.07609346600239641
0.018227506031650634
0.011893961053748849
0.056542705837219334
-0.03355226795566437
-0.012556761426945558
-0.04001243527906698
0.03483203737189278
-0.04045374338216059
-0.14121962709566072
-0.005063485474145529
0.04839987209330142
0.032289417472994984
0.0278866124510741
0.10400867396696556
0.02284311328156368
-0.00020375493730991157
-0.02536093320567891
-0.039714239000965726
-0.012723853006390225
0.010842983908907443
0.008421989146780093
-0.007208599855610029
-0.01627221247055836
-0.009646127461882814
-0.03334925840102978
-0.020573878484025015
0.003672032564198374
-0.004963703431552643
0.010106553334783323
0.014773124769627655
-0.013673349103988259
0.02610937227729311
0.016220822631104102
0.007514149750997941
0.005574255947898197
0.02561078526735052
-0.004276015584957959
-0.010738794875139948
0.010746036492160018
0.011499214830824722
-0.05919104844013553
-0.07253198809844577
0.07888257892438028
0.02069416340531603
0.05838841969602028
-0.014452865207123522
-0.053200711277444294
-0.00510343102343141
0.008250586422887373
0.0035562760313215076
-0.019038184552454995
-0.025192662641315058
-0.006377514359587466
0.0029230425137987555
-0.015491201860799202
0.0033779944811971737
0.004391527017096261
-0.04716238028363625
0.030580731809578127
0.1262262466014758
-0.10614390053949006
0.14179800417095212
0.06643646992179977
0.013952766971401201
0.04222344772806348
-0.03785726194134931
0.011624436318892485
0.008565824222202251
-0.0883484242722
-0.08025178895394665
-0.010012849879236356
0.006729286896341354
-0.03049444127572258
-0.02954636957510096
-0.060508113752318834
0.07589078809503655
0.01929248718913287
-0.018599395585200518
-0.013215920423431626
-0.05278278504975086
0.03984653608823702
0.05244657899794252
0.017773310487703607
0.001958977103406319
0.004024490639825457
0.11252309577344974
-0.013781243942392973
-0.025613235745538945
-0.01973767330055222
-0.027639412083968674
-0.005291727898411674
-0.03784128439724549
-0.03178813534321423
0.07784503333888494
-0.022433806890507304
0.010677229931901597
-0.021552253220948867
-0.0013655884659993876
0.04528366564954768
-0.05226874448227606
-0.017402549438816202
-0.015012941558577146
0.019032465598441475
0.038593983742885404
-0.002140634002966183
0.027080466436647743
0.02464452881884444
0.019058970773272725
-0.05527688348686698
0.05290876968757011
0.012939898592173168
0.004829334401193061
-0.03167923473387166
-0.022483472392565197
-0.06725930110018206
-0.015398777552217762
0.025735247279877686
-0.04219439995569693
-0.05381484591495995
-0.0062605926083323
-0.02032942351758063
0.007099351487055528
-0.011738653769474805
0.11526562355261465
0.10457650751540339
-0.20696185933888606
-0.05622480218244502
-0.02588467696694923
0.007411991136051009
-0.01907370672855939
0.00747066089204973
-0.006789643895015814
-0.01743865600429903
-0.00403468678874403
-0.01869133858720417
0.01714097564737277
0.018828394382263244
-0.018463510730013215
0.017139076438516008
0.04427821763285938
-0.028531351778604153
0.061158187093130804
0.11277523797464706
0.05392935798178299
-0.00887359529823658
7.580619216936797e-05
0.05812126577281912
0.09140870651139966
0.05215836956978892
-0.038411482851534506
0.022395529456870077
-0.024101699348965056
-0.05945747500170145
-0.03018791165133716
0.05287354276060072
0.015127600693191103
-0.017967797051083867
-0.013219020158588893
-0.003963122379153242
0.021815897368658587
0.02669172577698509
-0.035537223058690684
-0.0003327621304618052
-0.05304071601701285
-0.08412889968895682
0.003337666265627947
0.0708270490313918
0.02153247863748117
0.02934904088526871
-0.059228447314466644
-0.05699754772236673
-0.044885092580504556
0.02648574790647031
-0.012490393717679968
0.004274884848842239
-0.023440866487336637
0.04249643899002837
0.019580442352753785
0.012640380491926593
0.02415097614961903
-0.05896565253029697
0.004692621768163846
0.011056783706188964
-0.002138197760824431
-0.011730907495967864
0.001894723292906449
-0.024107415266989392
-0.03442734505133117
0.02143648018446423
-0.0026073671811507847
-0.10203017644239078
-0.11119884975028972
0.06466518011157285
-0.030640438128839643
-0.08329696957736454
-0.008629865658458968
0.1483254857136076
0.049544327839524525
-0.007898316346975643
0.008544015429461151
-0.04048736325978294
0.019609532842419234
0.03778742086681389
0.015826599791184868
-0.09266207447592086
0.052804218088397595
0.11665167949892521
0.020266930743081717
-0.006177550519569323
-0.09776746135780535
0.02563144498325821
0.030774845339673108
-0.01605014089840422
-0.011037898229711879
-0.02949274543083276
0.10803054620910388
0.12063375343654824
-0.016037680822194336
0.02868834752523098
-0.030837527711007204
0.026982668070391187
-0.06167370623719881
-0.01585595249729913
-0.03527580835635849
-0.003793242716234705
-0.022953608535836365
-0.013631462174476252
0.017527818814408583
-0.011989123423479141
-0.0069815298059602154
-0.006505482477134177
-0.0396358031217059
0.0013899621039862116
-0.017961877087399623
0.007597661524607408
0.00593893793313004
0.02430082262698547
0.030810600843393012
0.017956730099451715
0.02049427402704728
0.05852052394199981
-0.011483791080921056
-0.006211351799463462
-0.037629348279794916
0.018505060717535576
0.030208734962085527
0.0001106531614983948
0.0013179953922345963
0.01791300272503301
-0.030129237434116874
-0.0058651031538297285
-0.1614168651191031
-0.10794321760669143
0.015916389588318484
0.021017283274271794
-0.05407231229477119
-0.01855841979589096
0.04943936275117813
0.14701080915163028
0.07739804588051821
-0.011541727551457784
0.009117725995047359
0.008472582444751707
-0.013581639787401494
-0.06790586810862903
0.04058354063182007
0.01074012553635659
-0.023835497133909075
-0.05493053820355125
-0.0388482934681206
0.022746258078799726
0.028778371756102258
-0.007867599302380592
-0.015166229200141672
0.05885003489724029
0.02673604944541295
0.0028949248502930965
0.014597739253845958
-0.018066020416069188
-0.00621928794686287
-0.005789942350665858
-0.009333029970741053
0.015071850788517758
0.01948220324411499
-0.01184821566657935
-0.016788500431732346
-0.049762512495198176
-0.007577551943923114
0.005637483694739427
-0.019176737449253158
-0.04402012715760508
-0.007639145655376675
0.10526996969195603
0.030955131066855393
-0.032001343410010784
-0.023873965731490168
0.015044939727647689
0.07677842264881346
0.0009335444600871847
0.009882049259839295
0.003751736951704868
0.07049415135332296
0.008981016941063954
-0.019441466582729487
-0.016136835695881185
-0.025952559265139844
0.010779420879499381
0.0220518396648176
-0.021399310032919422
-0.021762722616895186
0.0468349803999858
-0.06113092732086133
-0.05638696454294559
-0.021156682420591818
0.005811907970363361
0.011659737437762557
-0.025664847242401423
-0.06791984586984752
0.051949743039808004
-0.12595512935807654
-0.11435246233150091
0.028050387991051477
-0.008048090179909921
0.054089598096981946
0.04821500309274248
0.04583891471768747
0.07252023910262699
0.0018706185604095184
0.004509115098579664
0.04371192758348975
-0.016689338877291383
-0.014448454874481763
-0.004597908873878767
0.08225263749647152
0.07299906530753608
-0.05247795231297011
-0.10461511637210204
-0.039544630036648404
0.032940641767493214
0.01106554478279803
-0.032843822960587396
0.015091126426589099
-0.028620698009350732
0.0017467052752867455
-0.006877424264067081
0.08831488676618712
0.06939556297584927
-0.03501453666596106
-0.019489450936409917
-0.058461037830202074
0.0763164257149374
-0.01647664585875366
-0.05472389524378329
0.007925872731520778
0.013357378821529027
-0.033059717678478207
0.005021052285549938
-0.0228398936197316
-0.05426945760362694
0.013654489273609422
0.07099388315367823
0.026102239283839698
0.00788436282631972
0.00036418862226026425
0.07799369735105638
-0.0427570000589602
-0.012676147054331755
0.020120768443478876
0.0074771120436017535
-0.012863824884635089
0.0043639110532286
0.010816961175755925
-0.018127890518669
-0.016102946094682772
-0.020597525814579947
-0.04623177501269028
-0.005933033511178086
-0.007148927581781591
-0.02910953993924021
-0.005267952233238366
0.03379034169654301
0.07861230320661192
0.015301996883544604
-0.006976952692913973
0.03102421443509409
-0.04632387804905143
-0.014621063403168662
0.015425789166220975
-0.0012547063358894738
-0.17506492301168958
-0.05388500914450657
0.038547365460693706
0.002262788140845081
0.01612961930378704
0.018688905978748428
0.03880089061135734
-0.034782090264128276
0.15640260674583706
0.047469031123092184
-0.050911898448381496
0.10823382833012664
-0.017755536828810977
0.02276917947392527
0.011164091906392287
-0.00348591816269987
0.010752631784078053
0.0006751294277059903
-0.00876623280403274
-0.002536194560279923
0.020848151787885495
-0.019301682864789154
-0.010972875076102463
0.03412545624453104
-0.038055388065006295
-0.0022773754700511554
0.03978402296860415
-0.043689928424482584
0.011784156961438218
-0.14279696067763148
-0.14178615548399978
-0.18152914434199133
-0.013963083237140732
0.014782884730472371
-0.004474768564719798
0.005751152112171122
0.006544046017004619
0.08124494662701195
0.03833313290981722
0.0016944467451243176
-0.004615631887636761
-0.00972451215260506
0.015967651639818874
0.04577574393777123
0.04986701626068436
0.0026617181945911097
-0.018608191872618744
0.005626830893534775
0.021466056970503845
0.011180409538110808
0.07350688873223651
0.022505988247029835
-0.002769474081445862
-0.022379760293229606
-0.014992200742664783
0.01257686604708078
0.006312878468436038
0.14581452478211906
0.07626896357947928
-0.10959733954306773
0.06128355802814635
-0.00405325429730453
-0.04522492009439517
-0.021947410224553262
-0.004347577734498806
0.0375866971699927
-0.0075583564153111045
-0.02959829375762351
-0.005265119403304908
0.009045405502444228
-0.008011954377294404
-0.030872820838487462
-0.04658018945929439
-0.023868809827141756
-0.003291648179890845
0.01666371786252551
-0.013319830318286244
-0.018296015443468427
-0.01401583672086098
0.027375469281526274
-0.03890627606874116
0.04124004200302852
0.008760208317684887
0.08661694514388854
-0.11810570621514144
-0.08785074502524486
0.0456882680159926
-0.031619402281143176
0.02407827419322159
0.07704958807329941
-0.006442027547148373
-0.025696192943698466
0.024255376323610564
0.03259236467731115
0.0020233110127936427
-0.009189613917310392
0.027962541441979263
0.01406230457624065
5.8367461879946005e-05
0.008888834229606849
0.021581382450246187
0.001814587023659982
0.030285989807697138
-0.027346833632173582
-0.004984240253875619
-0.11388078490140399
-0.03217628518811952
-0.020224740334501008
-0.015063013033440228
-0.025714647999349537
-0.014777273597269071
-0.025072144174413873
0.008882280948243119
0.005171383526650442
0.015562698333785104
-0.0305115833044153
0.004329898039005306
-0.040989419459768944
0.08312514726406352
0.12216373497130903
-0.055045603546858085
0.011366124380843785
-0.008036027927350165
0.05579849762599084
0.026866846218461565
0.02468125556292833
0.02992979219790119
0.016192792437880004
0.005463142111506471
-0.06339090350025385
-0.05260891340329928
0.07381218328037929
-0.00419298248924941
0.08762338297314333
0.009396840027406065
-0.06715779554243093
-0.0010828487713666361
0.05636317605660183
-0.031221365832056047
-0.05996045586959097
-0.017873371551383778
0.03283712260512367
0.010964487586677242
-0.00019046150345580572
0.016512156025910236
-0.032823901035895296
-0.051094635569476445
0.023503386278526238
0.01550061866251518
0.04157139340322522
-0.13597252952363767
-0.0725461119504945
0.03818275886003636
-0.02827123504988792
0.019790188225826823
-0.000882814427926799
-0.017069361299199413
0.012568148543927148
-0.0247680363265453
0.028404274192068167
0.00783524748636224
0.018062458306472177
0.03073838784192632
-0.03086602328525559
-0.025540412566122727
-0.03931228307744307
0.005946616712670086
-0.0029197557998510504
-0.01945635041150265
-0.00011753109545425371
-0.009065303380982022
0.11275121256694838
0.0732992702773428
0.022612414450669534
-0.03655540952387517
-0.0015281439415648266
0.051925008174968514
-0.08020231446217208
-0.013071412916732356
0.0004590155375742983
0.011520655223242846
0.008899917932162792
-0.013715282588520753
0.020828181618191954
-0.020036974807369712
0.0070749849814451225
-0.046441496502796366
-0.048567815987085206
-0.04023476835822761
-0.04512326965749813
0.04346522036569005
0.020356933083930467
0.03567253060839563
0.020409162044720718
-0.037957009532144925
0.04977762268852013
0.14076158018544882
0.038480972202793055
0.022534181009499617
-0.012289298283322174
-0.05864817064127153
-0.026143567035230825
0.03680943119071145
0.015159260808567566
0.005319228205064317
0.020010867440903597
-0.029413947610075302
-0.06726111734764148
0.055793708042722545
0.013689312996898276
-0.031360273835025126
-0.08132345920285088
0.03301106643056712
0.06552367165344956
0.020970265633951324
-0.012657712626112714
-0.0461704577076383
0.007947166732650857
-0.021803732005996695
-0.007885469471642984
-0.06208138160483301
-0.1479122376889139
0.07056635447005269
0.0014137121946418566
0.04274479842647386
-0.008359022207405335
0.03286960679632761
-0.023916996019804623
-0.03213065361704858
-0.061577382122732345
0.007768348097282297
0.002130538857017857
0.06506022737822847
0.043821780232077806
0.005972889071220079
-0.027619505389970867
0.0386233496475861
0.02863842389955659
-0.0096544869995112
-0.03434547749625021
0.007002656139888912
0.02640888956876136
-0.03490697074996801
0.02050034291380773
0.01563072197132453
-0.013790160537582715
0.025484380019230257
-0.035750193240282925
-0.010884547825955403
-0.007344179246575753
0.012189796282752323
-0.04082205694062295
0.06576697640269087
0.04442980942283546
0.011477601949946683
0.00452024722540148
-0.015700881594502034
0.02467569460293073
0.04048090811539857
0.037110947221424904
-0.04091546429604183
-0.0311258218677308
-0.04009395825955329
0.018497996806322844
-0.02593453327152898
-0.03789998785916568
-0.051996661758585666
-0.03537597698542761
0.00785549078358621
0.01705917935562235
-0.03733545358684587
0.037723650141119905
0.04066232992651746
0.02262385518931805
-0.005316848536300214
0.024597737003396427
0.024583488253948054
0.01852368049403536
0.012742700328950817
0.03171463577151242
-0.007562055077138427
0.0033754387113470626
-0.012526415772737741
0.033753631307790306
-0.0072197095769167005
-0.1511303737271067
-0.007398298566277309
0.032702047897519744
0.006368334774662003
-0.010968836420286622
0.01930478110542836
-0.017957575270585818
-0.045017988249208385
0.007517953754898891
0.02114226290829698
-0.006204288356642726
0.022880338964345784
0.03222708813435165
-0.004736770773928442
-0.016061871209725517
-0.019597818908711068
-0.0525366797750863
0.03197356774911769
0.02653453459578055
0.011741814959072169
0.10294110415808158
0.039222183227099
0.06332676048417772
-0.11822331368397508
-0.13859248969434315
0.02812631525521854
0.04799885120777525
0.010262639133595678
0.02448603967934355
-0.06333057853151705
-0.07463120012127442
0.10816457417979718
-0.08154466339147781
0.005117378405932789
0.024066500613051038
-0.030565744372224635
0.1902324547812474
0.08021383803100429
-0.11506068302760489
-0.021835830928891187
-0.04119744491886765
0.0767132250817348
0.019533121047003613
0.018740118243297167
0.012979413468803751
-0.016632451236513423
-0.13620810206873332
-0.021548000407584922
-0.010555201988072332
0.0384314936148586
0.022474606106517202
0.04256914491720723
-0.015666107318510522
-0.057552766803216505
-0.06124183668627866
-0.013398164981035382
0.009746984933764698
0.012619128841697741
-0.00892026476946317
0.01629312480951843
0.005074433532212614
0.0341695314891974
0.0072425522263955934
0.07041438472489266
-0.011125472815429261
-0.06641470032358615
0.014971605240704788
-0.01872309662701157
-0.0009236561574213725
0.018085833934572648
0.007394663922236097
0.03658663256455502
0.015171805699215833
0.003553736969336842
0.008235957868214603
0.008993492670194517
0.005434065687312176
0.019996468946008872
-0.014081252907286276
-0.15807287745417328
-0.08483887376501598
0.023169214144279075
0.016871485822556563
0.015437507006032896
0.03000581094991025
-0.03964524510234441
-0.012753006272700146
0.057544368452277006
-0.01441365343967534
-0.03739401474241977
-0.0014992859861370502
0.02767060019976959
-0.009681644686753981
0.00852311604294706
-0.041232491800901376
-0.028839417608507667
0.01750515604732868
-0.004807429528476928
0.06889386278349109
0.029854527818762164
-0.013960545192576475
0.0022992448655542543
-0.029134002050858147
-0.026774840634345053
0.022988132697481897
0.04774725580310847
0.05637476424352018
-0.013282240715662625
0.01979892305672987
-0.0049323600684444925
0.011126261715258151
0.01048486390423362
-0.022429526377791196
0.01656274558367916
-0.04079125029346569
0.018874288775468748
-0.007830427798322288
0.005482348296148989
-0.014808193397554521
-0.019855611224800118
0.00595473749181912
-0.10117845869588776
-0.0722007222230332
0.04191151932255564
0.0887433595443937
0.006856434534649638
0.1465780807606159
0.018076929032532486
-0.034806257901079884
-0.010089788208520504
-0.046502026170976714
0.0390237488733286
0.034080634048267
-0.04550638370161819
0.008183155732624101
-0.022334500733521966
-0.015182504274700009
-0.015721833504200526
0.046536517803465384
-0.004696390076026041
-0.008498307948946042
0.07335191409229123
-0.017182107924316233
-0.025056858031882054
-0.011556304538213854
-0.021087702164009705
-0.0469588096520868
-0.06336322596798337
-0.016121157783498468
-0.000214796022627983
0.066486600793322
0.03312272764244537
0.03883084881552382
0.002584286448780582
-0.04819616246280353
-0.045202879466421424
0.04810622863812208
0.07807791681630098
-0.06202052775490306
0.033970445140988
-0.035317215766365984
-0.07981202093927256
0.011313059931000903
0.026445289531932505
0.03509450508643265
0.011371404730401904
0.009269362561697967
-0.011220372411369571
0.005382855757847679
-0.030836582706593108
-0.023736542150994862
-0.028932553341062515
-0.018097768086949767
-0.024823570311682603
-0.009160832492376151
-0.02773028932850168
-0.0032364579319102767
-0.0419267245437207
0.030344259990172155
-0.028007825440870687
-0.034604291515607795
0.03248050761943679
0.016014725011005912
-0.020180134393749972
0.020561185357213786
-0.04481846729513854
0.13044946128800966
0.15489738989397314
-0.06702289226153242
0.08811419999225809
-0.0019602274554799933
0.007306853064005553
-0.025598313568267864
-0.0015237077703249649
0.018201745558759544
0.02541403865799056
-0.0076758784840393135
0.002440251640696015
-0.01801269913344424
-0.025341594797468742
-0.015081256893669459
0.03791068476212835
0.03370004210834767
0.007277897658595048
0.026361642320078812
-0.01918003954269384
-0.016666327593619003
0.0037442917768992774
0.01666679441009118
0.041332474031895015
-0.016632620012007385
0.013624656184996174
0.061838368871702507
-0.07065637696976143
0.004035258997366209
0.02929424620397425
-0.19322676055140967
-0.03999685697692243
0.003636689816959713
-0.01176099633559661
0.03699638923048516
0.06230415790030145
-0.010835715031098446
-0.021154638642041434
-0.004287772148443904
0.01129330500017245
-0.0050054770092810294
-0.0136681135440116
0.007566699874510644
-0.02082711177688016
0.013544447385052434
-0.05582966109896678
-0.03293053622609463
0.005262198862938052
-0.012444012051369456
-0.0046398293578939435
0.03300857815169444
0.026586813829322542
0.020440580974295762
-0.0013189925303535603
0.07483026613825285
-0.04288705824832372
-0.040827141158825145
0.01987823967851965
-0.05988523802075779
-0.03703614704278913
0.04663502493247115
0.03726974233508634
0.019402976251833345
-0.017281820879548947
0.03035707912850853
-0.018784677107577873
0.00916456964121782
-0.01753105069635312
0.026644742175900304
-0.057228217540334136
-0.0334424381663393
0.10981630601520655
0.019303728891064072
0.03115316813811804
0.02503723275771224
-0.1296669985773096
-0.11747940803682502
0.04848470230125333
0.004552733749652236
0.023823242455406284
-0.007691072231444154
-0.04080004307872757
0.026374905006779862
-0.011807934036525329
-0.06561860742394122
0.08307575062156637
-0.004876823221575888
0.025329013875157444
0.030878014850861696
0.04233909871975907
0.001112709042410497
0.03426142414043642
-0.0348501823177408
-0.023576309615840427
-0.021307902309759177
0.04709005688975989
-0.021483822604499925
-0.011978111696093592
-0.005150386070583331
0.04177112956077501
-0.011381466003920001
-0.07136779495564285
-0.13537765903141313
-0.025028867418115996
0.06806558284076138
0.010960720364376455
0.005411353270548634
0.024942284090021024
0.03602142076383939
-0.009900281453946426
0.009414890187570038
-0.0333790196299885
-0.02545136554608865
-0.003358214781880649
0.0021023469394989675
0.042364807373478704
-0.001955666279800877
-0.033775177811010366
-0.027557502296660832
0.01708298622824186
-0.007334441615141898
0.028934437402107768
0.007251314986084246
0.034344652167313
0.0192884922151286
0.0076762476180931355
0.02626928802455514
0.02000920398902688
0.003186754699012941
-0.008575959669396675
-0.02334276355701041
-0.00015757603081815956
-0.018679365153611276
0.06477848934790141
0.069038240786314
0.03036854440307688
0.049656488349923894
-0.015004124214591203
0.018602314178173467
-0.017248241534048057
-0.0007111878059616238
-0.010492791199065704
-0.017522002348611728
-0.009557804790714377
0.014729977595546112
-0.0055991794112277326
0.01567941321097548
0.03996576290930494
0.09567056805304543
0.01028264275306101
-0.029806716983804504
0.0004287750327295262
-0.04825151671705055
-0.1622848153795526
-0.08843396082264401
-0.01653656026989214
-0.021637174444186124
-0.001849973673923217
-0.0024871105101014314
-0.027208406950116965
-0.010548025428481019
-0.008628453483040227
0.02314225033021463
0.010067522072281307
-0.02970910679279221
-0.016469329268221262
0.03971360753074713
0.01191130924899741
-0.039189001681894015
-0.00536080699830083
0.05075487666159964
-0.005957542364322055
-0.07516876147457727
-0.0339130731303251
-0.02452430360999003
0.02401746341304379
0.0021951670597044125
0.030923258617029718
0.04380098393408848
0.06505840780980736
0.000891796890932246
0.001561337463691029
-0.0046384052942548895
-0.015253080774983867
-0.008756200049800995
-0.001115532786512644
-0.020398789445703475
0.02203609332260392
0.03615289755998722
-0.026282021526231072
0.056181868078645066
0.024079512722273475
0.006044646396168349
-0.005663732731574224
0.036699162640812764
0.18651528639092935
0.01193820312975023
-0.02963532470969357
-0.029286582396380625
-0.021392243629916798
-0.028578674166852985
0.02519956840294559
0.043860169629670674
0.011623768584636783
-0.026510292685801396
-0.08301992282692541
-0.028956946730477925
-0.005604831757447486
-0.06486809514792755
-0.07682112031808841
-0.006797484957738414
0.05616743081135661
-0.0090677736986078
-0.07176590514257977
-0.013814601250417174
0.026420384129293442
0.024056543973348745
0.00942023797261432
0.0028195443572758233
0.011888266371005634
0.026899031985900546
0.0031859598592636615
-0.04609392033724021
-0.045372535862229266
0.01760444253836275
0.03827163652407992
-0.01833494873885245
-0.05969429461692223
0.02468533684633487
0.07173739153716312
-0.0144887517603537
0.0016861248053440911
-0.015296550978243615
0.01596880475945079
0.002011284285746589
-0.01789690495761564
-0.028681343479021446
0.043293629296760575
0.06926638685797938
0.04037619502069206
0.04389537846032611
-0.002104972148713667
-0.002001826367330299
0.005169857485599162
-0.013022541482950671
0.011690098004793646
0.010284563004635112
-0.02132989411029409
-0.03517357596739246
0.01884474476508778
0.01050981274028853
0.02017380413483519
0.00012647307144682062
-0.014531895502512063
-0.0014863111328381408
-0.004266601781311509
-0.06279465272961109
0.026481928845482953
0.013551187537205871
-0.012225860552136673
-0.0099702340488286
0.08219711007435843
-0.058306603016962305
-0.1739602309477895
-0.008173986578658952
-0.011659123123723953
-0.00377192977632226
-0.018739905307418685
0.0178234171329878
0.03157439479182524
0.014822878733061881
0.003809367740068485
-0.018499257217706323
-0.0016710013061957362
0.095573073042215
-0.036207344025538324
-0.034759897152204476
-0.009680907263538123
-0.017824010357364306
-0.03524661141165888
-0.0055853617249281146
0.014219181431036707
-0.0063242710132687865
-0.010860712616993149
0.012198380534825835
-0.03195856294077182
0.02251956515597787
0.012768297789178656
0.002589177362437833
0.006547167350371932
-0.0369080326379894
0.04103351120119294
0.06865944146592205
-0.0056770369086598955
-0.0244234977380179
0.03765177555621763
-0.020855603016447122
0.1138477476611829
0.08680216767080938
-0.07109359812673827
0.03894376835995059
0.0008094091422808046
-0.023132798805100437
-0.01823600721781279
0.030357183675355365
0.0018537620034736794
0.0007491079248434322
-0.03247934386004288
0.05784027881786236
0.06995951090410818
-0.05110358667398286
0.01970515490452971
-0.027140348159012298
-0.08733421677485602
-0.025425524680032917
-0.025030188768164454
-0.04363716859590776
0.003690676373073105
0.021877126649174492
0.0497737297886462
-0.025976057949853054
0.004872393479470107
0.009986644586177066
-0.033942332645540925
0.0025766794492159194
0.05245599530872488
-0.013294940177849796
0.02001715893648792
0.0173288898975061
0.005321834828727969
-0.03257101770696327
-0.09280792655991499
-0.0030462930303375973
-0.008670806544923955
-0.01912800138349385
-0.04547636956287469
0.018535608127159684
-0.08016546892023325
-0.01955222901918559
0.03844089787093129
0.013065913280589392
0.0018498621695230766
0.004929918665513368
0.03071579043627193
0.05405739360458794
-0.017967103564895677
0.016714828296805404
-0.025840217187954515
-0.044507523461744754
0.13796893113082517
0.03547471991897928
-0.0017064295237101364
0.04183442686662116
-0.013387825693883876
-0.010822237029041837
-0.05624598751176719
-0.02371428650061603
0.024199527638141226
-0.022037395509581916
-0.029852072017284483
0.01579134945200452
2.3130145457947723e-05
-0.025403291624900792
-0.029935279291592676
0.004192514296149815
0.030097545436424906
-0.013036430156117332
0.053390630286728344
0.010353389447287127
0.019947554270757468
0.04040303816192276
-0.01469052032061922
-0.0005757658816171598
0.03925234705912158
0.05528186486732757
-0.042281699988124886
0.045067098214342856
0.03560996322851824
-0.029554102623794397
0.009729864355196453
0.06365267481725204
-0.01347833648657304
-0.018276526570561214
-0.0322750166880032
-0.029905971115074537
-0.011708820567154084
-0.00022326800206042176
-0.0035812986163835992
-0.031474114473210586
-0.011781826062349328
0.01591485330514468
-0.028000019210995597
-0.013264792698651235
-0.05453781971552893
