0
-0.030644135835595825
-0.006621301601645214
-0.021272724504171406
-0.009125955056022893
0.011003580083737101
-0.008508051550581387
0.005882715654424188
-0.005085744275725812
-0.01733560613336303
-0.01453324185865904
0.019918834401086456
0.006342689476797683
0.024294448846660648
-0.017192446810660515
0.011753740808482457
-0.010852406229986832
0.002409840173333054
-0.017419873659908134
-0.013556100204124427
0.020021374362324467
0.026410666290469037
-0.017079375110921075
0.02569432123937652
-0.0730575662080673
-0.044460660133291474
-0.051408997836794965
0.024000374285564407
-0.07033136946454795
-0.05690833095584581
0.04920702617176062
0.09751432607906818
0.014934319592396246
0.038730680562853996
-0.004450525648947743
-0.12440054817328028
0.08384358191658237
0.010690035532096858
-0.04129572052559075
0.004975893198555091
-0.05344480663702937
-0.06630284996228519
0.04114457805827196
0.01855572764296607
0.016852249110780485
0.02248976388747671
-0.023219168605636577
0.009053270713767977
0.04514964628760096
0.0006606746918121643
0.0002356030511612997
0.0013312622384431135
2.5594584561155384e-05
0.0015742229237565258
-0.020560737327623434
-0.024462215380956963
0.05744351480755076
0.04700145782457704
0.024954705339903488
0.0737638352777385
0.03127035140791743
-0.007064635895681379
-0.018074672343387357
-0.0010439451216053494
-0.025297663522855996
-0.06917450171089215
-0.026719648368096666
-0.0027801005491766367
0.01332016419034308
0.021205704509338653
-0.03023362471742223
0.040041721849726396
-0.08649888752525435
-0.06802544354202743
0.01711266389975868
-0.014741148353096284
0.008188655713557855
-0.014450208548060332
0.0020884543436221824
0.07176625624400966
0.040123728295169456
-0.04054656931053002
0.017152317076600847
-0.050569504812971545
0.02865690863330437
0.01984788706597273
-0.03642995376595492
-0.012114544147563536
-0.009354758241099085
0.09118260657716816
-0.014661972594121539
-0.030118615863249956
0.0041542421993247146
0.004525295647807957
0.0004195288124919207
0.009502213559629985
0.0007636821197435778
0.032231114035404504
-0.01011614488225801
-0.019109065048401822
-0.002677548538695809
-0.015494487925728563
0.033396500176334776
0.014181900955767383
-0.05272694806960109
-0.003073840427168133
-0.020291987792564997
0.0034144049256325504
0.015428731714580727
-0.07317054149553529
-0.028546435217158054
-0.011603132035747999
-0.020005369017972226
0.04874146821221308
0.01930587656613817
-0.004448111936975743
-0.007739773477608324
-0.01503192142773921
-0.0324520391240252
0.009141528677483753
0.03656449917617116
0.06398297618243189
0.023700134002855575
-0.01600498055163796
0.0030047717541069924
0.15373842007238844
0.000749239483165647
-0.053523212436218534
0.01388738980917554
-0.01947390618350319
-0.00613602139067426
-0.02800337480315097
-0.07233317002576231
0.006050147996140538
0.03894455603743413
0.012477823536047709
-0.023967967790040342
0.01706401251683314
-0.026564998457022707
0.010290579169025602
0.08147504388389457
-0.02124457018474281
-0.029477267609521962
-0.023172253214356016
0.018928793565851802
-0.028847120895809573
-0.01805798605610077
0.005583641227971197
0.02254393477583091
0.02262366521765337
0.022172978648669496
-0.000284024523105645
-0.026415474628954702
0.023971991020290132
-0.03254589534848288
-0.04159628241310374
0.001654922746328362
0.002878190540618738
0.018091665833418723
0.022606390659235323
0.005939827024889378
0.03971218555926491
0.01566429259675872
0.027557208511495956
-0.04440466452150405
-0.011657835920575217
0.0038819764316139933
-0.023522390834102184
-0.0323065711243869
0.0048785023940417045
0.002434942932336715
0.042784632116586896
0.03877183223729316
0.040586619688831586
0.03328715243365541
0.03254871965949136
0.02961103212249309
-0.013382197876145115
0.020007167152952074
0.07871140502176292
-0.11056626645382701
-0.11721736798576338
0.05394893974886641
0.03228200546124471
0.013088862111248654
-0.03135178688050497
0.04135246384965721
-0.02675123724886307
0.04905048922515652
-5.2449094571570625e-05
-0.20306663698744573
0.02009852596317911
4.189569582500324e-05
0.021448267353336006
-0.08162340937556348
-0.054152887411599224
-0.12612038422668795
0.009956853926784047
0.017406550402363608
-0.020296214803968243
-0.0564756918138358
-0.04252286178872846
-0.04478770492088519
0.11214377681247806
-0.044437650218714785
0.16756726787844775
0.127179233628568
-0.0380799994063513
-0.05596625775652511
0.019046529139517338
0.024576254444592358
-0.05543459289321207
0.011389596447437372
0.007543587224111011
-0.02161711710197673
-0.006987904091642215
-0.032915089116813165
-0.059953198573424835
-0.024229782501384016
-0.04021974096597283
-0.02438405016300754
0.09260434978274036
0.12254015609300693
-0.02217718374527274
0.014634096616610201
-0.025384470077240626
0.010327756385924054
0.008426545521190194
0.04170049729806393
-0.0415389573006256
0.05866341572315312
0.06808075231400723
0.004161358062242238
0.0009089954215806627
0.007702023205312159
0.05396270387272252
0.0008929318432041941
0.011700809954776547
0.011287228334855268
-0.0350928339352827
-0.005796240784262378
-0.013725989747295471
0.0018256486748556644
-0.003039164236573082
-0.004120099482493855
0.023490531850945646
0.043874981737801286
0.01724673751749123
-0.09039386492551235
0.05162300118735173
-0.11474580741027345
0.06338332473741884
-0.01110324005683102
-0.06483149638234025
0.029865436605534465
0.08000048957509669
0.032426673716321415
-0.044205013973790806
-0.020891591362503282
0.0018501229186122395
0.01951492792324256
0.015191016371683326
0.01859814042927011
-0.022969082108932247
-0.12920572755255588
-0.15228994283475095
-0.09287243123331487
-0.01680190040559905
-0.021820204785646852
0.15507142162177556
0.07230083860156078
-0.06055641200214335
-0.008882770137910861
0.00895592261586282
0.027973708233308175
-0.014086014318559851
0.007676207837167191
0.1316832135225415
0.0685580167601997
-0.02200604234717
0.04651486377448463
0.056343914972716035
0.08978910773379281
-0.01547759838322105
0.008116154036636195
-0.0338429956431856
0.05800080739293327
-0.09898729079785935
-0.11864992415465359
0.03614264428708436
-0.00798026838714297
-0.012427647178132944
-0.03180376889947002
-0.006367197976852738
-0.018777778989944028
-0.012017856990508741
-0.017932694385942097
-0.013410655463850764
-0.05647097400902177
0.018285607913599886
-0.009714543108585463
-0.06628292867441908
-0.00475800638329314
0.011111659144230322
0.012381616964494649
-0.010165727879585633
0.010378232774607612
-0.0037094394537444003
0.0021827915432033012
0.020586215297688403
-0.011985219665834549
0.027581824595842724
-0.044118669241835794
0.17524342883532443
0.06118070424842563
-0.052974213581572005
0.00017380086663423076
-0.006592022421429254
0.05939375231832501
-0.13944783616664613
0.001635592557460848
0.011951203233460689
0.00246958572747396
-0.012788546228867081
-0.07882852259624343
-0.013852204841678593
-0.06143228114132532
0.0896979624052204
0.21184187093589346
-0.001462532719173048
-0.002487379713197581
-0.03062249382360365
-0.02045998383422353
-0.06075245888214985
0.04089051000542794
-0.04066909161208417
-0.014906787884150759
-0.006060792678537853
0.024770915061057726
0.003760263519694702
-0.031186486303284834
-0.042202711001095426
0.04090901178194593
0.02784508903490431
0.04978569224578763
-0.036317876804728526
0.00841421519726085
-0.017292273081331275
-0.020715297873621558
0.04642436130860915
0.03578674943949216
-0.02095172114247982
0.015714884077112273
-0.017291933917157623
-0.018712287024115235
0.0022332654621724075
0.12641132139139108
0.10912482788092888
-0.06815530518600627
-0.014916773088282582
0.02217742796536389
-0.01613262784896298
-0.018132343925251645
0.013329130196601395
-0.03451781153479522
-0.01615717452769014
-0.053036344958524204
-0.14462699077040064
0.0006152472684517024
0.05386878307342674
0.009271913184033436
0.005829853450683945
0.009099386699286303
-0.027455409977850218
-0.0008532670608866137
0.032584213662222486
0.024281674406485643
-0.013599418723728588
-0.013255736403439085
0.00139750737228831
0.08143754981627045
0.04855437564363924
-0.009782560692344514
0.03035097221413146
0.0054596432170036
-0.04951485805669978
-0.10827339351607376
-0.027556681568760493
-0.014961779435722406
-0.03089061522930236
0.0020215091019724772
-0.04199720279944215
-0.05704743837772884
-0.04814283806208924
-0.02156438991412145
-0.007779440059092162
-0.03993946084177655
0.04143628122390614
0.20689829639124901
-0.010729768822397063
-0.04656458730932814
0.02746341459775271
0.04530791996651502
0.05868751620506849
-0.035698375330498806
-0.043925362579389886
-0.03449024984525369
-0.023151843376126427
-0.08987339859945626
-0.03775366882695347
-0.018591156245769833
0.028003232377855177
-0.031297818359437235
-0.09199924388525445
-0.0030329822880416327
-0.006405297278080165
0.06846264460018205
0.08043359147216919
0.029921515492715302
-0.03322674824489256
0.055266337697262476
0.021392535774416577
0.1298879708291242
0.05822645093330208
-0.03152804034736038
-0.010388522837382343
-0.036672357563696016
0.11485452043108543
0.1198678571216392
-0.006781906071883256
0.0004478537482354249
-0.00411720040419614
-0.007211425551726785
-0.01671908875861764
-0.0010908054006378634
0.03311840052295869
-0.013127723133015806
-0.020077339712857432
-0.04531149654553307
-0.009543218735116899
0.01283634821699741
-0.01129148349110968
0.05309911269576695
-0.029306506989504596
-0.015989482817926486
0.019421717315530905
-0.049656856225477476
-0.03369852013294741
-0.03189632595005739
-0.018914722115934268
0.010822462640734339
0.05269971407950448
-0.030092045752866167
-0.049234457852100184
0.00439477487452847
-0.011898923042155965
0.018369953084034153
-0.04067294868169488
-0.06832385447855242
-0.0010121842387397111
0.030375752036582594
0.015856683133998177
0.0420446385386979
0.1759624674167829
0.05351192658912956
-0.02485162765083628
-0.01214342339739899
-0.006901981965173528
-0.04853741766021456
-0.15699401726122558
0.029359828016979516
-0.00636830599587258
-0.024270708283299133
-0.05046433598456013
0.032683828161361
-0.0019539646655754124
-0.022232365509995078
-0.00902917907657576
0.013383393405327335
0.012284124046132891
-0.019620209512794202
0.023108909670738434
0.039657246331437516
-0.05254196684466207
0.0530353746421274
-0.07269952089498669
-0.0904958365392864
0.01442264462156669
-0.009982294517701036
-0.0799152020805206
-0.028626516568178866
0.018569992081995678
-0.0218005989486641
0.11127792606830175
0.26837041010950463
0.181077067526935
-0.004578378886947178
-0.07161914069185156
-0.11719540056626654
-0.04293030390437588
-0.03314650041006243
0.02899311098970355
0.02647797760209217
-0.01986099795227204
0.015228618851902121
0.008163903414219844
0.007786359251250087
-0.03619754733765254
-0.011827086956852525
9.072405946019474e-05
0.004296746757701472
-0.0038992527439557357
-0.013503884274548383
0.007540339494536727
0.016874033361685185
-0.03225661268291663
-0.041622897599928176
-0.02720411043009801
0.02946716547944299
-0.039901028626064025
-0.020197570902641276
-0.05748851690464396
0.04381108886253292
0.08528848772282434
-0.029316833840243816
-0.0008650549922703143
-0.006909294490349152
-0.029018497980593094
0.022642901179478772
0.08040967567098076
0.004999038094951634
0.0021767220154266954
-0.01288363601297339
-0.0038711362361395062
-0.0024026002038695757
0.00284062707626779
-0.05110108855303949
-0.036190639064025115
-0.01090692734516529
0.03238980443290794
0.03298626162518032
-0.04655693942748109
-0.005698361913626834
0.042438679565494145
-0.01593115326135132
-0.03440891415931868
-0.0458987744988814
-0.019672891749835966
0.02221665602625221
0.21085334389395857
-0.015566822989231345
-0.039780835475567676
0.004216239892746311
-0.008827826217395208
-0.009847553150755963
0.00705577175838232
-0.023643491044188232
-0.036442705949005505
0.020270093611574704
0.03303701495994603
0.004332682309357079
0.03506996634128264
-0.03668645806151987
-0.014776881445371752
-0.026057338227972668
-0.04380065619526295
0.03183192497336158
0.056017512197743105
-0.013726146505954865
0.0023483316349924353
-0.045789690685519406
-0.02478582893608454
0.034115608047992164
0.07437572305814734
-0.040276714711002054
0.043699278689022215
-0.03778554052389955
0.0024254893233676914
-0.008042866022125304
0.008038029768103081
0.0024998512477719986
0.02096709503596826
0.02525974650523484
-0.015442625650572327
-0.027681131013848486
-0.025787114153939597
-0.04098578083571759
0.0033667352373242714
-0.025941324983433923
-0.031121346904196757
-0.004857363005598691
0.02227083192832012
0.03976274023549516
-0.033869122045601434
-0.02788927918093011
0.030763448821091204
-0.03818569999146914
-0.0992963590547836
0.010414604924826144
0.032339927875507185
-0.03242364949911295
-0.005575224833951246
0.04736885489255484
0.048289189503895776
-0.0019375089639217023
0.0018838700167153844
-0.020434769214788037
-0.019505865762083213
-0.023404982469225896
0.004683307692655672
-0.020290962122039038
0.008642602761030304
0.20122411210541205
0.1773294985159641
0.04405287680023306
0.021111621448137295
-0.03439640666465381
0.01159177954308513
-0.0006088849621452065
-0.00014081664375424426
-0.010630336176156602
0.02800310459887858
0.0908526726249703
0.01171512844078699
-0.02630957334058524
0.004818046415843395
-0.006139514400914933
0.017714599758039833
-0.03940032261151977
0.022300911974160613
-0.05820031454506442
0.09159787126571682
-0.04307811926107615
-0.096506562265202
-0.013835344842194975
-0.01925235328549664
0.04254235574847601
0.008576319202227898
-0.09438003916519207
-0.029636042231485218
0.006161114352036797
-0.07973087075117269
0.027774179926468207
0.02835666811807132
-0.11997627926261611
-0.11036422243562428
0.05847240100122789
-0.024440772490294256
-0.26351184895552343
-0.09928885111933897
0.0408497289694144
-0.02856817544251025
0.016961101028986375
0.0005315872810952366
0.052025224404896785
0.037144351913318156
0.20694260994392025
0.03280330762135677
0.027355335278828493
-0.009632363534661206
-0.015949452411526156
0.0017155975728306075
0.03268148713944516
0.02401766201145267
-0.035517561067999665
-0.04322315288519634
0.02104583056606856
0.015415450562277923
0.0025264382395265694
-0.0022920622182692404
0.0005942308667947794
0.0012322304698266292
0.004795509607756017
-0.018637508914430112
-0.017747640876860128
0.026447117070512203
0.03511610391853963
0.010785058351342552
-0.04874017137050343
0.07015112545808005
0.05378207463769569
-0.010333257228243773
-0.015769679087354084
-0.02436787947141534
-0.04179552296485098
0.024662383710353727
-0.01019780149297276
-0.02395914331734949
0.047979410947233896
-0.03575927408685091
-0.00739527050774937
-0.027011825727583243
0.009590486266342343
0.014486452840690346
-0.05402437864992259
0.024365629449837337
0.1479631791937037
-0.0029900193930458103
0.10360816410236658
0.027228708078647402
0.001149634119277373
0.022607212970947657
0.02083436261763619
-0.05443429789775852
-0.1562219001881395
-0.1610236036951166
-0.004386271944102103
-0.013562513363330914
-0.012028488686974518
0.11024985673128994
0.17280434594861074
-0.021516106875498466
-0.007310989075437895
0.007266657961646232
-0.036121983619559137
-0.04544202914735958
0.010809330359419273
-0.04397394867887037
0.015799673522581027
0.0010123388402936938
-0.01836157231771791
0.019016070950450173
0.022250701071293507
0.007512755767594335
0.026474972960816655
-0.022418265768819053
-0.04322229513973466
0.006851955650550599
0.03132463389279675
0.03151288789811868
-0.03950393104279256
0.004725495627358065
0.005613344834821642
0.028921609536835233
-0.02025772356647929
-0.015164960583225357
-0.007284426295906011
-0.007292837787793877
0.018443323014438445
-0.0212054445141053
-0.0014033951210693644
0.024642905164313323
0.050890150048821366
-0.01455854768062379
-0.01569382254354224
-0.008520698938041424
0.04053808550535881
0.0459219293376246
-0.03934498434346821
-0.02777602659506612
-0.015038112924739614
-0.02250033102054364
-0.03267121644221727
-0.013919817539804973
0.021857233710963608
-0.007262767327884883
-0.026923400070523424
-0.026345873313164108
0.007147118617386565
0.011566930601935324
0.021237091441746885
-0.02129299529515782
-0.02593856410249947
-0.0800607631157664
-0.004303690311512431
0.011662346708417558
0.0059753037478002795
-0.011155331457793198
0.012126797676862061
0.03474573340081919
-0.010484336840062579
-0.0003854854908642981
0.01211117335418099
0.16152961665109442
0.005407413289010092
-0.1033899542230456
-0.04058469337333596
-0.006371630459322843
0.08531563578440747
0.1428008355165104
-0.03082091622568076
0.011313736107167923
-0.0011889258478499668
-0.0034142257450976454
0.01920086926053658
-0.010714500467206152
0.042666892367767516
0.007039074759719619
-0.026552517602096454
-0.001140126509784385
-0.01407073545676062
-0.05679996931443754
-0.14931798304074492
0.01459867035985741
0.021694792476670468
0.0103953985479791
-0.030221495056912275
-0.01216970096710921
-0.02738038134457487
0.016528316206418765
0.04327577264737639
0.01897300981225254
-0.0038027092834158937
0.004806830415637105
-0.02673296621753096
0.01906353769740361
0.006050358761009812
0.008267066380932072
-0.016239987721122513
-0.0027989091708506375
-0.03315345516230241
-0.002850317399925962
0.0681753356039548
-0.028512310705843237
-0.036186771428012264
0.06216605088167783
0.04178666265675766
0.013379886623877945
0.007296475965509099
-0.019468618723624855
0.007946462465139371
0.007340854731889402
-0.010256706239062883
0.07440272667099469
0.011763045960942511
-0.015176413402108922
-0.04041398013026179
-0.10067537898306876
-0.010990546293480303
0.002199489875993286
-0.0013556350954355232
-0.08065943374178576
0.0032826508710080927
0.023550933365340435
0.013934124377350676
-0.08242959430675163
0.0016015894321586277
0.009063944710570588
-0.030458642459660533
0.0063589676507713406
0.04820512659754636
0.041591863591669914
0.0024181057838343076
0.050243594678042916
0.016703788318400848
0.05411283650643758
-0.016497340256389104
-0.05503216110478968
0.004326821388726956
0.014220144251844473
-0.014950193674177558
0.036789263210022814
0.07304147460650419
-0.03353690386501372
-0.009157648068160086
-0.02329255129583251
0.09640423519421265
0.006900115545983931
-0.016716631255497005
-0.0052192426893632685
0.022413909134131303
0.052528949774854936
-0.011888541879630938
0.0032093423207939452
0.0029565715672107253
0.013676037216196313
0.02154547761657305
-0.04881087090186872
-0.06223963064254904
-0.06335726061454117
0.0009783884444344389
0.027596269552235625
0.04659438707587369
0.00034423990578929723
0.01200037917298175
0.01616795048849699
-0.0010853879104501937
-0.039770402347963585
-0.00875483646473231
-0.06871342760026554
-0.18701645480724738
0.01880429678557899
0.008497263805255383
0.028098081461401806
-0.023862608979989746
-0.012907648738757159
-0.02583169100943059
0.009038815367635233
0.025044929276096136
0.035519479302597246
0.03089067156184035
-0.03816594977351653
-0.021751216407804363
0.02270473037008669
-0.04005397146226376
-0.009152572620703698
-0.028988556891673633
-0.00023804086590283133
0.0030977212331180217
0.025441968532717962
0.015312359889432648
0.11268907922285175
0.05786884624755718
0.026412785731362878
0.014745629327134134
-0.001796225510980004
-0.041143631982020167
-0.005842208139605362
-0.02572802177500805
-0.011440415998507052
0.02087296354336798
0.0006513968823426507
0.02770266107248077
-0.022298995213563547
0.06372126317360097
0.12321765909889303
-0.02226370749149816
-0.01644738954518614
-0.0029019913546315564
0.05166797895428211
-0.023456516790892497
-0.02850056334787155
-0.21060228792110436
-0.051276765725490975
0.0670063511631677
-0.00531332914687521
0.01524758459367677
-0.03670687434412285
0.002717048965043244
-0.050365475000965
0.007816732009233806
0.01697519880443552
-0.02664978530219118
0.024958914158860687
-0.0261769266601528
-0.015674287120124523
0.02177846842934658
0.00423554568897787
-0.02330778705918199
-0.006314524123780825
-0.016555728117611416
0.015807051880247638
0.054996420252592125
0.12295632168696799
0.018137745199868053
-0.02706958403144162
-0.015389895219401824
0.02640156109068543
-0.026777965781740323
0.0333633931730336
-0.01874237686900469
-0.0057478289314580565
-0.0467690275652247
0.08042473181452305
-0.0058625629003743246
-0.0018759168977895504
-0.003140301030145606
0.005935224131050957
0.003284530237092476
0.028995337251449312
0.017721716559809638
0.02397025923822375
-0.007950108925610813
-0.016281107588242593
-0.01060433650800246
-0.001041286749244643
0.022437978508635163
-0.03390887612954357
-0.02594466287838231
-0.044897551554990235
-0.015241455392718612
0.003381632486540784
-0.03275887174354618
-0.014811526335614113
0.010961334979802156
0.01487043437505964
-0.0005488382195615111
-0.004903979145253729
0.05704181918046363
0.012575506068666803
-0.023801183080962452
-0.02046170623538167
-0.002100661101587206
0.03397870315329404
-0.00623865697709983
0.0010850647648110118
-0.013904147456530663
-0.009221755327368913
-0.021065694867503697
-0.0019936327459468325
0.03809379204549587
0.009806900895246206
-0.009319950526862688
0.018967900646742912
0.021804242211162
-0.022003569946915224
-0.026200632967126197
0.007718687553791552
-0.0037155069190173582
-0.009323216841186286
0.02571618541102297
-0.02861626911780711
-0.043699099052776094
0.013595778272365968
-0.03423033927320615
-0.03493319245524147
0.01580501697775332
0.006909151427984833
0.004079001684343849
0.022643936523861787
0.04055072465535654
0.05489845499664768
-0.012815956025494566
-0.027146571648417907
0.03161269134522505
-0.0324814949210889
-0.002771892792155952
0.03035409742130155
-0.010425591743153538
-0.030824938736485456
-0.02477707294745549
-0.0238646887296998
-0.018382855166048432
0.00475683052607814
-0.027107816190987157
0.008066725637160068
-0.033923381996162905
-0.05435022768220041
-0.05037661692291564
0.04180574581013464
0.01038038166948376
-0.02857495990021149
0.0523616419185235
0.1401958516613588
-0.013957578023647225
0.08748373560912627
0.06090361091730086
-0.014424881619908904
0.02547107814322043
0.04939236315832019
0.05790731237900606
-0.02137809308714123
-0.0268490844012617
0.03640041743241406
0.03161859570360275
0.02377891297135492
-0.08183192827062807
-0.01810012636340256
0.02937241061424058
-0.00477672738352406
-0.001575082142651275
0.002845506451353572
-0.041157125831599056
-0.08075106557656725
0.026263625157753757
0.0010779491242573014
0.010686109230588414
-0.1123217748760689
0.03708738974010677
-0.02664626363268191
-0.03323608293948335
0.017170462417246117
0.00892585178947257
0.018092654831085957
0.015223288370095584
-0.004957100690827563
-0.05315984252541853
-0.04656602432107064
0.027473662218397647
-0.11846401654546788
-0.009420334573999593
-0.03050461869347542
-0.005434834948181763
-0.0024014600948196463
-0.027872085244642162
-0.05809819189196706
0.09275050590518008
0.10979684468506715
0.04586517281028351
0.08859150013414599
0.023413508675053825
0.024647434352371246
-0.006685516534742925
-0.02463454189496528
-0.004615817342690022
0.003621427123966888
0.01737512399333377
-0.10218807449757816
-0.046383671858730796
0.00277097411242627
0.02391133713488022
0.029052769501001066
0.01259215945727478
0.0048554113869783986
-0.15032361061046245
-0.04850444594657564
-0.012679905991164397
-0.01563568763029015
-0.0009547411697977747
-0.011321857726007063
-0.00269740639579782
-0.0005957287121664716
-0.02949258830176414
-0.0363704450031664
0.1783271257410875
0.17041995315660438
-0.01024002099930731
-0.016707778664539354
0.010477774493253529
-0.024170246787932864
-0.009484984138246918
-0.02537779254997743
-0.021509362904789164
-0.000915721085394428
-0.04983622675474827
0.10177074678396118
0.054691343748192636
-0.03859563827469217
-0.011537162880949546
0.023264031741705164
0.0343633482743931
0.036089055541752034
-0.021340428767174544
-0.02843518125670191
-0.021871216911996023
0.016117026340713877
0.0011291807569108437
-0.017317588563356426
0.025308415130933053
-0.0025006888892562936
-0.017947144008584274
-0.01765299004308188
-0.006906446203376001
0.0015284422374220615
-0.013889947110349047
-0.013801417256080742
0.0020529573803468753
0.04265600869123678
0.023380450460055876
0.012052842251133044
0.06929376926359623
-0.005563515643103027
0.022717174637395386
0.0021277990244984372
0.06619006640330624
-0.03103978902298715
-0.21641269294024415
-0.00829533040684319
-0.006959328009103989
-0.029257497337229512
0.02023244923634347
-0.01697761465155148
-0.024588145508721994
0.01372460229159425
0.006747272636543983
-0.008228348682423016
0.016289939540799648
-0.0157506129679825
0.007987402932752588
-0.028210722852495356
-0.010179627414556636
0.20436359915280786
0.0641750247567586
-0.034815228130760954
-0.04045308149032494
0.010458957058156035
-0.0680900063262181
-0.020837170076734607
-0.015575690923791692
0.006129831929972849
0.0035142835414040396
0.014640793756485998
0.01033824165693444
0.0033470643360551558
0.03750683754707557
0.018216753290688083
0.012296326456066023
-0.04002255939510129
0.0037158436449366014
0.02243161907298676
-0.0031476560510905094
0.02121782876211682
0.010091191666955443
-0.015151134350108002
-0.0021482307700252464
-0.042540763990959324
-0.008838064717402316
0.00574225148129777
0.051882040304351645
-0.010256499171379463
-0.04359963567629227
-0.06959815824253444
0.011852925084857276
-0.036395116768353726
-0.007519998036717573
0.0046387996521036435
-0.01777637379716984
0.005208342207538157
-0.027666653156616317
-0.005536166169001852
0.01247805069606479
0.004649647272254885
-0.01001457295663231
-0.017383919405459584
0.024487052826458834
0.0034570000642925
0.025704711686282574
-0.026072243600259597
0.0027927509175769876
0.02170729280252599
0.025200623274438644
-0.018356213384084132
-0.018188854640261768
-0.005387228134570699
-0.011189388243060436
0.02652315290244803
0.04889336746613082
0.030418272087279572
-0.02539465886225815
0.02695956869617135
-0.02174942373405763
-0.016049800749964142
0.03394255933390823
0.0070348674558426
0.0013951041662744628
0.01965243109172592
-0.013340671313097368
-0.01945305767592411
-0.12389794311464111
-0.03867559631282578
-0.0011613715547589033
0.030094305737465202
0.016942279620819414
-0.02822030952050004
-0.005310943698558557
0.007646111965632371
0.1764155966662718
0.009714709177967717
-0.0213643247885639
0.04531269088598401
-0.0008016232023881197
-0.006723182143007634
0.0002886082571858702
0.016933813945174576
0.000485943456478383
-0.02354030496087243
0.004460152668003837
0.00970733433060057
-0.015752891415572578
-0.014862869520048082
-0.019752116880069146
-0.02174752582489284
0.006564004264341466
0.05844651057019383
-0.002374836350970809
0.0031777661634887315
0.0321851811003672
0.005976497990774033
0.005679943523038102
0.015697675874232105
0.017908393824525106
-0.01614721650492085
-0.03828461551174449
-0.017469867341311847
-0.03343355183795663
-0.015486908358002581
-0.03015584844712279
-0.04709053325194809
-0.026428012433965527
-0.03262321513819028
-0.004705027112426837
0.017533151343928115
-0.016811761508969566
-0.025028572000797687
-0.0411267256004339
-0.01196136586074754
0.04148261524882159
-0.0014405728648940756
-0.031630045684225935
0.15751115633883192
0.08810234647578392
-0.04002118494557693
-0.00143563320801817
-0.04678083413743493
0.006381272882107089
-0.02130529261394899
-0.021275581026250403
-0.02098934930946621
-0.003629484660668113
0.04986541544977479
-0.012301990155602445
0.019872962911693867
0.03516446192758159
0.013555469644633101
0.0065452410586938166
-0.020411526558606008
-0.008338551093223713
-0.028096454415857283
0.0578441692571445
-0.03238731725870699
-0.03553594426990346
-0.016070443455272254
-0.02194576078900629
-0.07734030798857305
0.04728137570490962
0.16814840015291369
0.03814381683282562
-0.02927843078606972
-0.083978096017299
-0.060535036260899885
0.025166667448460606
0.04625689751949042
-0.007055381894799327
-0.005107012030891334
-0.0037777260946431847
-0.014792079583986244
-0.0007195041139549945
0.00285038768962128
0.0018775020784765498
-0.06539827949902113
0.0068418605309698705
-0.02247563966963316
-0.02770756229953713
0.1288436230277817
-0.023071119592775254
0.09079835929983057
-0.019186330681415315
0.004189855601834946
-0.04808712007229258
-0.03081268804001988
-0.015203776336509855
0.02583979450355246
0.020502083539564158
0.010481746767423637
0.00445898053716004
-0.011507998246193293
0.04252772053721588
0.10958133133654285
-0.02375961702859961
-0.011158955381661622
0.0036270383317651648
-0.004731632731306657
0.02755811114898938
-0.010285787577274929
-0.0058003090461193636
-0.009009253252494576
0.0037087684450366337
-0.02957490498199385
-0.0478966943877013
0.029924802896357263
-0.0012521909437681516
0.028531092694640034
0.001385691389599952
-0.004664973958797531
0.0012805489395705005
-0.019290364786391102
0.021136561258635864
-0.009943369107560015
-0.012573396001860871
-0.01901508370833348
0.012477543446756598
0.09738039714662225
-0.10033262668266837
-0.12376487513947461
0.007858885224200083
0.007759200373713332
0.0007625283664439752
-0.02116953446310816
-0.0010070516808546783
0.013832626943412547
0.030537282246985285
-0.03001594603729929
-0.00011977341893507315
-0.03906948470077199
-0.012231560974857501
0.001756204167567658
0.015555227072527131
-0.06446510469540007
0.05150208273462708
0.0617825146159048
-0.033720911334273476
-0.018177923432183492
-0.010861434741567502
-0.023461090591998402
-0.028427789881700295
-0.009839839025370613
-0.012856275903270101
-0.03868579809272914
-0.02493120789123755
-0.024052547345430844
-0.028655596396717654
-0.05498617625359168
0.00995754377384528
-0.015244886684286009
0.1374799354125957
0.289238015326322
0.021787245934747596
-0.03203303026580271
0.0318193342654067
0.02849148741103939
0.011556417149034768
0.06015624990883645
0.13901846730354528
0.005758778483409243
-0.03418355514522185
-0.009999090373184789
-0.07058551236237479
-0.0484023948652659
-0.03648020905970767
-0.01283159702073179
-0.02742565352790115
-0.02940946179311311
-0.03078625066928514
-0.03096495181649031
-0.033707592255677876
-0.02991241932960012
-0.01103670596141703
0.010812056441070915
0.028111546923902865
-0.026591114675054022
0.02940700595806596
-0.03267098213567581
-0.08793987679114985
0.012255478341109901
-0.005511350682630571
-0.01307511389911354
-0.02446637546770253
-0.02648832577019277
-0.01445119335086999
0.016985761562227433
0.1389771917225153
0.042300437639864324
-0.02956254673627196
0.004147635081503814
-0.035050084336576415
0.05193345052732569
-0.0037837075154051472
-0.023955547897479078
-0.07126223681869882
-0.07096905833288668
-0.0442903203180113
-0.06050860583370603
-0.01695665171523175
-0.027823806564113436
0.059460276893088075
0.2436584990510688
0.015473370508245097
0.03549220518945248
-0.011820170140322182
-0.0009071617472231272
0.010559040515509613
0.023801247289428114
-0.07556654364309065
0.12004532306443712
0.07314209527682985
0.025595794096762402
-0.0063309289657677865
0.016310880328646995
0.03615910274967994
-0.046863661798567796
-0.01136870874794138
-0.020210414090305728
-0.015999771157921977
-0.022332133033451426
-0.014111507417707891
-0.0007934372068101332
0.027825176739775904
0.0059504812817376415
-0.0195533549937298
0.08270223793444274
0.00631460791461747
-0.06794770237731912
-0.06344237488931934
-0.04294968647224693
0.03471524822610714
0.008430817087894891
0.02745738485782863
-0.036622720786629474
-0.0037635402856555375
-0.023452076940267953
-0.024153846240149913
-0.02073296256582521
0.01940401158287547
-0.020170429898579798
-0.02595326193063148
0.03712990472901837
0.023057444254092722
0.0021290176835412657
-0.0010969358407030777
-0.008820688563488404
-0.05061173299328406
-0.012732356558015903
0.02788363103743248
0.04358611822774108
-0.01911821658133932
-0.038806285793734
-0.02174603335475075
0.034890610452632524
0.009745590228911917
-0.013291299121972222
0.0034420558107004554
