0
-0.03572633396660545
0.01998742649558977
0.005948896205240557
-0.019829146475715848
-0.02673310184145648
-0.026154496909808277
-0.004694994973473094
0.016137862156938323
-0.02126839451798057
-0.008426263488309724
-0.00422572650031481
-0.0007987220457516432
0.003868950279540348
0.014747261894416809
-0.020931866817198674
-0.03932709172162193
-0.04332284631783062
0.003859250876049293
0.005846847371705537
-0.0365405173551387
-0.089173457919786
-0.024133998515621313
0.0051409953521015
-0.05796581813982929
-0.01284787250774587
0.07942275155839423
0.017276426305317706
-0.050852408538458835
-0.0017313790079596114
-0.06778086869572464
0.1127727031728845
0.0858683114466212
-0.05926218078756174
0.09085829052396653
0.037944193343412085
0.010767567184496288
0.00043090291821274454
0.00046210459127664474
-0.028383620018196953
-0.008489792150258264
0.051313613941208085
-0.04715712986501513
0.001465510674357925
0.09256110929749509
0.05491948449802239
0.02274676862895763
0.007074819275335899
-0.0005967036790560474
0.038070422316606414
0.017844623549543977
0.01225937694516859
-0.003926465084048631
0.01067240073624912
-0.01380159903821502
0.028489471261621876
0.03296169228562019
-0.023177222241912068
-0.02095849578209799
0.027606443794639623
-0.16355337158862004
-0.10766987368719177
0.04221670278811235
0.0185529432291737
-0.0219215023095276
-0.04059065838698651
-0.09995664156064743
-0.027621229567786048
0.0189349051908477
-0.03314105209625087
0.0011175668434480767
-0.0012774725753523456
-0.00807649311760192
-0.03753441802531899
0.026794889053102264
0.0038445820665178893
0.036213120712619576
0.02411432381249494
0.10841372296076521
-0.04180204026534627
-0.035396811109015255
0.03373797920320725
0.011362118596584899
-0.002822237770016674
-0.002218467380167935
-0.012209480089401722
0.03805117948933601
0.04787651299733124
0.0006723361588655451
0.02521848077943867
0.017222572939525997
-0.012085418318505613
-0.04881184836501813
0.007457196383093515
-0.0020076521076362644
0.0208934755863075
0.005006649060015763
0.008260757695737718
0.005847105927513287
-0.01693582001009805
0.016391463154449493
0.01902433798703609
0.005158368013075619
0.001796408887912454
0.005741040828340909
-0.045158517881646335
-0.04220526652132784
-0.002054350641989925
-0.027410310516295187
0.0023025081308474266
0.027197165426170528
-0.026392947737466633
0.00023904875176461094
0.005545651426688075
0.011901720831319892
-0.028794532344965144
-0.018478025920731892
-0.0021366162381898086
0.04101786830402754
-0.008736990888611545
0.03465315864058313
0.06654969338518706
0.017297265136076028
-0.0556083108838991
-0.013850943700410855
-0.030454285102629847
0.008223946694310726
-0.0023720336006644413
-0.005135587242206803
-0.03603987857089328
-0.005367561020373024
0.02867932646168895
-0.012601508031168294
0.0048999826259231525
0.002840832431186112
0.0009286270674295068
0.06373047225588165
0.03836835858374951
-0.08209506083130949
-0.039719599389815875
0.026490600343244856
0.05299577204068164
0.019434795000585342
-0.040888214784401924
-0.03488410319158244
-0.025102934445692334
0.02002911212075852
-0.005682043716807182
-0.02683905825494001
-0.013168358510831708
-0.020517091546659736
-0.02310044551592282
-0.07026557086698774
-0.025882640192155474
-0.007913932651818828
0.03184699363114618
-0.03213216258777117
0.11520442995667889
0.18932661442714688
-0.019292716770467785
-0.002226419876344769
-0.02838153383426549
-0.021087772347704606
-0.019817977475395612
-0.003913735814278699
0.034980130769844915
0.03021104449510461
0.0009088036306935449
-0.03601547012725426
-0.02127037843561864
0.011829684934388917
0.005116085458474511
-0.008141723695279908
-0.005263335636875209
0.039997551107843095
0.04372759131357446
-0.027629918383878887
-0.025526398167494777
0.10696970206351934
-0.014029006310714168
-0.02451766828814905
0.014152783529784482
0.03270632072023024
-0.026808497971874318
-0.006553785685777343
-0.04260044954650911
-0.023888862433326843
0.02373498392125364
-0.0022429648742813817
-0.033759514053874215
-0.03231472084473828
0.011106680453214016
0.006288258957061399
-0.059556059275473604
-0.0013506511332005357
0.08163132418623058
-0.004214431426723933
0.019884026640376157
-0.00111432790683659
0.03016290070876688
0.012395846710283567
0.012635110561531505
-0.027256774827622877
-0.05676360128867286
0.030153499843676882
-0.045680479508820586
-0.15141091858600833
-0.05533397872107371
0.009540497117935795
-0.06287187556428056
0.1265900639810495
0.08343664048628074
-0.0022995129508568374
0.008584317034734454
-0.01878089136620776
0.0007242895344079319
-0.0023588223715465925
0.04363824691674035
-0.04916864714134851
-0.02308172229127685
-0.017532655711793976
0.03502831101595745
-0.004227281049709241
0.0009531379621885986
0.014220839168760121
0.01302796828390331
0.026761507058720612
-0.05104819665729741
-0.05361356479322447
0.00629171309817296
-0.011769381966006874
0.024854106724641303
-0.011279940528032441
0.017369116104133362
0.034850293987241446
0.020101848768515007
-0.020610881318456436
0.01522403484576085
-0.012628930270435762
-0.03717290242913595
-0.006595010471355523
0.012275935137728849
0.007606304728593701
0.009012478723030636
-0.019514403676867537
0.16419550488450577
0.021929642648923917
-0.019314286705712832
-0.007810179882347402
-0.019697225601363257
0.009599672194345843
-0.04379341795763507
-0.026237313669548422
-0.0021754061460439963
0.07487941308734931
0.15558168330873723
-0.15541827919427512
0.023458465989231674
0.05880794375105964
-0.021501114989090818
-0.015728971478431632
-0.02808123073480982
0.0015224555460870955
0.00312067555632214
-0.016138543657863068
-0.028511055544710995
-0.0043145789349411726
0.025619978698439124
-0.009756273672026684
-0.007014525955195335
-0.04281119227290977
-0.017846334756565975
0.0027296069261297704
-0.02275724693048062
0.0061442087639582265
0.04002144971777017
0.0008183041123270031
0.03133118634889449
0.00675198096831262
-0.01278561137642687
0.018134867553238836
0.04520215869753601
0.06178204491754221
-0.01832367658956486
-0.12455204165941965
-0.011073474940912514
0.0583248004172401
0.019687201642097196
0.01407476392481926
0.030898738667607756
-0.03754957207626715
-0.015933132044451546
-0.011372523685795378
0.011662993754724316
-0.059574220770744646
-0.08275058020800682
0.05474584805658932
-0.03491376397430289
0.03271886024532561
-0.03261061240129063
-0.04980795730212437
0.06105348893520696
0.017300661520440554
0.009265100696613932
0.05133796915446567
-0.0036095244058919817
-0.11117064134254845
0.005956213942950388
-0.005236865829346222
0.04852439232952512
-0.007534848788366906
0.03403370482664481
-0.13168096033768337
-0.10723386371207727
0.03476570245374765
-0.011815106995576759
0.0028814897744245463
0.09485583044846031
0.03671226632257104
0.012864782878710214
-0.012241476579971215
0.00934793791765925
0.029150457304177518
-0.00020830137338762755
-0.0037482699361865587
0.01633347910808841
-0.010516365829322279
-0.01728241218907833
-0.007006896301648124
0.02977558894753362
0.01430805163878487
-0.006405615155681062
-0.01814696856019916
0.0029327403546147725
-0.009115581114842336
-0.04777730381687632
0.03987160443864683
0.024808058266487937
-0.024181925231863154
0.01858869700535154
-0.022898941950408067
-0.029047439183539005
-0.035366265392447166
0.09318657968558279
0.11362696500319322
-0.0641177384000342
0.04312764713153806
0.026008996708077856
-0.021405086891420785
0.005834406365630068
-0.03400369763199575
-0.013779659168534039
0.027240990232219188
0.010173625028718096
-0.0036286686959005714
-0.013314431084696217
-0.04987440253833283
-0.025840340506603415
0.020291048523335294
0.013244751085580528
0.07982153747290882
0.02788327178278857
-0.009232796925638984
-0.014771225886197123
0.06455073449313782
0.05307798883503081
-0.10941152616100938
0.02310208157194411
-0.007081880333485351
0.022575129599614233
-0.11406440509377232
-0.14138744971762512
0.037514312678930524
-0.0039067852051440305
0.008000821211577828
-0.01813592856278032
0.026386264624304077
-0.04355975150448581
0.015321985757893362
-0.00948205823709083
-0.0068913747694025074
0.00705414323256538
0.104024859583658
0.07509336757132076
-0.03758308823485569
-0.017979531376193778
-0.01655175577305249
-0.02872603182966506
0.06246553924045382
0.02609930748425646
-0.03761562986510049
0.01355891765165433
0.03656981471265927
0.016410153810947098
-0.02248711526511469
-0.029334908534929614
0.023181065154443656
0.010687972494881634
0.004967883892888115
0.01125162806654502
-0.01600169399920741
0.012663856757165508
0.009314746556912112
0.003017648493049387
0.014103931903039432
-0.019990111890169228
-0.04307445830205874
0.005986036229339947
0.026062311587012943
-0.002247900326344802
-0.0025651924440252844
0.016307967796317033
-0.06753835860490248
-0.06961449403574915
0.030976104786538037
-0.037282686519630875
0.030722300675044757
0.030720835597873843
0.06284999849515488
-0.004304778464776044
0.04390556978660745
-0.06045067133395103
-0.12084301562014244
0.0188435342952121
0.0017533522711341806
0.017680847204076318
0.005481494068070402
-0.05934404970977283
-0.007830499233303367
-0.08755890755432051
-0.08179990488372646
0.004294859449550445
-0.026727136275347726
0.24622422505284078
0.05662955593414508
-0.06410462404867683
-0.027437686060074143
0.026325895874280955
-0.02222652843898732
-0.005388513065348467
0.041692935935399016
0.014303058041983185
-0.005970840977805704
0.01705217244944815
-0.008870778335147487
-0.025075296696126275
-0.02360624466585178
0.005320903656223363
-0.020745226471037048
-0.006039763787399862
-0.013774658082267981
0.02874792427153266
-0.013890403812392245
0.017504761347367944
0.005244566529313522
-0.004331289141086185
-0.043569167503205226
0.006091213320022922
-0.016909198674083404
0.08506954974915315
0.12417223659609672
-0.020487816379880123
-0.017096136592772322
0.03186736795088144
0.046334741587073076
-0.024252947136346265
-0.0692773864509216
-0.004616231943315392
0.10015064209443726
-0.00974701074959778
-0.032177854805609474
-0.0362252718738194
0.011773909998918959
0.007611788074695454
-0.0013163500734493748
0.009521145496504863
0.015199353976129048
0.008327084917191653
-0.012143298862507151
-0.07143487090308645
-0.09368990807424189
0.0021473689721733837
0.04431143171458252
0.11281393586787891
0.058162049651299286
0.02653051482131733
-0.10869133564279397
-0.07922146627944482
-0.042317623429309614
-0.033530368731094946
-0.01359547354545799
-0.006444345861879039
0.0004325265007560894
-0.04384698891014717
-0.03843031918659423
-0.045639616581976815
0.1246559707895963
0.15422910918972163
-0.017604255038686536
-0.03277308572364118
-0.012781511490373198
0.020216332650471285
0.0017301117840588008
-0.0011771660741807146
-0.045160209469994085
-0.03222237652710578
-0.018056519805153624
0.009608880903872505
-0.041733559703162094
-0.017136885887857712
-0.042857337498344625
0.011375055731044513
0.008507240220440937
-0.009411210426850369
0.052152774181279
0.16923618828582399
0.10160994923636969
-0.023419461253779816
0.14908151665084726
-0.010898996359543113
-0.02946676552330063
-0.0071010392899363995
-0.0002199883623732317
-0.019852812867059304
-0.011460529608381814
-0.015124530000022235
-0.005402467984330993
-0.08539784338508924
-0.07553508662184874
-0.0597263063181074
0.04139842655367293
0.03951854821665655
-0.03779992005678395
0.01619799551498829
0.006262292049311396
-0.02633227235483711
-0.0015726362932878557
0.031313266472891337
-0.003570906570350684
-0.015823816809765426
0.006094917182532823
0.05158389385778969
0.030915462613384532
0.003334199704669361
-0.002708685419428706
-0.01489604002610564
-0.023961194138686
-0.007828946394773854
-0.007658451017697487
-0.0024208448818514284
-0.011627350520251569
-0.01938367638066514
-0.0033063428541912684
-0.01250872158009493
-0.03619616294468277
-0.014297912728543864
-0.0003955758847104824
-0.0013676230378130245
0.02037297888888258
0.02420053543646626
-0.0196921859643589
-0.0288947311966279
-0.03762145642609902
-0.03313237140691656
-0.024516307324918468
0.05831248713262162
0.04226741452328857
-0.024900569241547814
0.014350017180843564
0.15266258408120897
-0.02492676205707406
-0.022668244473854376
0.005204862679923247
-0.002408443079511054
-0.023805325749066727
0.15020771038062689
0.0441129037398355
-0.059388284663760824
0.012791382412257806
0.03252121426184599
-0.0010227116944479169
-0.005360826294603281
-0.04555543868250409
-0.014780856498988863
-0.015592469461587644
0.007810535281031021
0.010719036791330475
-0.03281069946425081
-0.002237596811492713
-0.0015832149300226725
-0.01396672001768463
0.008508115140366111
-0.0014147432392850215
-0.006884817207059426
0.014998783554210037
0.06940012815008753
-0.013282248740406474
-0.13657195163767163
-0.09102700166783201
-0.03454138232302905
-0.00028848212932397786
0.007729912884425381
0.011047075623024346
0.025890231720135617
-0.043647319129549264
0.017713802047508515
0.022909635719333535
0.0056569720118988965
0.011510597290072326
-0.014564062414302045
0.024528258236901503
0.005402409777152747
-0.09561000305953851
0.010775000722980039
-0.015691036152580932
0.005846184660830758
-0.02033631564453491
-0.012666604306083021
-0.0005172545668764418
0.046634381347299074
-0.04100257332848941
-0.04223419810299639
-0.06261119629831252
-0.00811413380610739
0.02471601998826422
-0.049388631940688675
-0.07013172163310868
0.1920301805263484
0.14330802680747595
-0.03248761079131891
0.012784664380866614
0.00547443888066154
-0.033546770761832066
-0.0464869342961905
0.06599454050043145
0.047209036126438675
-0.010095152090227438
-0.012280559998846955
-0.050353657840968014
-0.027476749887239835
-0.01858808942215375
0.09721906796339329
0.062143081054133784
0.09430680567309632
0.12412523918285565
-0.0695790652832184
-0.015770066203411422
-0.00045096125976394874
-0.014500053853856665
0.03312764525281106
0.0038728379036117567
-0.025100143224111356
0.031240884461123847
-0.014248802110358833
0.03679723745567347
-0.02302078740916086
-0.04431836968574813
-0.04296897308746847
0.12566269140615058
0.09851361329185479
-0.039918140356628024
0.015757217961390645
-0.0550387875593251
-0.028712711176536114
0.04436658226248123
-0.18328527181116178
-0.12727991445593012
0.008786017276480663
0.0035621261348672477
0.0366716495251736
-0.002475418392593465
-0.011961638832592408
-0.03498091853975745
-0.05163411284562523
-0.019129857568064648
0.05218458236642395
0.03490343767797048
0.015269347197914923
-0.013608329193103919
-0.002152502776134399
-0.01424855817325614
0.01089492275286893
-0.007028645077999465
0.023353699955249597
0.0025969700996761793
0.010132605848688128
0.010330695518133268
0.002291965827422994
0.0038535432269861396
0.009686744330000805
0.00741555408160541
0.023279200826787465
0.00926341089113693
0.061704915018825204
0.034670043738724524
-0.0014929136610887705
-0.13377262053875583
0.010512800076925604
0.0056917746394458705
0.02367260133694535
-0.011759127018204139
0.0008908461560641958
-0.0050423966037998254
-0.014425387190343407
0.0010337348097736224
0.058814157732705256
0.015807549915616784
-0.002805815345036397
-0.03100040253785937
0.007024730196498176
0.04141834826345714
-0.0031400462227107366
-0.09878304462533989
-0.06228075427793609
0.017167905498952345
0.02416373749862132
-0.0558759043988351
-0.0683959790965913
0.10031881706311552
-0.06254270668323225
0.03492397192809973
-0.04375812392816894
0.06651981699587695
-0.03513463142458554
-0.12567076271307212
-0.020315763896776223
0.06346471377979744
0.051562731854239624
0.04780661951768169
0.08615236729598873
0.011189742186007469
-0.05329636195107027
-0.05780623488917703
0.009368244885703904
0.016545573964684552
0.07102074075795996
-0.011649635469378299
-0.04244323527163075
0.025307277728690895
0.004989407048588511
0.018447283310550483
-0.028210140072541648
-0.04189948356740537
-0.014751440989108754
0.051981233659875406
0.00696275473319856
-0.01153587041668867
-0.011166818776447644
0.017789839427734908
0.007895376332859558
-0.042492727320666626
-0.03463324958559712
0.027792814102288774
-0.03402968937224646
-0.03631814577443273
0.04138039518591853
0.024070807529870755
0.019845382962991202
0.013489831026081082
-0.035077885917360094
-0.003628458218047059
0.05701668382670664
-0.010122359991360286
0.0033169575511020153
-0.05486696424745076
-0.005612389134011301
0.031244055728012272
0.03135671733122082
0.059967563016689845
0.007794352180254662
0.011303521477736587
0.004654578056067516
-0.0023023541541123014
0.013301528477075324
0.01863949039758248
-0.0023963781980596765
-0.031760708261313456
-0.020411824659779886
0.017200854875501527
-0.009929661143276765
-0.014987084368205844
-0.002936620889520047
-0.036100604999853354
0.0013975385992064289
0.017835857228083417
-0.010934077281384987
0.011128001070859508
-0.02756525603779544
-0.011159804102394769
0.011449063624991047
-0.017186549329882197
0.0026585104528565706
0.008290228202788241
0.02178875432873171
0.019698342780397962
-0.005065920495906597
0.06764161584633809
0.00041229239395791997
-0.0030264360234648763
0.057282789657254196
-0.015306327593967559
-0.05116793270437583
-0.027966236898955294
0.00455792119899157
-0.004309499919837662
-0.006507163850760418
-0.05953727848107827
-0.00945748456039224
0.053892722920445196
-0.013271769562037237
-0.004213875532914204
-0.036693350265527586
0.11564438788359284
0.06826477977534583
-0.014291677915796091
0.016881286346856542
0.001484582993873091
0.02251457922701046
0.008950969328513213
0.00038183882733608914
-0.10245474737068358
-0.07785741200963005
0.03590162959912178
-0.030184345122126807
0.010447243989170948
-0.009023392397727712
0.0050588223592342345
0.04650130447912474
0.03762664649661142
-0.1429228218868631
-0.004564735699120115
0.04301041248736818
-0.029921442483525518
-0.0713853979808182
-0.022464141398494397
0.01466362543867672
-0.03900741795948178
-0.003875104746208263
0.0007939541308427589
-0.01712668613996306
-0.0011187525443898947
-0.10714065929235796
0.068561927939563
0.051528199542057826
-0.058134838613689156
0.01021073828188737
0.012667193234815716
0.005812644537139307
-0.011311700175135364
0.02070282527287175
0.023642387981583923
0.009365696272480047
0.011627460412775788
0.04591054151088477
-0.003391361026237439
-0.02176640930511989
0.05772835615951612
0.06791611360691975
-0.018989209820614396
-0.014727742253525498
0.008804421949611164
0.02060289021853029
0.024701493958914966
-0.019208441140783735
-0.10921561781771316
-0.031222873335027792
-0.00012048265701066059
0.027102899803154938
0.008915833357655912
-0.027328423937447853
-0.04024006386961799
0.09874937769728671
0.026632769592401066
0.035651530851508836
0.1724903427502566
0.026219241897900054
-0.0333340351212362
0.031143500613511888
0.0010481181257375094
-0.04467559903757773
-0.04525167539809748
-0.023172197604130598
-0.022202301614973885
-0.022509251938242738
-0.03287653737793977
-0.0016228606303260414
0.0008929712687740436
-0.036295190386266704
-0.03345972218545028
0.03522941106799523
-0.014328457296162968
0.0981757278132523
0.03202117630287528
0.03654452941474898
0.013884374271274404
-0.034408583886601875
0.0023742167540286886
0.009307877379366896
-0.007550817492482935
0.014001851928315668
-0.04267370952079816
-0.06721103732424147
-0.022341678209812064
0.0033446560822586557
0.07268637244306488
-0.018195266936524207
-0.015227665835868915
-0.008927845960039257
0.01184316321201817
0.039231505080088554
-0.030667193740518208
-0.012152833786582627
0.010475632061995551
-0.04953309663248652
-0.03512105082356736
-0.024710333287618153
0.031055261422077526
0.04004484480724079
-0.03387478203166707
-0.009938616649850756
0.005793241434610314
-0.005295919843986634
-0.007727753155360326
-0.01443890173671853
-0.021529523581195087
-0.04305665124448853
0.06039782606886088
0.06321396153968464
-0.010950936456412718
0.03738547158232558
-0.006627251624123533
-0.009372413994113088
-0.040268562230536854
-0.01802693220478011
-0.007976031638791964
-0.006799474619223487
0.19003641092700269
0.053289182181989664
-0.07936734347069214
-0.08999024348916455
-0.005443243501474987
0.030555074982617243
-0.03168481852482432
-0.063822756713249
0.05270470476902448
-0.009148462285685072
0.008988348352829228
0.0337417443043188
-0.010225085909602019
-0.06298162496668015
-0.07357782336126235
-0.030865291589065844
-0.018921336736825875
-0.0002865959326044521
-0.015657431507030403
0.005806507779706111
0.03351456186543822
0.011782723258480399
-0.008873822961596523
-0.04324745870796596
0.009775471742691836
0.021906436357697633
-0.014382626508210625
0.07549397537132242
0.012562089864207445
0.014304446322804627
0.045361037325381014
0.031148226698603267
-0.008113805305477121
-0.00878812404939297
-0.04750902229789808
-0.027489819489383872
0.05815342214385426
0.025448804846297485
0.04235711461021733
-0.00034229276705621836
-0.008732146497783482
0.015965224860722445
0.014009252467921158
-0.0054534005434337405
-0.05186579009600796
0.02553355732572306
0.017188316333736423
-0.04156014773978353
0.014781660678820682
-0.04962463421615074
0.03660505955255433
0.033852301089658546
0.00486837096207822
-0.006985396924456681
0.035817768605782264
0.005996537732007814
-0.016501535434812455
-0.01519195039561034
0.023308001810642884
0.0009244165374645161
-0.04151707986583601
-0.02698490791954325
-0.019421167064964624
0.16812594751716603
0.02820744147845714
-0.0039055750627800014
0.003885322055407839
-0.0027826183161965977
-0.0010296364985883314
-0.04052235913072566
-0.015285472847128362
0.022107668574532006
0.01533679792502452
0.04764164567061513
0.002321204671936864
0.00169950735720338
0.04328059400089048
-0.1713767394620204
-0.046800606981346284
0.025000641004110237
0.05425772217023196
-0.04790291466083923
-0.04988957775004108
0.009264883622220657
0.017078271304118205
-0.0034190885905053146
-0.06774330730056843
-0.017011136680420053
-0.029788227674297903
-0.07914015714968425
0.012144956903849893
-0.004047297976496711
0.009740711074742444
-0.002364463707251799
-0.0013646501394158133
-0.029505484662636788
0.04337169161047875
-0.04196643599587468
0.0158205522164551
-0.0048891957878338076
0.019314136664172737
0.03351521740369829
-0.041038455821276396
-0.01791459750337438
-0.005795643833882439
0.003364363596861839
0.04464850463744034
0.023234764726503543
-0.02978144314822148
-0.015099504403659099
0.010828159030473633
-0.0034433923237197524
-0.07031557511841363
-0.055350736273717734
0.030793496640519905
-0.029395615021039847
0.031485558639527976
-0.03614976273939662
-0.00455255674063426
-0.06750011925984792
0.13423329662212324
0.04401869146311285
-0.03814752894694328
-0.03161461858703935
0.1955225170494093
0.16138737012443682
-0.04390422139461579
0.018718607954595533
-0.007145144492549372
-0.01187976668415722
0.042877437208720406
0.0035479139824302814
0.0287466350397268
0.011082754445386513
-0.05162635891088371
0.02606325205416752
0.01772615274918352
-0.02441023158464166
-0.002308078767296987
-0.006763668560074819
-0.002132917712599712
-0.03039084012861977
-0.006909642939594379
-0.022821704938922518
-0.007927531431442958
-0.016173244543790474
-0.018988981018712322
-0.03803301654675295
0.008671384237268997
0.05430509526792154
0.013360863073808873
-0.002972190903601807
-0.03027103318612117
0.006894308634620762
-0.0022015809802043962
-0.012961968801434607
0.0047976769207185
-0.023902578336541323
-0.008308769783278103
-0.006703217741000407
0.03772288493323
0.02181150432876847
-0.050706824633144874
0.043864090567454724
-0.03194774811839251
-0.008916582902922634
0.015429096824005516
-0.022989710678668184
-0.002801588237186482
-0.006486520524080575
-0.017847974488173348
-0.03105535030279369
-0.03877160448605736
0.0975508757824856
0.07593436175565083
-0.02981462350151271
-0.05055313880230691
0.029460417521602403
-0.018854794890647973
0.02174684587010956
-0.0067390152596094885
0.002924433961624114
-0.0060519897391022506
0.011047522207429968
-0.01763118513195352
-0.017989835366080526
0.07403062986372046
0.0025987785250612865
-0.01531972730156809
-0.03591815631382428
-0.020768370970658596
-0.012855344153608497
-0.01659715533960405
0.0416069228259361
0.056581792621634645
-0.021629390078238966
0.02633653350569203
0.007976347576887597
0.006556536454958155
-0.014163965652846626
-0.013263898768570207
-0.03827940232341114
0.019221698694672364
-0.018784393836236753
-0.089376392429635
0.012244514625469539
0.001127771377507456
0.004909604279403497
-0.00016111717606809322
-0.024292788882895742
-0.019930921786989797
0.037090914986172556
-0.0013542234063569519
-0.007743616133096182
0.013831309728728232
0.0013467685940082225
-0.07978404621136076
-0.03526521937868559
0.011716444429855484
0.0586547235075894
0.015241006785180592
0.015656924090842222
-0.007635956565912833
-0.005012277928750171
0.034001378944329086
-0.0003590842294746976
0.007076859912842978
0.00044445071342114734
0.08138897424338846
-0.012695844255096088
0.022899681397637643
-0.0022388828468618864
-0.0067049562628424585
-0.156868270254364
-0.0925085709040881
0.008882016977202527
-0.010989828828367462
0.023555134023725288
-0.0485641401518234
-0.031105989729107872
0.0455730458650411
-0.009056252256919195
0.006575349652178337
0.10168353119053089
-0.0031710271308108143
0.021125723453638813
0.13605197363944246
-0.0035062494578626323
-0.001493359029133531
-0.011797226102477056
0.13083314899491655
0.04872930911138726
-0.04881740678985315
0.028701122823927366
-0.013821230533462136
0.0028249685582178094
-0.04997556706339223
-0.029043981307202572
0.02753633021818125
-0.0021392052936839907
0.0021483550080313362
0.011316453770048392
0.053357660092805674
0.0324512621166401
0.003348122573411959
0.013542364213826768
0.0014714819855963666
-0.01842580660090137
-0.027129896363332167
-0.019111189104663275
-0.004660538657710904
0.004874840903944034
-0.037819034361810853
0.04514158134165943
-0.021663755750549685
-0.16361978743435993
-0.024740697447433783
-0.03255375963777467
-0.013042866728506098
-0.03330034977088686
-0.028631559587790636
0.007558169178836626
-0.007515864991754966
0.004972097390470071
0.05386291798687005
0.03467357054009104
-0.013141474396920875
0.004204471945398506
-0.010941930020488815
0.0010006765374754015
-0.025760093662476193
0.0012286601283869054
0.014403539942019605
-0.02825310591889644
-0.029986911521093458
-0.025673269792106337
-0.010314128576104779
-0.02322440170005095
0.029205082753093893
0.015651571877265815
-0.025158691549062515
0.003751367850136389
0.014324172186531352
0.04367981926771046
0.029271310086203033
0.030499303110854616
-0.028232158937941277
0.02991284524952801
0.05743393013096722
-0.0034712593068388174
-0.008674324148681642
0.03265420001556966
0.011228493753928625
-0.01699615294103191
0.014397849218159283
0.056952993267020656
0.015185707709338763
-0.034137923011553974
-0.024020434951759095
0.032774223189211665
-0.046292506639682034
-0.020477185726626233
-0.021165901912007457
-0.003148825816969586
0.010888934338297343
0.006732156484894932
0.03623838063499892
-0.01973941294741976
0.016610496846790754
0.0800067386176247
0.02568903885553975
0.02016544965140505
-0.019153709457716606
-0.0032429843071019554
0.005364841658595173
-0.022505092280245536
0.01818350646977469
0.02370083672923222
-0.11519936501846366
-0.012178634301245207
0.030644274100476952
0.0018134625726429856
0.0432058377554193
0.02736739124409022
-0.03048042937341706
-0.040980494424101975
0.001741956750620372
-0.10205427495297946
-0.028820747680445524
0.011998704160216927
0.002637733378869604
-0.025549618118652376
-0.006810151048190614
0.024671708592176548
-0.028156888355105967
-0.01634836857710345
0.05689043999222526
0.011137801385162354
0.011893602278601808
-0.021819035747496798
-0.07323944697152067
0.002420859450980461
0.06511258090791469
0.09084740524015919
-0.010782126787474412
-0.03193604179979516
-0.023048592811627393
0.01338457232105541
-0.012067732980095613
0.020159853432203976
-0.025384458868578937
0.05953545373317168
0.06342183010000749
0.00686030448217061
-0.17191955191785152
-0.017560458418898646
0.025449273295505358
0.011682051818643494
-0.025574342179478994
-0.012317448868817608
0.013917248443625664
0.010750545136647131
0.027361725420291364
-0.03033250107712251
-0.013327216389705592
0.036472687942993375
0.0038808885013273515
-0.007825216866925541
0.00026626432710731947
0.01830988626242548
0.002493715763328546
0.02662613264935429
0.04403051745306547
-0.14437293947356508
-0.08142546339657077
0.04823950469596601
0.029214609959431415
0.09270970590152913
0.024784824475809174
0.00913793904047839
0.0721208765752312
-0.014435199687174022
-0.01400001104643848
-0.03485028812024144
-0.048269922799744694
-0.04550093531680845
-0.02131952031029574
0.006866417640077025
-0.03364325367901334
-0.011509425340409971
-2.6035164966873357e-05
0.04210205343642883
0.02114236471656659
-0.005144430100327884
-0.03308089871130646
-0.020855018819726845
-0.01780663014559684
0.024941572138878727
0.046600566828539226
0.0058284914810448115
0.09063258718482267
0.04114595442722199
-0.012792871724172775
0.002378011472071989
-0.016502381774618137
0.006987599386397357
-0.018392483750723214
0.013308305365211588
0.036981104331204585
0.0068588096529119316
-0.025022399472794537
0.010604186566169606
-0.003453731306629954
-0.03706432540882481
-0.028090644102245956
-0.04810642031434729
-0.011208168856648932
0.03509240466800425
-0.00025474946852141955
-0.014081849137913847
-0.04491387660972877
-0.0013080777548922673
0.004392256249035309
0.02664939293933339
-0.0008193697019712693
0.015838311701939882
-0.024349538602302344
-0.033201327188324754
0.03929592161305064
-0.002048469319085689
-0.05071186996920044
-0.01887302503813999
-0.01999633888412267
0.049820088190610796
0.031169281869904343
-0.030545671593811868
0.018373310029636734
-0.00925350610334345
0.002281760899134581
0.0021438556610494388
0.002772953359282114
0.01713339888531962
0.001904051182105261
-0.023508842356247714
0.012822022044939449
-0.03825114117991278
0.05582544214235716
0.06348588327572727
0.06963574928906102
0.012094424019748251
0.0003639869974535515
0.02043683165968687
-0.05009761306055889
0.008867120292549218
0.02004729962580187
0.029559475806824137
0.003746292024863852
0.02513152841394655
-0.054158973532991976
-0.008501117697482583
-0.043151619543793415
0.04934520296458774
0.02605039505976527
-0.05056368210803697
0.024520284908195866
0.06735517743366011
-0.016819857610163618
-0.05006116578833527
-0.07265991087859308
-0.010758192705685152
-0.07928277542097967
-0.07201843722758178
0.07293476369775706
0.012043816790363128
0.011282271873281628
-0.037395753180022015
0.007684683606406233
0.04036646296395067
0.07416953371982418
0.01902215338985028
-0.018638484365418744
0.002595631078473607
0.028183638545146526
-0.020208014216990366
-0.0503493960844497
-0.0009078531730996095
-0.002098095518098298
0.04542650122737174
-0.040658906260831976
-0.0999879871311246
0.01836604014422078
-0.001985802641665728
-0.010605759164752319
0.023170642519034522
-0.03272850890423443
-0.05662887396853549
-0.0567543703192813
-0.06887027180741832
0.056373276118385024
-0.020266257441673582
0.02354860556601774
0.08173899547192666
0.14009840042694208
0.09768416185684095
0.04541192158502162
0.018172791344009287
-0.018199742019928668
0.016849817699081792
0.01198396177133889
-0.009408467654007815
0.006965092038157496
-0.045855076064294426
-0.09546428792360057
0.017380102928412185
-0.055771447801523155
-0.07081872798477994
0.03402508975417471
0.08704196725018687
-0.033830315130233345
-0.034597419451597514
-0.027280864232422174
0.034576373034445836
0.0005934547105395619
-0.0003134273168876731
-0.04891501482760526
-0.022312394457797997
0.015616908763857915
0.015202171112173559
0.03961456443118687
0.013778019155612418
-0.03144971885719764
-0.0031466916790755944
-0.016478195065281667
0.04690205739394211
0.007543943609230981
-0.041015445058919915
-0.0287579830315245
0.005483583091595932
-0.019842969130475757
0.04671550308328692
-0.044993217000763114
-0.04600525926832844
-0.02519962558282428
0.08154308355563428
0.07329235357424474
