0
0.004435657784186176
-0.034048151793448056
0.034362737007241066
-0.010701498730629205
-0.04674408348056214
0.0009328291702133992
0.015225074991742402
-0.016163645106814034
0.007545831424443501
-0.03752801867986949
0.03133671179148129
0.16876411656369222
-0.018675989992427314
-0.03156854288825533
0.013067156042381279
0.027056648913855542
-0.012868046620468549
-0.008889712127080025
-0.008619117902327772
-0.01082617852571646
-0.0004940553937420977
-0.020131374463373142
-0.01640146696152711
0.02876626642084123
-0.02276932870174964
-0.0313127003746676
-0.04275420059996828
-0.039824564837664694
-0.01570819882342776
-0.011434661471999468
-0.022527121874294422
-0.07361960315788052
0.03708723930390786
0.04458882968407791
-0.024887078326233818
-0.010755273943054746
-0.013638378409649862
-0.004929682410929768
-0.016679965184022056
-0.008288627152147964
0.058607459275611944
0.07104226053774301
-0.016653762139610954
0.005780132744706457
0.005339426203369194
-0.005157744762257551
0.07422004200751198
0.048392017416985754
0.02248615180873483
-0.006844565324536432
-0.02694417875009307
-0.009646451855986874
0.004120346526062177
0.025732526382993916
0.10074701612838402
0.0175686519081081
-0.027771061286267013
-0.02539134154992257
0.03204394308036787
0.028294270525018088
-0.0038981068059793828
0.00491303663670095
-0.01708029779756639
-0.048979762778216446
-0.010316096881465021
0.02656839254639481
0.031465810216967954
0.03739570914268614
0.04966159829046938
-0.03502046569928556
-0.04559282331075917
0.010177909284098417
-0.01867421988007933
0.003552128155115975
0.024019807882712012
-0.024458679978224762
0.0024463341930394526
-0.03077462009562936
-0.01860561004576092
0.06748305960840352
-0.004583361555616703
-0.0271493478504655
-0.013465274628532408
-0.05292616957791464
-0.19861693919828402
-0.010988441828452397
-0.01333780440704225
-0.026079577995304092
0.048372940339797756
-0.012439642435278711
0.0018288725954634778
-0.034242567714295076
-0.009570236292288566
-0.005485304430270356
0.035373448605496786
0.0007625024238425333
-0.012912636385797614
-0.013188260981077459
-0.03420918030594002
0.0946364881331941
0.01217708164544257
0.022121974199692224
-0.019493791662593424
-0.012051910972626251
0.07003125814061165
-0.00417876717474401
0.009332181961542884
-0.0374634014412282
0.0076625790135091
-0.06194546672720319
0.03254536470752859
0.1651670362804553
-0.031383093500107
-0.10296452675645983
0.07338488034750795
0.05867958496560699
-0.03723207516391443
0.0061136843160358705
0.009224365998673496
0.030617508245850304
0.03550887861325494
-0.0025187773733924843
-0.008409308994752755
-0.002437060661712107
0.055606724639046735
0.00026445722327626955
0.02010740611240127
-0.09473771568468976
-0.07011147495564277
-0.009717969617087756
-0.017925317536878236
0.029454159832461187
-0.007290498055053152
0.015613647543327436
-0.019605917184435474
0.013540437398914362
-0.005728047101366298
0.023927392158293433
-0.03680229885044771
-0.001842271286892126
0.028567920373667576
0.02071148664301994
0.017695778857978562
-0.0030023242608358163
-0.016870826732748
-0.02225352518648335
0.021809698636230498
0.019229284733673618
-0.007523441877642024
0.028389161037058044
0.04588893719277164
0.024966189408210056
0.0004294501006477401
0.03554286672430885
-0.05291896223178102
-0.11293625074557134
0.007860901496190285
-0.012416303447852878
0.025118154552065747
0.005655215219715849
-0.022728465486659927
0.0006545618186382157
0.027910594420367214
-0.0018501011673603615
-0.027023271091443077
0.016376235268013788
0.055983471725044594
-0.0295888785356884
-0.0229693414923486
-0.049202562233044506
-0.037049970462336754
0.01345884613641863
-0.021308935089353734
0.019309208901062386
-0.021187262537251852
-0.024385308969764426
-0.018993997988521426
-0.038869641786118105
0.05505852602323053
0.023524642983042583
-0.030214020492567373
-0.024152866454063626
0.12166543459326315
0.04927773045739384
-0.0005425311822829202
0.03383092421611718
-0.03111126496737038
0.03168371540699034
-0.010588552623021427
-0.032915701261814055
-0.03017344984447026
-0.0361530668258004
-0.0568171916675938
-0.0046044689343152
-0.015699243638321186
-0.030805971270214273
-0.016434024028323873
0.00950621699537929
-0.016190746190186553
0.012244767221193146
-0.012800614725489991
0.0558805704518121
0.08127234945965112
0.03289731694176826
0.04315562059503912
0.031623558100661996
-0.03754721528267052
0.039609433534280133
0.006028542088877432
0.0174767701785364
-0.009402396655406355
-0.03495557803953683
0.007059103756661848
-0.0034984928032536543
-0.0057180023711880315
0.0021053767405615144
0.011925256096966177
-0.007890501754419323
-0.01425625286973946
-0.015604606058505837
-0.024840275649851667
-0.030364430466627977
-0.0063936050660574496
-0.010958751524933887
-0.03187812498358104
-0.017580116009961372
0.00968520722213321
0.03787950931832089
-0.038265800942566444
0.038921673941955844
0.005683436485186657
-0.003104027365503137
0.006480317095658166
0.005548107625003458
0.04685941643175255
0.0008878758445002265
-0.021899259972120534
0.04074999591168655
0.010923697912510626
0.025022606057125356
-0.04556734222284091
-0.061515644051765794
-0.004698846078406298
0.027340013246773893
0.0006985971918793844
0.002222678313919459
-0.020107241528999828
-0.009682113423465779
0.011151657004263904
0.0011905774970611077
-0.012314828921888756
-0.012957151252926976
-0.011159057675595168
0.015830051374536518
-0.004274055597479597
0.008648533803175169
0.0037834982882633
0.04200927271543088
0.010823369007627424
0.00597214695514237
-0.025881880204439697
-0.02878727070641981
-0.018671603589875675
0.034471822588542644
-0.008375670882620942
0.07247806666214343
0.022560476920269332
0.03685942614338342
0.05732905534989097
0.007277268028474922
-0.03455231095038258
0.008394909715420909
-0.039852902935221764
-0.059454711730893645
-0.016041311045446878
-0.0043590032792926595
-0.008962009040568224
0.0544880642465645
0.04621871561215405
0.0024632618250399435
-0.005228297290820082
0.03405278263789027
-0.028736051830596927
0.04168464730756747
-0.13391154788879378
-0.1620908737028945
-0.007526070438078391
-0.005183868964475106
0.011902179595210357
-0.0030777501162226155
0.0016182898962343421
-0.022347929832312787
-0.1100973983511044
-0.09144882651063554
0.055775986818099865
0.06925465298073945
0.09384504985293977
0.01850436043639574
0.010968427810619628
-0.00919592419421661
0.004320211270921829
-0.007509201805728022
0.005503436558732801
0.05290461192608814
0.0847991863455665
-0.03685984624300702
0.03180081702689946
0.00645809324120834
0.019428256991364044
0.10036915083156812
0.02595817216781133
-0.06512230231117816
0.0009914053273319774
0.0066548717479104945
0.026288576425282185
-0.020763524650557474
0.006053399089221437
-0.10620144075984297
-0.07368903040711479
0.03376536930493044
0.011145732028881266
0.027188856339266498
-0.01095603452870748
-0.03367592844155665
0.0020735140939585586
0.028184804579815266
-0.02499152206748066
-0.018943426366389716
0.003031198003062096
0.013860756613877784
0.040286603045620435
-0.013067956539778932
-0.011433867876475932
-0.03998570614209374
0.011623164827493265
0.0013846464292324849
-0.030568898431622964
-0.010560377513546585
0.02436560344599149
-0.012838192349907157
0.0394885890035387
-0.023365154624308156
-0.05283620153914256
0.010458277281251925
-0.0339897432415048
0.04075937910990094
-0.04056312811969463
0.12602797115028028
0.14002146781217512
-0.010062878709820007
0.00018242723924491403
0.010470346552916222
-0.02375543077348604
-0.01080463757606539
-0.023427983879174538
0.020244983302675917
-0.021214978132474
-0.02677102919800356
-0.01217434794411384
0.0008743971370914746
0.007362967856656019
-0.04110139687080832
0.024332755722657196
-0.01903578224094699
0.00450806013936392
0.02131567463789201
-0.012352503376284492
-0.00874083413271605
0.02400724379735037
0.0199110287403525
-0.0040936550819339595
-0.02740580180610077
0.009196694641243857
0.018150742261438094
0.0037970203839061785
-0.04061994435761588
-0.03186705777170053
-0.011583689772671416
-0.003775893174246663
0.00440272374120179
-0.0022252817861346374
-0.020382302386954584
0.010796630995456002
-0.013271755461572853
-0.01742733064397097
-0.009005206444619364
-0.03375948024904997
0.004760986882879037
0.026045670741570343
-0.03092764679833679
-0.006233091581477751
0.023051668150903166
-0.02351794101459417
0.00722242789250621
0.03963831464872364
-0.005855803498129346
-0.0015353743626362044
-0.005006337716419993
0.04655038571694386
0.04385966577899028
-0.03861857472917782
0.05611423470496746
0.03180523731876876
-0.00629825472089477
-0.048848490671343024
-0.0793345742644826
0.08280463678292385
0.04432354299342898
0.005038530526443585
0.029894718944433175
-0.036395341339685514
-0.023951779601989333
-0.0063444071542324105
-0.005992105311374077
0.007657218812391844
-0.035658894753054664
0.02013969479807649
0.07779418930224409
-0.06344320882932378
-0.0798407785462023
-0.013100986900332554
0.01923822959512232
0.035437381119496916
-0.026695446806438865
-0.02903634215808969
-0.06350895488386038
0.012180245777938236
-0.031081422889331693
0.0021837143221467904
-0.013248679692327727
0.04810554936466356
0.15377189113728362
-0.006970099479567361
0.0389472582362015
-0.03514288461032714
0.019410819837731474
0.03159447106229324
0.024393304529517115
0.009654262156277599
-0.026579034596926752
2.565345375699886e-05
-0.030269401276299807
0.021332188886342446
0.04831012916851848
-0.011583666433698455
-0.017759896526003172
-0.04514082973483826
-0.00035498046370569685
0.003570795703394232
0.0035059721651277327
0.0059797610559836015
0.023843130273550544
0.02370023125542743
-0.009574342790822397
-0.04033288608448943
-0.1202326943369664
-0.03301739990546645
-0.0002681491689768903
0.003999668753762759
0.005145997614706463
-0.02342685028789781
-0.004018964788668636
-0.004295473196349641
-0.008690900381337253
0.03517834180264001
-0.03461958589368822
0.0009004240648774666
0.005923421059267783
-0.0008169914219472663
0.15770808488592702
0.023937084195211712
-0.005114133933834364
0.009177708680448106
-0.05654764901854065
-0.027772424174595956
0.0017687094840896885
0.013214459149136689
-0.026165448846611216
0.01902933652707965
-0.11314888247915797
-0.15418890588711498
0.0631539801217778
-0.004380347542541828
0.014920510191838583
-0.042336650804076725
0.02387694148721385
0.06103094829801383
0.03173013104393086
-0.034734765004162935
-0.016858369327397846
-0.03475403044316444
0.06861388774670894
0.07121098054278274
0.12731698664061117
0.11047785828000589
-0.030830278017060866
0.01758193660458436
-0.001678125036317236
0.0032595114034167936
-0.023166840570468413
-0.0077223570044353
0.04692667367170187
-0.03354628077990288
-0.07251833831379602
0.07569642363851294
-0.008823459990371324
-0.004586951929446731
0.021428066948852447
0.029042733034417893
-0.007793419225536906
-0.012880666061520794
-0.011777947579186975
0.0052816288948642175
0.015985360369689817
0.048664333261726186
-0.07764058075539326
-0.07478092575515562
0.038480380566537485
-0.026058143763599304
-0.17015129438137777
0.004976385918179938
0.024925351662437575
-0.021483167436757388
0.0191057280896303
0.04877778664844699
0.07245871058373886
0.03191317010647528
-0.013122600932922036
-0.014302320419435782
-0.0210367259234513
0.03579765865655973
0.011824498143602136
0.019871896490803828
-0.008204583409460056
0.008767835846668385
0.022216870269556942
-0.13207017460913734
-0.07119410365019967
0.07274311143962478
0.012352264986056034
-0.04455092848577922
-0.1372429857783297
0.07556789693826547
0.012874783879243729
-0.02121302073938053
0.036983470524214156
-0.003728853920303326
-0.013113039082429247
-0.020166810139572697
0.006641227163717238
-0.006089770046005948
-0.0174470380152234
-0.0012023617508778324
-0.07274593553799728
-0.027913976814415976
0.019135465803119107
0.018673756443232613
0.02972949371926948
-0.010051893682380826
0.022296401529681
0.0377221373027094
0.012477220308423395
0.008379202482766192
0.0018105426094251766
0.018340751128222775
0.004689266262844527
-0.012147578903831736
-0.023423540744139736
0.024267906531260906
-0.026438929167234723
0.029335602940625163
0.06591806686143278
0.013024073375569264
0.06077333168954269
0.04237680812758535
-0.006718220750959397
-0.04051958382085291
-0.04476567755187676
-0.012442114032589895
-0.004765780993124709
-0.036609499114011936
-0.028628372808607406
0.031590440912157874
-0.007306843997118002
-0.026019236623624136
0.055801049211655705
-0.028969011002500662
-0.018815568158191808
-0.020648795135572485
0.03567586628568443
-0.01807190272503828
-0.06418723126068097
-0.002669716163040641
-0.025977236804681482
0.003005794427424719
0.023446392525062455
-0.044634539317240415
0.12579654761596384
0.06906434535536465
-0.04952186233676002
0.08869795099602566
0.05290368659405666
-0.02426883707793301
-0.019933516176345808
-0.0050414184535453165
-0.02584966743666479
-0.0328640016839974
0.01815227664101885
0.00990650670842006
-0.009940894924303873
-0.003836744055209798
0.04640697109218726
0.04966592835948401
-0.04279113814438472
-0.0019661745676034454
-0.005280930284658643
0.0013236007767054544
0.04585341501930925
-0.032185239304014346
-0.03523333517702575
-0.02042085579106544
-0.003919478133933857
0.009443694667887123
-0.019311971014432414
0.126612200233461
0.10332424124041478
0.003509681616554827
0.027280772573053294
-0.026725732461708895
0.0019519358099650127
-0.014975840110953938
0.037996504168047326
0.006964688358644723
-0.05530090902087596
-0.2476408132035735
-0.10558952890595855
0.023361398544465187
-0.04792970267727531
-0.024164654000162857
-0.01630865282635232
0.07472510478446615
0.004527518064787844
-0.011301962561796266
-0.017497223320644836
0.16938708389500018
0.05293266940540713
-0.03407038768943527
0.018541796422259817
-0.030894125138640757
-0.01462080564477457
-0.01807420038865823
0.01079881261536678
-0.14869202114051777
-0.0610925652975323
-0.00040708111698433097
-0.021429772373925574
0.01352304262311686
-0.04826003033638416
0.02092488224624195
0.0018121691962565876
-0.01945381841072517
-0.002255793014401438
0.011635096123544327
0.018800334792804445
-0.03535128992433915
0.09334095650276447
0.053165392514581196
-0.03602984976425697
0.05330082019948304
-0.0018376729919185983
0.004774283577099162
-0.008494797432437782
-0.002497432741705664
-0.04937559136825436
-0.04616529555842772
-0.0014202528987912408
-0.05109123984956314
0.12718918961554562
0.15736770637498537
0.0650852297307048
0.14161630518208562
-0.0430841760711707
-0.005154018628086455
-0.007496198684851294
0.035862957340769774
-0.07463550530442799
-0.009351203187032413
-0.05787234558398318
-0.04656907780103232
-0.035714113106796966
0.09138499168489424
0.16764318932920513
-0.02684822663059217
-0.011574299614576344
-0.04655642406185842
-0.026373489377634486
-0.007962064819645159
0.0005433526587239696
0.029398569246752417
0.0031025843170785525
0.021568528002353184
-0.09464126918518288
-0.0037133728354026476
0.0013177377973904274
-3.684785134148526e-05
-0.015328058009248424
-0.016117699502528338
0.010371254138701113
0.048531644023436814
0.01326539829011599
-0.008075516330343058
-0.047714990086305094
0.052418536726614486
-0.017230766932932944
-0.01505776764180425
0.02134680706880874
0.015134167861678713
-0.043517351022125665
-0.011498109028819134
-0.13420842437200162
-0.09062282484269943
0.02288585843729347
-0.049148814840028726
-0.08421559519906031
-0.04883796698382146
-0.043848567617984786
0.057872642996811635
0.09239919008904934
-0.03817149692799841
0.038137096049865205
-0.028412039336973123
-0.020136714711485815
0.0721167295815716
0.027269307770341845
-0.016340678583433785
0.01764952195069976
0.009486979449622231
0.01517660731835323
-0.01974686761087767
0.04788747899830175
0.0006278370915280451
-0.0154312041506234
0.0008022037667272443
0.03322475254014133
0.002132786785776704
-0.006956855912420362
-0.0027070907892996227
0.04283628439298015
0.007559471642534681
0.02012427673222806
0.018318693183833806
0.010009505561404248
0.008068519948573313
-0.017787337728424547
-0.02773184766031377
0.007459706179541939
0.006055097725897632
0.02691453009155197
0.07048971021655236
0.0010153902695556785
0.010056605732503169
-0.0062218847232883906
-0.018843592524587588
-0.03946793923899471
0.011115262956794452
0.011840818383608077
-0.022667300026184497
0.01442907667518588
-0.005164047643323332
0.02244513426607541
0.03117652547396461
0.02554927753636059
-0.018108322989068327
-0.018785989988551677
0.004492488961910226
-0.0164438301822316
0.0014402210133877174
-0.0010777796218912972
-0.029234797336288657
-0.007470790940633308
-0.04041437988044986
-0.04454498995526726
-0.019364239826490107
-0.010129382883726548
-0.0063071442271114804
0.012919114503073783
-0.024927425724406104
-0.03815499470449195
0.09106179280312363
0.09333630321443137
0.01297556029834362
0.007278094227933458
-0.05045813212013273
0.19643726829589422
0.06143890417050403
-0.014381075243118196
0.007630226835884316
-0.03967079628865533
-0.01938266628700622
-0.19460272998842656
-0.055505604197676535
0.020304642084233444
-0.024829976818584124
-0.013518453701462197
-0.06318348165806056
-0.018074111754775597
-0.01671184058479243
0.017501827824107405
0.004373961053842203
-0.009161962959714534
-0.03471070059754273
0.009029368814115478
-0.014742379212832446
0.01074753334740001
-0.009081226798288862
-0.042518527458789285
0.03548387574227527
0.01311657168412259
-0.005639877598823551
0.04275415095393998
0.05155179991872046
-0.00164365675738706
0.060425965908715795
0.010271872222305394
0.000571190471631293
0.05937552673158802
0.011725240239481044
0.005875894738347508
-0.048841921473019155
-0.004733278505998344
-0.007802241528165422
-0.006109679341387907
-0.040175376090499385
-0.028515716786018924
-0.012396662378301376
-0.02594706564869741
-0.01950289973018584
0.12581718020489574
0.0977594175384621
-0.009498360387631046
-0.0035978672651859472
-0.046900953093215375
0.024868367452357418
0.001370361259910137
0.011814040131266865
-0.015432230156851858
-0.012918930009021903
0.0034446834615035242
-0.0008014350892753038
0.038725143707212174
0.010385854195561785
-0.03147637311779156
0.0010319876276092014
-0.017904544910116907
-0.09671680589281334
-0.05423136792002371
0.02450559249420436
0.03871037476658441
-0.026334306857875453
-0.03807302717586454
0.004214106092186972
-0.025343418404955128
0.020401417398716887
-0.0227623144650699
0.014358843369503134
0.07094714564331246
-0.01915780883259376
-0.004836602493561395
-0.07344756365948274
0.07887237658892096
0.12693144508430215
-0.012410862094642289
-0.023633412115595803
-0.07814059943457219
0.07506719486780615
0.13213666025529963
0.008582605731994585
-0.018813825727315308
-0.014374821072403407
-0.031195896906184087
0.0031134926882208807
-0.05885092469518716
-0.0342509025295797
0.005566843282597744
-0.0361285020684935
-0.03998399591065609
0.053532144190574435
0.11406102083253858
-0.020455725667632894
0.009692019989936426
-0.028218834317040288
0.012006571808095652
0.004378787733882124
0.00995542984883105
-0.025057139421064658
-0.030684175194375444
0.008547541487382645
-0.01946865110537258
0.012073089858530332
-0.01101687319493786
-0.08906949532485607
-0.012228635043375288
-0.029804480205118417
-0.0047454131909858855
-0.033854505626444445
-0.019527359002547977
0.0022117620026536966
-0.015008828606843229
0.027880165213169883
0.02659597795154983
0.009298072181809225
-0.01924790840813106
-0.07053460256540489
0.019856168233451522
0.03944272284658973
0.010886422864757255
-0.025411413488526702
0.006830429581152427
-0.028887443147269046
-0.030107491263143396
0.05451461192159313
-0.03822440541745132
0.059893744995745846
0.1111922621434251
-0.06724807587027544
0.02884094980765259
-0.0014561909804962946
-0.021544993635893073
0.11867874048253771
0.10498857836713844
-0.022126515036106527
0.029526878172587822
-0.059824287258387
-0.029121579562205163
0.009732774179020142
0.05355754526070699
-0.015303932207300789
0.010224570903055216
-0.00710819985609245
-0.004134762829996574
-0.015782764823099014
0.015060218445995989
0.02823250384339795
0.011043806768968682
-0.021940822945903386
-0.026387863508302335
-0.021984931546987326
-0.028444335251253547
-0.0157989184559627
-0.039250822492347744
-0.028585924123037478
-0.01771307012803249
-0.0012097934303706807
-0.011728977941667076
-0.022185014318528064
0.004587359835327975
0.007611926948492692
0.028500436153335015
0.016885474112150307
0.0432791363325905
-0.03934717460586133
-0.025984148147500576
-0.019242797419438493
0.002104261163440467
0.021070720648542006
-0.01884110327174429
-0.022827900910038886
0.029856645030012074
0.013012764173627388
-0.015719753738425896
-0.011408101401477517
-0.027906876940767992
0.06077266133546017
0.026668622820698717
-0.017334516197751625
-0.035885569707837815
-0.03375881679674857
0.040129841684920974
-0.004622487745411461
0.00403081336601798
0.011519388092403226
0.009794764306829813
0.015153063756236453
0.04477540889893925
0.00912247045618649
0.03988427077729039
0.05262479249608325
-0.004539748531657068
-0.028787385722028665
0.012107291289029218
-0.0015015854172344587
0.0002231960721785877
0.022016800772577515
0.05155189211631926
0.03792419570233971
-0.003479703570370404
-0.08076818363474177
-0.06531671351238075
-0.002155521206813571
0.03640276368620086
-0.00975005548085755
-0.023553417678073056
0.018165396134038128
0.05563077171665964
0.08808131667218089
-0.0038298665409617918
-0.082716604733504
-0.15364941166258136
-0.01741310719321892
0.014048751344077669
0.03639943794362066
0.0799584816235189
0.08694654313005881
-0.0693077083835547
-0.1409205536895407
0.005432300184660143
0.010051391138505459
-0.024093296408973855
-0.0032327768937251995
-0.030623006120928074
-0.18220394012126243
-0.002432547089930006
0.015740521278323972
-0.0001663628911370091
0.03309707695948513
-0.004784418289247351
0.00833953115506338
-0.0032032770869356124
0.031543768388103154
-0.01877438862995809
-0.1048698568033402
0.03327337615750795
0.0804129005325442
0.01929814989893187
0.011342351241771485
-0.013725813807368847
-0.006150278304633864
0.01699751826096299
-0.015275093054017364
0.0020027417933066536
-0.0853940818866357
-0.05063775623554324
0.17949998797626748
0.019116411521406355
0.04156504066925536
0.04071565287097776
0.0037767804535298963
-0.017702602670540548
0.0180879502731918
-0.003682512482252084
-0.01881701551685835
0.07180055068525064
0.06173244161409158
-0.004109552886006899
0.0120291767373455
-0.0025167177041613064
0.01519883384840692
-0.03636146343153116
-0.010752698730804096
0.01961999169720619
0.042136135872312054
0.05535421456037626
0.05926804063388761
0.11693544338830124
-0.03959893397344079
-0.0012379701344419328
7.93332880462423e-05
-0.029816940307601285
-0.13746474424342284
-0.13197098955582767
-0.019134447382351087
-0.03037826834849369
-0.015596175316738473
0.021261189128462487
0.012684676303984371
0.01189589533922523
-0.007750834387051283
0.02160919348850033
0.008942026673903
0.01912017866149858
0.03323446657554192
-0.02026275234976974
-0.045392820940462174
-0.13824249847233677
-0.08875858461077049
0.01829885373689162
0.036703029100128515
0.17240097386203224
0.048051311255367796
-0.017416219021151758
-0.0077211061180730905
0.042662288789241956
-0.0419806087149419
0.007433843253769605
-0.005731927116747629
-0.011792229154867662
-0.05614310671077357
0.0012056280385085993
-0.0208052730383083
-0.00045073139385379984
-0.017804401318523438
-0.02903696290423507
0.010571603242155898
-0.028465351337251733
-0.016032943822376015
0.025451597846529034
0.07787223983121562
-0.00031174377652338125
-0.02374529611396442
-0.01573992683216119
-0.013399644262081926
0.0234345278681726
0.006188393204368059
-0.022555950793593366
-0.03644408748166173
-0.029524107489210624
-0.026243660062833123
0.051734898768088594
0.06247610528939446
-0.028252346494412123
0.003467031186144148
-0.01017347299822035
-0.03205244830237409
-0.04113465065854784
0.05150279366287243
0.03971169714787257
0.00022858169543485193
-0.02365347462099609
-0.0185140053227965
0.018030836538436706
0.004291660975943336
-0.03049178857440299
0.03141741101887482
-0.035427206835715264
0.0886526498369352
0.0765205303549053
0.013720600617612337
0.13554695271345937
-0.011095113146164784
-0.15612793606368514
0.0008870077182415001
0.002544693659723436
-0.036048895083423
0.06673211701225079
-0.011853629275856014
0.007527801818906514
-0.00589727406527785
-0.00918738716947932
0.13532597119653508
0.17125382168579145
-0.08184282120036385
-0.03530832140391482
-0.027098949696036913
-0.018791230473438756
-0.0013127674014288516
-0.06425879607006846
-0.11928609521670314
0.030353938099653952
0.006379504355541285
0.010187448915978954
-0.049540141335601244
0.004301672681541202
-0.04756304309220429
-0.006091208758860529
-0.019633626662881674
0.004310551421521428
-0.02515067663424384
0.00046427580034465833
0.012257504171533038
0.005651121804084871
-0.04576994014127525
-0.04054253343967814
-0.011731993915618652
0.017074333739902855
-0.03412200993955375
0.05145920560342872
0.0019040829262272822
0.14592172784679314
0.03822449827780909
-0.09551217222067389
-0.05973020683496393
-0.013693162806748807
-0.01203948151220722
-0.01467058178016419
-0.014646093961541828
0.08420948738306662
0.006936387874217395
0.05358277270983027
0.061253362995024326
-0.009921235843194206
0.03169591834363865
0.006960329342555591
0.003774075598616007
-0.014542819399892992
0.04070661299458447
-0.00196622445786586
0.01705393876336013
0.018212609628338237
0.0020509370806347073
-0.018098965400315074
0.0008636881591262278
-0.002053732491490489
0.003225899683063829
-0.007058923776571669
0.01597943022038586
-0.007556766704728213
0.0273967744242399
-0.020140415235223204
-0.014658539912221356
-0.05174010460012711
-0.0042536011492593905
-0.02433128195359552
0.010732186043664643
0.056995236205899406
0.023729114228233945
0.024767521636461114
-0.029959199342811618
-0.023497972854409042
-0.018763835011096207
-0.018716574890431898
-0.00899680262050419
-0.01788076616689989
-0.03238568204903878
0.016017701681329
-0.050012771294403444
-0.03753492657818276
-0.032984299730080935
-0.008854812288173466
0.020820254752460587
-0.014281982889532785
0.03601954095950436
-0.08136491014289746
-0.05213961984488452
-0.0055644850048909116
-0.0044135046877035585
-0.007932839688632239
-0.03047131795785641
0.05592491678741647
0.0232069075815746
0.09765951585037844
0.09766189581187915
-0.04340144392887268
-0.04181137723201052
-0.014470204657577779
-0.007716009492907073
-0.05259028517962141
-0.03340769572326587
0.03594023334920727
-0.0058335613077294965
0.028836474444888835
-0.0038795615250381776
0.010984579000988424
-0.010070254613276729
-0.042104291669298514
-0.02457728286464087
0.05612279366951841
-0.013335940329124971
-0.008383873477207055
-0.026122371181639376
0.13121568034455477
0.05680906300413371
0.13458236973806784
0.07836226894464812
-0.08142300149677859
-0.022434318654736312
-0.03411547607152728
0.0020048927092078833
-0.03250052121110665
0.0032717598760391427
-0.02751687070031062
0.019519291895853063
0.030709357918058185
-0.025223175227620475
-0.05557169654854054
0.14458524651382615
0.08011548281987865
-0.02181609534587835
-0.02345471616108574
-0.09400563873447129
-0.014513081504812049
0.016718963216577655
-0.05646999237007341
-0.014247660604537601
-0.013542073110282934
-0.019967769978450123
-0.026585544084174146
-0.010227407223668597
0.030081983740975246
0.011419000451498275
-0.04188908109209898
0.06098016360455378
-0.02322228626420493
-0.05412667895462877
-0.021815446508394804
0.01064536461296877
0.0554162569259181
-0.02375700089088757
0.005350835014928102
0.018003607857014554
-0.006534629462075578
0.025949727987358107
-0.004485730998031184
-0.009970375040002723
-0.06449713192448364
-0.0037056760733718574
0.07803066211530282
-0.03748400089138903
-0.05315584465054661
-0.00900177598323493
0.0025096283545088327
-0.009058146295290934
-0.0055976155849657505
0.05163058183019751
0.12483647435380325
0.005090460333950726
0.023162647336047545
0.025735432811563604
0.01704293299338245
0.008679642163710349
-0.010831889719808719
-0.004571056951523573
-0.04300999179047977
-0.004379221196067184
-0.04112097226525888
-0.037374644539570644
-0.029786245023512434
0.004247463553855503
0.02008153189900871
0.016157165011192715
0.007421324006521853
0.0018248709414540262
-0.0012659295880117242
0.02577062885379677
0.06334878610240988
0.016303876278952318
0.002447057725550258
-0.05966828090074257
-0.05393403250488761
-0.02855631097274411
0.012925968501658365
-0.0698504733330255
-0.07983263622588174
0.0009663395436374148
-0.016073245320239127
0.01761751468626371
-0.035809332075817074
0.0693015346195846
0.029377721290107423
-0.013278597371738164
0.024731607482793433
-0.012964809143098418
0.012823076803584446
0.01117830152459186
-0.00016432588530370466
0.028985995492560736
0.03676081850795076
0.03582508260442168
-0.021299994528808985
-0.000934321475639979
0.03938413891889679
-0.014069092157419959
0.009416527454046732
0.04293028253111068
0.01705007231164348
0.009911122796225762
-0.0211198595386196
0.014995350911919678
-0.03438145544137792
0.027682406211243626
0.03107058009391172
-0.010127306432598984
0.01188439760546461
0.02534347082169071
0.003956531459385873
-0.006032477770181063
-0.060991394440222405
-0.02094445803281128
0.012478944040107954
-0.03484068924104824
-0.029051854748306086
0.06721001671064805
-0.010987292690358762
0.005695683746600182
-0.2134303782749592
-0.0034874589313597963
0.0866302886676312
0.0012987366305478175
0.0033761075167463303
-0.0034792325209373246
-0.029480481911680338
0.012446878806314813
-0.01595909378414629
-0.026325652894135874
-0.013469743713885651
0.005307273545767554
0.018832391949827706
-0.0009456302785395183
0.03564516029658805
-0.0005145007439258304
-0.038356394414412506
0.008129239838523497
-0.052862568785900815
-0.053301543605954585
0.05133879125148384
0.01666159601057418
0.03047071847450055
-0.024176139232207617
-0.02540352455643334
-0.04479347137823246
0.0046128526325703014
0.031582681349038924
0.021634221569780558
0.04029879453981887
0.024200533199646147
-0.01235684164054972
0.008590690019971663
0.0004260746856401977
0.035619057873448406
0.06956873103617979
0.036645793832007584
-0.009513401917334723
-0.03407900397836664
-0.009647729537713215
0.04341293831490883
0.011421422336620524
-0.04147617455624876
-0.005772102879824671
0.004170432360550198
0.03294632012617054
-0.010948904810889368
-0.006211139889381064
0.019330937473646073
0.01780036650854545
-0.028245571369127895
-0.034358345798314545
-0.02457249383284351
0.009863679062073517
0.0741563420010778
-0.03444543985931384
-0.024196099967700342
0.007116786905739389
0.011094257994473097
-0.03979954336855203
0.002411507437956457
-0.014971617474083711
-0.0077467316521214235
-0.0067213282359739465
0.026406829369724227
0.029911306188129427
0.047397600092844154
-0.00021500855107726527
-0.035450299383680536
0.018975021901551595
0.03533855063234874
0.010303449092975377
-0.07023471744266424
-0.09536634998969623
0.013767419213122266
-0.08097447686529259
-0.02293530425791116
0.00784866943145552
0.03775116068234771
-0.022094167163505738
0.1609654840145578
0.09961577846237876
-0.023801387430679135
-0.023707757545974754
-0.04050905780165829
-0.11189002302568697
0.0326592119640421
0.03159868600079743
0.013444669993622932
0.06718760073675262
-0.013140006300770734
-0.014433105588654968
-0.025174963408510324
-0.008905204814785135
-0.013198478012042094
-0.004110974028613098
-0.014897166130260552
-0.021594187444756243
-0.037733702711545615
-0.01580839355908098
-0.008854456032895443
0.0002728922984655473
0.036533124316170285
0.03804185558568515
0.03458923480791663
0.007087052190710823
-0.011528607339759954
-0.006636381023461012
-0.01890914937585196
-0.03651153231475036
-0.024958207031250863
0.030350368630434124
0.004201252874950031
-0.0937601021894226
-0.011047015360128483
0.019225824105458734
0.0071665956824933045
