0
0.008726027597251631
-0.006749036043937931
0.0338490909116078
-0.007516229045788408
0.03065852826906126
0.008268808288566121
0.06617503347934363
0.027302528561743516
-0.007623555475381413
0.012592004246736871
-0.04134427584767877
0.02559048401708117
-0.017401702104785928
-0.010814462374057551
0.0010483438693931187
0.008891835574010668
-0.010513983420392291
-0.0018581031334912786
-0.04668007869144919
-0.017855387430776058
0.027591834544252417
0.009370980520880803
0.017752659837144108
-0.11643204130512853
-0.04868229868015746
0.05621082227833255
-0.016692284082830126
-0.03392599807602429
-0.0992426132884843
0.011672937487515129
0.039294455561787414
0.031556621781456726
-0.0023407853575347407
-0.025602727066251246
0.07038126457750127
0.10395129061009621
-0.0663563738407495
-0.023772310700105236
-0.026424316980798612
-0.021240165883329925
0.02481679466022418
0.018510757065044178
-0.0006897166965510721
-0.05531668808821348
-0.029946215738393095
-0.014060529234579157
-0.025831654598987293
0.050071334137315696
-0.0010362715804918892
0.010091856337923604
0.001216063152382371
-0.054359695837564954
0.011198185228581382
0.07802663939519613
0.00818937195245367
0.048107619086041005
0.023571195568272155
0.03584621524347368
-0.028217335902814614
-0.030286983294549683
-0.029328017009422776
0.06958495212475972
-0.030525551138529818
-0.03236887801066785
0.009478734328109441
-0.002954899436792058
-0.042081924722748396
-0.012863706406018739
0.036824651207739256
-0.022515875203353283
0.003724190388443064
0.007586483677737457
0.03223528327489186
-0.019826291364468267
0.021753838377773848
0.04183876390021594
0.001557878606781002
-0.003343183880244129
-0.038975230981766376
-0.03388943931632247
-0.03894848237042778
0.013140873554005755
-0.004609665862073802
-0.006275577723154235
-0.02338284136449028
-0.007327739099934857
0.0026239171843027214
0.02283904157484131
-0.008533711220666018
0.006705882116903144
-0.03206221627946304
-0.001052718916325877
0.039245834475595646
0.07391143189492091
0.04163129629537835
-0.02052410178981987
0.002338252391464467
-0.007557527206290883
-0.014945130641375426
0.02867232015911142
0.014794813889251896
-0.028442096313009375
-0.014711074435693866
0.01060311337835866
0.01568108811423412
-0.004335693852811005
0.10380720760913932
0.00804393304917861
-0.07181999847617206
-0.02068609920701234
-0.019504712056015925
-0.009123080326147306
-0.01307601628331554
-0.03183300023836732
-0.03281227302068123
0.09624073543064549
0.04043192607968106
-0.008280746010389322
-0.04363427865207228
-0.04397677072434763
-0.008995570733035476
-0.012680260279829008
0.01882755869412124
0.07071590830021782
-0.028618479798656435
0.011817620596102323
-0.032584088053489245
0.020633480014691827
0.02552841077650004
-0.026223245473898597
-0.05051289145325588
-0.02023673175688731
0.011320942308175895
0.005225276945278608
0.002653563136442442
-0.007095686434413232
0.04029006815788651
0.050009403509534714
-0.00037354130240191207
0.0004563479084068788
0.007333545806377497
0.022407886775070787
-0.010384407358585136
-0.09208173796216954
-0.04761495159089512
0.0156165548805392
-0.021493835560259102
0.006584258803090864
-0.0038561882926837223
0.005619003635629638
0.010402864381894994
0.018133769193926744
0.05313879198007779
0.0025020017522434652
-0.019519622099961872
0.006628250061830616
-0.024442297226842383
0.013213947440799794
0.007579891427446486
-0.006723852968125857
0.005167770770466126
0.029966054435331523
0.058703505674141274
-0.0004827129840480654
0.03306327520882868
0.00806187810836969
0.015004208863665451
0.014558543476606189
-0.02746866403512399
0.07425216207558111
-0.034211604793462726
-0.11939336008347554
0.025767651714025817
-0.02592643904179183
-0.019939505435971474
-0.011733380631067424
0.02083691376952174
-0.012069894101476781
-0.0010375099428980945
0.04140946507719519
0.01669423523201209
-0.006244765604756326
-0.00553853163794045
0.03942461828809619
-0.07656033568866534
-0.03284057114337306
0.04449756769550638
0.013210970548049131
0.013018774887722894
0.03399038192736305
0.026043888607125885
-0.018724766753100846
0.008127414906668342
-0.16580644915543827
-0.026423097310928116
0.018209998037005157
0.05685117576694188
0.003380899080002099
0.03585871817988574
0.023510330192316246
-0.022297991706473456
-0.0261191998767488
0.024864338597003224
0.006396292321997241
0.04565029312828845
-0.04441324266051809
-0.04482498422108126
0.04365340616342293
-0.025655964430906425
0.00026370096719037186
-0.03165577016787141
-0.12838093056976813
-0.019681090301271086
-0.2210201677594894
-0.057916214249176715
0.058112122188745716
-0.0012087793927629176
0.01815306898544323
0.0013455697828152018
-0.012664659002867956
0.09118967698987798
0.019496105827636195
0.00826717033252932
-0.011093080728242955
-0.03220307721249523
0.027626582421571587
0.030067956988295386
0.031696736683583186
0.018009737736283147
-0.03683059980084994
0.07107990586048347
0.19172736985239833
0.009638575552377703
0.0077300997459603
-0.011974030934733905
0.06540237236544386
-0.014200831633157013
-0.009740260367834912
-0.010778663865283901
-0.002024472103652052
0.01703860705858156
-0.008910104584804264
-0.01061566178501661
0.026143192713177662
0.0017245303983694966
-0.01910390079317929
0.03627592176535462
0.040637680705731614
-0.010128655892054042
0.021679118816622437
0.013027136569519069
0.027297462243201093
-0.02061530978836244
-0.04130010894857145
0.007941191576197005
-0.03942750926527634
-0.05921718545498398
-0.007790881971812931
0.0015918730894769883
-0.006122284230257727
-0.001981255567661162
0.010945555614370455
-0.008386109150717237
-0.031055293355514255
-0.008528188976270036
0.0051235663227524935
-0.001641239877041916
0.024105850852203483
-0.015288322993453621
0.01919149646539903
-0.005786420114725513
-0.011564399850725398
0.0028538214500831143
0.02004139852955611
-0.009513688405982079
-0.00017727997233183071
0.04655594724967011
0.036794731339688386
0.047864948131554313
-0.04164182811088244
-0.18116449611372712
0.001328426713023367
-0.005926946620574507
0.05971981366551435
-0.014182669521120739
0.053894184299880875
-0.003404758697699793
-0.041769734990205656
0.007200503197940636
-0.06090086100736055
-0.030161767036387597
0.01987111382998031
-0.035016181752952596
0.052320163581319835
0.05117291857041824
0.0006781613831864822
-0.013540324288875865
-0.015583567203903307
0.022445264098173157
-0.04900516040483802
-0.02298594031662249
0.03903100490309188
-0.01566296875041953
-0.01147767504201164
-0.007527775177477187
0.0021187758784787626
-0.009049244315830172
0.004096774048512369
-0.008957517176774038
0.008897204741184949
-0.03649410587863956
0.09977511066818125
0.014536006238432035
-0.04362378498610119
0.022086779480513172
-0.011213374576852465
-0.0015791029456608883
0.024491761774104986
0.061854165491646344
0.02002042211195006
-0.07332345614891815
0.005231054066386293
-0.019763795027497255
0.05909739949021
0.009206678337759034
-0.03126044666461708
-0.005903049884775307
-0.0512736337579923
0.008002882535379757
0.02398944224798933
-0.018769068598890187
0.0006987331653573819
-0.041846899743615724
0.007883771548515979
0.024885950614701165
-0.01990789280128211
-0.01709441351130491
-0.012876457671241227
-0.05415114057299443
0.03321332179253116
0.010839248728608307
0.10494832525361371
0.028226183006933168
0.05614627763861446
0.06760139456166807
0.000757404693394259
-0.005266744855469225
-0.022193535589166813
-0.021609430718590648
-0.039383582383896096
-0.025675717105599277
0.016084780605832457
-0.02037913271105388
0.01360558938985065
0.12604210776709984
-0.06058120054182057
0.02447285483311727
-0.07827052712157036
-0.12565125954595363
-0.07226563002301814
0.09716474876312553
0.09895359056766455
-0.013080469362830778
-0.048706594067565015
-0.02389420147442443
-0.007222602125346563
-0.008526067114895312
0.0012974578050279676
-0.006337832352985626
0.08141364198216054
0.03409242985238902
-0.030520006077477204
-0.0043720580470484605
0.09333258200085154
-0.051577597866006235
-0.01991103565213723
0.01854400965238349
-0.006111147565950072
-0.02062082018738004
-0.00045736206635081753
-0.010057946661204447
-0.008934560006488743
-0.004364445104135584
-0.06162554295683411
-0.09764692572650302
0.01069296183667098
-0.007960453298731737
-0.029317085529771813
0.017513400081546424
0.03634762878026062
0.015047426215241617
0.001044977221834899
-0.025412614731340686
0.005979901719955953
0.03247032113663747
0.0598363714513319
-0.022967871326652102
-0.0027107357377074153
-0.009445449194341328
-0.012331233774202708
0.016128352050973335
0.09322037971642036
0.014563685945803897
0.026048965935603807
0.00532089933870904
-0.022262520568268374
0.0010874971601523736
-0.03255723509631481
-0.026288460985660594
0.001459610612805131
-0.00435743539345781
-0.024856117548508413
-0.01473865574960736
-0.0024464951552991923
-0.05298464432774347
0.004306587043062647
-0.02375791502845999
0.06301331358536438
-0.007916245824403909
-0.008611423598144622
0.0545382823749819
0.04002425060777435
0.00756743026748207
0.0007586394855314704
0.022989620945364334
-0.05715255316224795
-0.08567721799519365
0.04859220962145051
7.698056190931499e-05
-0.0224092151774918
-0.01589150678246383
-0.042848167814248564
-0.01817427861211278
0.0404989083608099
0.08576672422114318
0.029180256882349834
0.027229171449460358
0.015251484899428762
-0.0050240801072902515
-0.01645660277668118
-0.01383910855444898
0.01592529847354764
-0.008668255069991717
-0.03014844260316689
-0.01920748605702055
-0.012477891217240045
0.007247947583633546
-0.01963430906897324
-0.023622547437316833
-0.018783994195811775
0.009690006543571538
-0.01647375272647598
-0.03191246473399731
-0.0469240706871315
0.018922160245435235
0.0034647854140462497
-0.00605217914917469
0.02412452631332037
0.011206544650256901
0.0033143904415227484
0.02148980945233133
0.024540706767616882
0.033090251052779525
-0.0026915029528482887
0.03711422154655925
-0.0010187441892470467
-0.011629402004220014
-0.03010891194531882
-0.018674948207658335
-0.007469396109480389
0.06193319128185356
0.04475804328826527
0.042716583842200596
0.042312610182990845
-0.0044558697661988104
-0.07222847235545485
-0.07244044582451807
-0.01188445685849902
-0.024443628309196025
0.014381105554998089
-0.0031274064691052274
0.03174919052067703
0.0024383737387894187
-0.011811370679311007
-0.007477365384306529
0.019737364631457078
-0.006310086751358279
0.01188553169816055
0.029103377968622834
0.0191037793277357
-0.00238059097033105
-0.0063665145864306456
0.02413415361546652
0.022367964709793218
-0.03362472078505544
0.0526193183027032
0.03175036781256066
0.029449267427742773
0.017500155183365344
-0.013732031761380914
-0.031843960244642894
-0.020001548122284364
-0.028856992497889936
-0.003428825354247727
0.030613629445381547
0.014452177744672471
0.01651945404972097
0.05674215594775958
-0.0022515155833675825
-0.11978507380679981
-0.027158820267784878
-0.006929245351871192
-0.031557090281935506
0.023497520836594527
0.005502014623316146
0.00641050988910127
0.020070271937666653
0.050418243634452624
0.021276420237241883
-0.13192082699566296
0.03105850358032013
-0.003808950261390132
0.01964720603916768
-0.07589288339827462
-0.05234032303744132
0.042754379907949655
-0.0334137491295713
0.0925448843421063
0.05341618804254966
-0.012186398250000337
0.026714918362986458
-0.12421328250742783
-0.1358491063822778
-0.009184212893416949
0.04545904979989758
-0.01585278020947271
-0.024582673210317898
-0.009627621053528988
0.004701946324470895
-0.005013390976086723
-0.02121197109812767
-0.0018411462627552784
-0.026127151142168077
-0.01875509550659838
0.04313747157802938
0.015134578696167085
0.020957888663557203
0.024660984389569842
0.01934907509053839
-0.011832638650828974
-0.010789476937676231
-0.007233739078315161
0.019810836322610888
0.019036083735654644
-0.031925333891180074
-0.0001992128385117064
-0.01826675137325685
0.05739478968284669
-0.0026613501158509927
-0.007055433256080531
-0.01894875191362839
0.12656466139974207
0.0827683270454376
-0.025832418272822767
0.016251955176728325
-0.008543858639503708
-0.005562749841463457
0.014581491500177766
-0.02688950549427578
-0.024297718244601835
0.019331369316449288
0.0011624383921166415
0.013335893230596772
-0.02818412837089098
-0.0334427980196266
-0.002820732689418182
0.14398394752984922
0.015736706916188125
-0.04046896729350086
-0.0564045663191903
-0.017300136505561635
-0.054566774196121805
-0.0526751078114966
0.0022149461376381914
0.017009039544229308
-0.001822135598854184
-0.026937641791530832
0.0017662261401295198
0.0031061668816430264
0.01606597224475916
0.03134750124197969
0.05349150105574276
0.039437336415126555
0.04376681623011753
0.007246613282805342
0.04291879864974308
-0.031176676575275165
0.0014627715812108534
0.09256567371212589
-0.005219445730250198
-0.024212795559684162
-0.010471620431513971
-0.002097817258951029
-0.015673279797901098
-0.03025990061486623
-0.07528028944568682
-0.04686620989233428
0.04432053998366922
-0.004513453611678635
-0.011287681114312656
-0.023021763057528132
-0.02967036887350489
0.029954263989707783
0.03132826714699776
0.04025070813376604
0.020034590515455763
-0.0149079093680508
-0.004430095539694901
0.010017129090000408
-0.05898598111581711
-0.09964931239560432
0.0009214049776159848
-0.035498305868674605
-0.0035692500755018777
0.006499312572506376
0.002481458569590262
0.03369376770330325
0.004516830141227362
-0.010954100796155579
0.008401748604525153
-0.008400293585554249
-0.031131662240631755
-0.009685529142254477
-0.010146609166686322
-0.026204243646161758
0.0211016338657364
0.04811827842996844
-0.018070897385404447
-0.026404692029339
0.02820037713469688
0.008451340936090242
-0.022928414501704585
0.008311630039719808
0.006178810327792952
-0.0020079682422471674
0.0027047059040409354
0.010334850699582126
0.08294908963841292
0.05708243634777418
-0.013800127503230588
-0.03233542781445
-0.021204941812719317
-0.05914340170898768
0.05268407734087249
0.060413771795580516
0.027220248816403288
-0.015532254899484205
-0.005981921373443063
0.04262144198542666
-0.12671544134590257
-0.02510920505642614
0.031103082190847293
0.009924410724558564
0.006235452971821584
0.052977315454246734
-0.001249681631049067
0.0349965420588709
0.0035165534476909004
-0.00965950350104954
0.005154956516037927
-0.011276239246792674
0.004032160512027933
0.017799050153532284
-0.00767101310454653
-0.01622921742027096
-0.007379698555937617
-0.011760409218245501
-8.158163536219404e-05
-0.1260847095867153
0.043652456643842555
0.02325800532788397
-0.0076328281264483894
-0.02513792402974694
-0.02184195349149678
0.026065478320313275
0.01413845811483956
0.0020007754135137634
-0.019768932599615128
0.024543897720671823
-0.02277904525188262
-0.0152628309352554
0.04752329948700287
-0.041895943873057055
0.004941384745243388
0.043803850959017836
0.005199033244612685
-0.009777174918352916
0.03479749630120892
0.043535800938242775
-0.023254116743610737
0.002451217053475889
-0.038172585414382974
-0.0941606415195954
-0.024495453382123684
0.03394683426046294
0.028373977568868922
-0.02427438793231561
-0.00922651809405459
0.02995969968785259
-0.04924349732763138
-0.02637344139417946
0.06913243698229753
-0.011697771722772041
-0.0169036208248684
-0.029698747785580567
-0.019091212263371383
0.013938868117947483
0.1607430033099404
0.003087400964979177
-0.03301583239200659
0.08926464065557478
0.001389674448671511
-0.03122581391639487
-0.0018391626733496847
-0.0034674806056418307
-0.018253426594282373
-0.06521299951757598
0.03119651190795985
0.005971041521600033
0.030234993952001053
0.021205020574777904
-0.023607259198681434
-0.014436764639093984
-0.014102374192857451
0.013076862255850105
-0.0010060770692482963
-0.021895737879619365
-0.03178868865538129
0.008587350873715054
0.0032977401097183546
0.010533850359672182
0.027050482140062466
-0.011059853895401461
0.030173279690436386
-0.024061873569414798
0.014112433746532382
0.049285892634385285
0.004501755916825898
-0.02316323393955898
-0.019031561826767476
0.0056804724444533715
0.021302906735765886
-0.026487889393020825
0.0038504230124342806
-0.01722668323693208
-0.030296137859436467
-0.013948368527564335
0.036087241012047994
-0.07472672524865756
-0.019913595575084764
0.02750294110387683
-0.0913031576724112
0.03101776868152403
0.021227622881876893
0.021985676426460758
-0.006529571026476289
-0.009433056080338648
-0.019721067147586147
0.007569747491294049
0.005493620378686489
-0.044578675306643716
0.0038658252736513336
0.11662250176115052
-0.019568525320486276
0.14189398046284477
-0.1453095957248367
-0.08768664493399643
0.023690699204768427
0.001163026507020298
0.03864184396664611
-0.025479371781677532
0.10209612042760552
0.0831129079651505
-0.0007060209223929681
-0.014376204794156413
-0.04293294268211369
-0.01265134546125463
0.029943294232596698
-0.007596406323773212
0.02164320893932194
-0.05059136975295165
-0.042886364484050206
-0.00728014390245697
-0.00673191885319957
-0.0018072599399923473
0.02472123501535593
0.012720870545926414
-0.036897335668198444
0.015281828721303395
0.03184361449705504
-0.019875713275417223
0.009587205473599574
0.008945002176312833
-0.025359846394406665
-0.043845636882896236
0.009750236644382428
-0.028668868621188632
0.07266544485770661
0.14632132623314437
-0.04872754448577868
0.06605739409799517
0.11853380857237436
-0.1578313022437585
-0.12269410967027071
0.015353611129129427
0.00047136055381055805
-0.051092260956613254
-0.033480592155146746
0.08198704369971407
0.011166898715547225
-0.0031514187420636853
0.022326403567988793
-0.01810659118067551
-0.017354369058186575
0.0033276646532415456
-0.03825603942139053
0.012110875287405249
-0.03472440703911273
-0.057995106872344646
-0.048696023678016544
0.11968299951325406
0.03801125903404674
-0.02347564782499542
-0.02019856933597189
0.04476482243835045
0.05779880153079171
-0.031185815496470527
-0.08123360429631996
-0.020844276786269784
0.02254680176368247
-0.014210949819263609
-0.01345784525070622
-0.016412453407523547
-0.0018512594637334534
-0.0244089954838706
-0.010409393776360125
-0.055921410086449984
0.10391686748713716
0.053460556750707273
0.008474392007820231
0.0064740952457719185
-0.014717057650346196
0.010087536898570193
-0.043580110300259906
-0.02038935837123553
-0.001831751571325122
-0.040626974793119955
-0.01599323397702779
0.12273534408660486
0.022440202999188447
-0.006311165794024892
-0.013113140489953733
-0.052181638777429235
-0.0012709712492116232
0.027556166137967388
-0.010891550398410398
-0.0030605332928776955
-0.011445447551143696
0.03560508636598598
0.07337083326107428
-0.011389244928043869
0.005872638723533418
-0.03101760170824479
-0.018594610007584954
0.02525558029993289
-0.002660936611470586
-0.004198199807495467
-0.05263195457231828
-0.006044224538958319
-0.04107722755447564
-0.0237092321462466
-0.019209540836185424
0.037452844385306765
0.05114347451261282
-0.005958766335519375
-0.022052326048125834
0.024386896113109888
0.024418827979722817
0.06023029122288473
0.004806686074512365
-0.02025653116224564
-0.02521176592971068
0.0363730792119601
0.0729189572995331
0.0066384586560638776
-0.02500866883490118
-0.01044191780194508
0.012256230205952668
0.0221848717909767
-0.0407175152184368
-0.031208691904370284
-0.056472721538495446
-0.02379858287957817
-0.02476039116931493
0.011113830889178652
0.038135774963448256
-0.014209613380148249
-0.007228647310539673
0.03342969875366121
0.041952887756927126
-0.019913887077466306
-0.037013979740650835
0.00972357459020477
0.1511145768691962
0.02004745350841294
-0.01708474183428794
0.01307023097142855
-0.007290580140021461
-0.00670224754526039
-0.004837966055592173
0.011021747619981087
0.015018511760952874
-0.025133020159524004
-0.005337969322726563
0.062453472766915034
-0.007265801860252284
0.020077082276089914
0.02786118453332043
0.008195712180045405
-0.012246606911834886
0.02355165720158607
-0.1816044176739122
-0.04392708294699977
-0.14916557373549078
-0.04196961025512885
0.023571982326830533
-0.021523893834538115
0.007120503587518688
-0.02869245744786633
0.05345444290764202
0.062385154374412916
-0.006559590907910104
0.11229768025625689
-0.021241091213631234
0.01730595697582633
-0.044540466823170866
-0.09304364903674323
0.004790610242264853
-0.00926767191174681
0.022365325584457665
-0.031909866253004314
0.028246797742530465
0.02860234922368848
-0.006543352859404555
0.01645756863073533
-0.025904262136377854
0.013499716079224705
0.05944046483078832
0.0001738407382196564
-0.007946754676470023
-0.005397542434343892
-0.0013411771892469545
-0.017646552703105202
-0.0048292125594930875
-0.031362285522982675
0.0029957666117312954
0.0015056938904179631
0.010236822366949184
-0.0065593689656806686
0.021151195843565136
-0.09855282575462959
-0.1512521839611788
0.041143246149769344
-0.00632632622953498
0.03385789017570751
0.027011320682780254
0.03900046489150716
0.030267340108225845
0.003007671625109769
0.07042825757452757
0.03485244887540687
0.013075202629214596
-0.005696568441489641
0.014620638399673681
0.009165707932023915
0.003664407317771948
0.007356727629807532
-0.016969770772123294
-0.00023174678411584104
-0.017512704144141574
0.05579286515030971
-0.01067252443017731
0.039524069717390795
0.021932170565649944
-0.019694666716762
0.01539426886456898
0.026024453890179596
0.010892315053419236
-0.03276222964976614
-0.0037368484017248137
-7.436687822211981e-05
-0.025734200286480505
-0.00922758039964077
0.03754169886542502
0.03866163861228778
0.027846814011892426
-0.13241303447563016
-0.028640346851314825
-0.015979171398359526
0.02050274560158837
0.007795587828717043
-0.04055989967293985
0.11312000863574086
0.033964615264785766
-0.05515772275483871
0.010019639692330419
0.012585499692816063
-0.0023069074475995915
0.009472145927123136
0.045147141502418414
-0.012145829992699586
0.02618614247258666
-0.01828005714090881
-0.021237251725679127
0.005401999888199464
-0.0259349557499981
-0.023630552970230104
0.04188315093306236
-0.16769872865374474
-0.0759023284240328
0.01829444808505452
-0.015272299040356752
0.012791741293199889
-0.01652773876646284
0.03017564657378317
-0.016016445326929352
-0.0389695540274276
0.0053683839356165695
-0.015067706212123763
0.008077821350953644
0.03783054137625535
0.011449962535629805
-0.015309728644946407
0.0375545079398054
-0.03273678516694706
0.023052770659400514
0.030562556012637253
-0.028127942421519246
-0.0016539504742867455
0.004919832266871175
-0.03463563199838589
0.09341949593143778
-0.018119484218250884
0.032876122698802475
0.04247237387520735
-0.03136621186311497
0.011369135825822208
-0.017349011150731883
0.01200278392341317
0.04599204180602303
-0.01296763413426773
-0.022914887477769038
0.00795591071108989
0.02493987318579934
-0.043093522943243694
-0.004061485052503573
0.0073602879432430515
0.02269692524695512
0.001515306965070048
-0.016981435378677627
-0.003799837645148253
-0.031610910686041785
-0.010759488137526309
-0.02843977758709752
-0.006970284037403364
0.10002206413541756
0.0301656810414176
0.008009321778156935
0.031179228291104113
0.026073413951927336
-0.010904393718290809
-0.00036977424329240685
0.030355728604738643
-0.012962061527182267
0.016387190822456463
-0.070246789037334
-0.06130710278995123
-0.05557894344867488
-0.053200282998491645
0.08260382789199511
0.01748118379044142
0.021550677813354072
0.016285516706164817
-0.016342701656236764
-0.013397679563707392
-0.06886817267661276
-0.07024850577108746
-0.003970100640333648
0.010279880866133803
0.0341660692043298
-0.015415936507445098
-0.012223764735541398
0.009038021041811803
0.028611971535517
-0.013515451466040846
-0.016961527655244904
0.06935111748510948
0.008149986158011224
0.016542361959139093
-0.006111644362564232
-0.028749400324576017
0.004155025214371167
0.00478664754802073
-0.021562779791908144
-0.09877023876037531
0.027854685751394215
-0.015479044611149094
-0.036626204264044435
0.02644550837798267
0.09180929191341143
0.020507803787135306
-0.014197875151405895
0.0013912738665224121
-0.018007815959542695
-0.00023214197697629793
0.0011362427314152335
-0.008041639839256728
-0.01811089424905903
-0.001809389775708434
-0.01919459468532513
0.05095782071744489
0.045521900384162164
0.00486777819807653
0.0009532217082313438
-0.04286251432649702
0.00697698826831486
-0.03518259898246688
0.07109696905501076
0.000916520731653003
0.0878260866727802
0.0504996391867517
0.0010046293474695828
-0.02836067644512267
0.005872960654543452
0.03312359404923322
-0.036183085205553425
0.01407318518643044
-0.010815305983606836
-0.026504726015934933
-0.01310108318972838
0.04056512171825705
0.14454788487827636
0.07206571360215429
-0.04503076616645845
0.018313968198218976
0.0323465746290441
-0.1486616691240096
-0.026069339239250842
0.028491318713546713
-0.017727499923440818
-0.012778631985676804
-0.023465672410393927
0.044674336632839706
0.026724964881690665
-0.014403868296304327
0.009233039619890393
-0.10726492364138378
-0.01981103711038975
0.004976086884896182
-0.006215089154299284
0.06167615547793214
0.03431072381625488
-0.07852473513725511
-0.01456122694261268
0.020985853845734176
0.022483279991798426
-0.2433741961287263
-0.11793224799517309
0.06403077864040657
0.04550488052933663
0.02336762779639475
0.007256791945554806
0.009483153270592007
0.009350072594325328
0.03054634602585761
-0.006865213958580662
0.008496869123664012
0.00111860963809399
0.06504595792233854
0.00321869689166575
0.023452998421412415
-0.09302283601063813
-0.09980822329923576
0.05695126179396668
-0.032788531122285414
-0.048276838514418725
0.0251017474830347
0.04313128189043746
-0.016976156994533757
0.01669747483394737
-0.010224764166325355
0.003955883991320981
-0.0019772352279023007
0.015569827582557488
0.0234986425752953
0.016152817736395642
0.007084096021337346
-0.026910397440288513
-0.02661118981227134
0.01742193189977271
0.018581582909749976
0.018666079631243795
0.010689562199247687
-0.006068433891065403
0.01618721577855839
-0.004612261610139113
0.055530446655608384
0.044294467569644266
0.015945184673725778
0.0010770207726553695
0.002856071259702227
0.0007047310675004773
0.0352781272849152
-0.0005674726986876991
-0.00353850466282588
-0.01847076970795875
-0.04079101941192811
0.032201289762037184
0.0032657650389522033
-0.000751171707463113
-0.02009825069225326
0.014546467060567463
-0.024267095782135435
-0.05010590202846862
0.03050248181809285
0.009817346106749666
-0.03637237445574862
-0.01280551042901739
-0.005387439486657024
0.021183910928078857
0.030267991647381146
0.006079193248457736
-0.21311281763155238
-0.054136290852446096
0.016941370526717847
-0.009309084308218942
-0.022413965524466232
0.10836018094645374
0.024841632377101217
-0.021627872720352787
-0.001007096175162655
-0.05201189199056616
-0.01852128348385478
-0.018846022573664207
0.014487598037701038
-0.020324038575581373
0.039209317515084316
0.07621461850689884
0.03533204850937177
-0.005172871543770591
-0.004738563924045713
0.0018033940289759387
0.05524021619007242
-0.01992095675460793
0.017450918746175687
-0.05618728102577183
0.031900602173163484
0.05245985221527701
0.06345263111123754
0.06025920334291323
-0.029069829174857596
0.00876050894966891
0.012681945147686023
-0.026742164452086024
-0.009132993230372179
0.01679926328390905
0.0019389494670380536
0.004207874761036453
0.015080624926836927
-0.01693158652988667
-0.0053249982644909336
-0.007465997077890353
0.009180931128654486
-0.00392681877100576
-0.019112656561210757
-0.020430299902765743
0.019935410526897887
-0.018975565970423616
0.15192651548615901
0.06051863370796266
-0.046768139375661016
-0.008797815161392214
-0.017433575525608595
-0.02073112644038217
-0.029734377190910967
0.007193630700495369
-0.018170507767415807
-0.06548440372554963
-0.05401056130427778
-0.02369509434446574
0.029131930271891437
-0.013101226422999195
-0.006823607432717117
-0.050475853470375344
-0.005785055692601973
-0.0282029224378669
-0.023642105452658258
-0.012185792759705097
-0.04957087263074697
0.0024265569401173332
0.008764820201057705
-0.005253283564523221
0.03741780155590667
0.015579588394054421
0.022000147738117374
-0.027976246641003254
-0.03802698291463475
-0.03781793066294451
0.008535626844899198
0.009293886176515869
0.009621623234369683
-0.027759476352896058
0.08847408667370843
0.09395905325518455
0.00235165795109144
-0.00642459701978584
0.023710841923737593
0.036362642343629896
-0.008544784052441018
-0.01645217402928581
-0.017230306712694782
0.024961967772898917
0.001664079695032771
0.001266886374299229
-0.007272031746513309
0.025833903262067016
0.03786249277968785
0.01348530551558744
0.02605037303686618
-0.0342845836194701
-0.05652856076184616
0.021506952469090845
0.008198205505025008
0.05247521592007001
-0.0048204608160447755
-0.025729303213794144
0.04346812007807505
0.04112397679247727
-0.04241104436648793
0.00113018016817427
0.0016324099741939083
-0.02947652115081074
-0.15345425878438398
-0.005060478307602637
0.007309641009158416
0.004443014104791485
0.005807233803703499
-0.025045395695311154
-0.011954177565475625
0.028912579135234956
-0.003698366166184865
0.008818551924653384
-0.010264292841549647
0.05234579785642804
0.04467557240004917
-0.001243429100556546
-0.017377722000033426
0.0011531549660189484
-0.006437484497024011
0.003624068873010959
0.005156497458913917
0.018087517813002843
-0.016934891856248083
-0.01506484812322779
0.011043988981770147
-0.007602826132844141
-0.0059293651411442185
0.019914107065838134
-0.013868737817077086
-0.0026529893762703843
-0.059019075372727284
0.005827458951181407
0.028213086149956573
-0.005379946981429272
0.008165564018856214
0.01674011042974639
0.029160716977351987
0.0043639439476262825
-0.07790276087330228
-0.11266334291658262
-0.006328300019849268
0.008408080857965725
0.048627364462750344
0.18209710997622816
0.004248217159699413
0.01509711071266005
-0.021316725521615443
-0.11915812512487108
-0.032362068137255805
0.028959435196343808
-0.015376568407941606
-0.004273327071224802
-0.049564026799301004
-0.029515899647840366
-0.00799848525571405
-0.01235654281892905
0.035495461335777134
-0.017788257660036406
-0.019765893661037027
-0.014740174497172022
-0.019629647370547867
-0.023956624906296412
0.018716225035057314
0.032734718922631266
0.02846471856512417
-0.004252402156232062
0.0037536383995208015
0.047377518578354406
-0.02504881099588026
0.08444038869500314
0.14053654841467217
-0.19083719762483012
-0.02393985673635723
0.0928416055174793
-0.037183809049745185
0.06580608267815187
0.03488755941815512
0.09939172314741551
0.004885305204299312
-0.035076692686761196
-0.01466421746810825
0.03277856845918547
-0.017611229248854676
-0.041248201577839774
-0.009484046139313916
-0.003930821479183101
0.029109200363505845
0.03880642567018368
-0.04416132418125047
-0.020934853126537013
-0.14049118047690182
-0.0994066679161488
0.02757818064559081
0.03650207536412528
0.005022803896094251
-0.0021118190356067715
0.004384072863326383
0.014984700692412655
-0.0023046908292952794
0.012269651741462996
0.009365835612760363
0.2007514300207872
0.06630983392441765
-0.01591645098994843
0.0037871164176945
-0.0427455326397027
0.009040999978122254
-0.059372322669255746
0.010442764544272917
0.06613350856287702
-0.02565438597135009
0.024043968475779477
-0.04598025098206586
0.0008672459398645177
-0.0017796851348464056
-0.022924063623478916
0.016440769060673977
-0.001985007274672905
-0.004690800623771978
-0.0033743403109659236
-0.005481474251095416
0.008432848479430023
-0.1518129697775077
-0.00646764621129616
0.007912981425126059
-0.0014949523097104967
0.03882311350421967
0.005561949567454791
-0.011522551013013776
-0.11290220025549838
-0.014619882924190189
0.01753132116241255
0.03137300070757639
0.03854729650726472
0.008401769427607083
-0.01861593767960629
-0.012658317819605053
0.0012538668345095213
-0.03197368449116308
-0.040328242643389155
-0.006537315116756734
0.030356807182130706
-0.010492198048069761
-0.0276942555955315
0.0209632554583727
0.02361745483615437
0.022832226209941364
-0.001631191550169776
-0.011819043478033689
0.014830243708004218
