0
0.0503209092635205
0.037113357536029484
-0.14513065236331157
-0.01940914184947478
0.01909940786186682
0.007606504933917651
-0.0018525783904078282
0.03449801084448958
-0.034297134327124876
-0.03177167293505541
-0.028867619858459478
0.03725473233091475
0.08870344192682218
-0.013832572860938287
0.006228908652300305
-0.029450725881853414
0.023503672743529685
0.022997261502507315
-0.09557173455370377
0.004476583510191927
0.04369318702392063
0.02992914295200885
0.010735702323158172
0.015096622241071498
-0.022287880888014675
-0.04171482521564052
-0.01256756692197285
-0.0070275286294540435
-0.0167007826166855
0.0660895282863766
0.06892507995220887
-0.06425876134091717
-0.01313815286820813
0.031200171300615247
0.0084788241927021
-0.029051222458323058
0.02651347984342481
0.03595845889413679
-0.041729783300471515
0.020445884262574862
0.055731694824187716
-0.024373650377623277
-0.01139313260989982
-0.05681938210792323
0.08784849448507345
0.10796767327151678
0.03014245004474964
0.01872273607806153
-0.04329993826378794
-0.03315758394136689
-0.0160714177727016
-0.01676575485355471
-0.10551854308871753
-0.01069597674709765
0.01776745158633634
0.005122212875195425
-0.013579128259807827
-0.0035498284429239663
-0.016762940308349933
0.01442070778115333
0.003196513810117221
-0.013729662351390734
-0.029341588102386414
0.001532672241124031
-0.04627910171278608
-0.0020446210141082857
0.0071849336197611505
0.004527195243912612
0.0006404452782421389
-0.025929618060293615
-0.03637141162015369
0.04902013571833964
-0.014423248943742957
0.11727379102562609
0.09847989956397364
0.010403243111192615
0.030110852641476678
-0.01795533345186069
-0.06828427547200679
-0.01612516883944898
0.0011688652406945704
-0.01311595521975637
-0.027140485522003505
-0.05589740496595879
-0.015072133199704298
-0.0014954699351835035
0.05192409699512636
0.024515593139600115
-0.0052076828773860735
-0.020040064610840232
0.04717666588548513
0.008374240760092988
-0.05458415202671982
0.01258183615769047
-0.012961435719412032
-0.037625488185464136
0.008535615671301504
0.030395288697164645
-0.03155526382403835
-0.005083312793675499
-0.000620180467427609
0.0016613104382447565
-0.04240925413529414
0.002314668081230827
0.05459985141839393
0.009405220757504908
-0.010310605813928151
-0.013308841543270914
-0.04518915835568282
0.043954869719094625
0.027860311349722767
0.011127839828294293
-0.010053194890265805
-0.018198068525969464
0.023605960054626545
0.0014532414487315765
0.05398837165437186
0.0122686606425685
-0.0062032724768846925
-0.00985845001429252
-0.027918088023834796
0.005234520793623519
-0.0462938160995308
-0.013140470397243685
-0.004400795954775765
0.022733957680436328
0.02605397236002523
-0.016646726372969413
0.020313348173911602
-0.028475709502811003
0.03996770468545188
0.03437006002482444
0.029854808385464286
0.01773078844026467
0.024167908483422252
0.0031088483230426018
-0.002878420682726511
0.013140192799370221
0.01518686898919359
-0.013795014700553828
-0.014272662474544033
0.004196362050430903
0.020777934291227144
-0.031685422007946114
0.03903791786119048
-0.1060749699971358
-0.0749389388669574
0.0628228035522018
0.06373880481158514
0.0034931498106194527
-0.05039111594606279
-0.054358734850488095
0.012333765086706028
-0.029478355886507546
-0.013845855998435212
0.00019883569851948316
-0.0047092019592828846
0.009665493504326671
0.003307485084480303
0.0014741901923557088
-0.004285891566257935
0.04091171723012461
-0.0059829983214061445
-0.003974455939762847
0.006700603262251522
0.017570019797496894
-0.007366245065213953
-0.00866679373650966
0.008897813302992538
0.021926536436679085
0.023952923479476782
0.02011008171132066
-0.0012976048580418003
-0.014066334118403849
-0.001354619968643041
0.0054495401467502215
0.032398978242603425
-0.00020976777351986128
-0.13297248203345174
0.014733096386427537
-0.009329150338419861
-0.13965102463707846
-0.04638360439560332
0.010289868482899403
0.029328902375147382
-0.01238776800572132
-0.009248378460874842
0.046385473040276404
-0.03728422858564999
0.034101106282598895
-0.05602299778575613
-0.009418190545602924
0.014973175803135988
0.019701746529698364
-0.004031018278002265
0.029638030780032357
0.0035357244318840932
0.016493280520476227
0.07239716774556498
0.01844532754968736
0.022708386576522136
0.01799828148568045
-0.01276070695124796
0.04586459140600599
-0.0025345111969923614
-0.04506462539780657
-0.0071293737821686645
-0.00400437041670293
-0.027915453029201252
0.029490392555503807
0.029162781323690764
0.002072571832313612
0.052781067596831426
-0.01172742059695678
0.001874517928026727
-0.006436249265071539
-0.03003737901126759
-0.014271602085026874
0.046032393003090796
-0.013300590416417868
-0.05070725096513605
0.0379883285823251
-0.021317788718558092
-0.005587094094058869
0.008700869227895083
-0.02079729556956908
0.006785140121537118
-0.01980823538884255
-0.006483030426867904
0.008792148608633817
-0.002638241106479435
0.025376037713004496
-0.006298714304843216
0.03947963761133681
0.02432574544224841
0.011713508525204393
-0.034789292134409226
-0.021019508528622558
0.01456428617909705
0.023106862858445324
-0.021143320308811168
-0.012506508824115347
0.01192989513513635
0.043866476814673296
0.03493711392393497
-0.0061857107250178674
0.0013379163250274303
0.010988100710920365
-0.05412036410845271
-0.09974035996152597
0.029346128220518238
0.03498153886238188
-0.008417019403941399
0.01454334337973262
0.00979089395033675
-0.006968204366825964
0.009297912059041041
-0.014233625001590632
-0.009941275470309268
0.03716339047407933
0.0499836620829333
0.047457671167458075
0.024043007140741163
-0.007292305209787559
-0.014190711623060095
0.0339329187785566
-0.0900440952888647
0.01924428615090422
0.0510809484261475
-0.03473416973752503
-0.13341251893837558
0.02487458189622413
-0.009137570917640848
-0.00011440205016712385
-0.027576966003485068
-0.09721796997645149
0.043028338189987234
0.03599389712131153
-0.0016974009270862764
0.0034481118235726574
0.04017066051428052
0.002822710593406224
0.018253899647100082
-0.010418687951814687
-0.0042479557443723314
-0.02512465268459597
-0.07752086355239517
-0.008677805097732092
0.009558264342695435
0.04002098777426006
0.025588491733210404
0.04923193448027058
0.078916272796407
0.03227612748107981
-0.0849420174170953
0.02044101148875455
-0.01988628765723841
-0.06950333655106661
-0.0870649339441901
0.007950600605292528
0.036588598939105266
-0.00045702992983825
-0.019673715661852404
0.02682110843668468
-0.01969343510014395
-0.08083904974988064
0.016138186529359576
-0.001894580225363905
0.05260717532016281
-0.03363304289710703
-0.006382996029142348
-0.011617309286140269
-0.035761146528218775
0.027843854806331874
-0.00688322564085023
0.08310142186513604
0.10279807284339809
-0.01646231513217819
0.00623563787921113
0.017523075254094495
0.025939860416774374
-0.005541127933519435
-0.042186098089766165
-0.04711660074607448
0.0681857078692652
0.024941102923783622
-0.02004010770752416
-0.04507033229690959
-0.028466935146354264
-0.005071865372414506
0.014647080353897439
0.0030981350184933424
0.011755036950027357
0.08873803466845287
-0.003936293458861943
0.012109766882726249
0.03505328617950743
-0.07359384727436308
-0.002008208568042288
-0.007164416274037064
0.00377117787801846
-0.03703664860267433
0.0038440422071535736
0.008927321904442693
-0.008487161775227865
-0.030804650989259545
0.00763359268521255
0.0006865030583462176
0.05215187619990744
-0.020657539462771112
0.018432663001384526
0.013249822170140205
0.0711384861927837
-0.045806004326445576
-0.13424254368179503
-0.02843043005560015
0.004167794616358151
0.007720837743486968
0.010747240140325428
-0.010653672606792342
0.011698641305191595
-0.017726160318559645
-0.030938502123730425
-0.004724526309161794
0.03932679457545993
-0.008574226737615955
0.044478346257928424
0.05768481775895846
-0.037583656382764764
-0.03226361960626558
0.03245201790022183
-0.01598084936812109
-0.014021442583728205
-0.04408457528068724
0.005260563998620505
0.010380657211694268
0.050904719188817116
-0.020781537118641866
-0.001429433400396373
0.07113298334084801
0.009191060198381071
-0.02276659936427373
-0.008369976916946855
-0.018939108674989782
0.05431926419352312
-0.012353969755448503
-0.0027248538854460903
0.05782773541972233
-0.004261486872201912
-0.07041874874021437
-0.042465867428071735
-0.003557147404616155
-0.10621657396629952
-0.05181257439060101
0.0412221312881437
-0.009158904288248514
0.049698069055088126
0.014605342377319133
0.028627992719274516
0.03994847115636244
0.050167414978406946
6.74598825556192e-05
0.011134037604758043
0.01739749006055319
-0.008227126970753769
-0.0844254166144784
0.1659966897687769
0.08419329883796192
-0.03855926489778229
-0.0250259735946068
-0.00772828839547631
0.011215469548449025
-0.007518743937006999
0.028799545255959128
-0.025923173232699402
-0.06106105093843453
-8.424277419018312e-05
0.01613955436625925
-0.015439467834937359
-0.1512570784640888
0.07037480689010292
0.038605024332586786
-0.01266438665314993
0.003167832541372788
-0.031044377666586437
-0.03671587765496574
0.02724400464122131
0.013212776010320802
0.01623196599383789
-0.033424493665349005
0.007197791389463993
-0.05541236923549644
0.07228947209377658
0.13652697312592138
-0.011841504957038333
-0.03072866610543224
-0.04496033971474845
0.019802207616709765
0.05176095696017807
-0.037889690037244676
-0.016785479312340278
-0.017097912181277767
-0.0068545723695569855
0.023654963630244785
-0.00941541441140399
-0.17859937885845611
-0.037700224770427046
0.06475868225450479
-0.02140090428293972
-0.004815567222292814
-0.02637324570421142
0.02304184436440033
0.019924330213227988
0.00709375562298778
-0.026740882653857333
-0.10465170364536834
-0.07882627072823357
0.008934352981666699
0.017638144669607995
0.029692918252686818
0.07812110049165592
-0.004087564306023075
0.009389319499497789
0.1786424622575834
0.012426315094552286
0.0032807087085851986
0.003984716192611444
0.036575979871816634
0.016787579091347662
0.02609790387416729
0.004746951113579214
0.00513973433204644
-0.003703417934263616
-0.00874141713121592
-0.023473376791032417
-0.016165502961602917
-0.08323679775827371
0.014649129885968129
-0.01032288481630927
0.02486839033016096
0.01453732791990936
-0.001857934008438872
0.04639645268001303
-0.05951228111713552
0.03367385449366263
0.03977793068710794
0.03970131243153389
0.02743921045300112
-0.04909482756707386
-0.09164439311336935
0.00041791179698470607
0.018105587696037168
0.024452158978865685
0.023960318911509078
-0.008961016783729276
0.035877841843149204
0.008833056662732987
-0.031435265203288085
0.003920631085734831
-0.07146048069588185
-0.1138430918242587
-0.06378706007402785
-0.05427714478330123
0.01697384413650785
-0.015359483720672293
0.0218617500889218
-0.031003861255165143
0.10819659526482284
0.02869746814645134
0.0005166507798170778
-0.00304580180689811
-0.020664192879782873
-0.017432926213426618
0.028561317719447168
0.04083319599640929
0.15124052313131367
0.05619277956655634
0.031649106710911395
0.005138434343204844
-0.004212777256142689
-0.020906507144588943
-0.03002925437443274
0.0498464863559633
-0.0172933555367259
-0.17640750794944754
-0.05741905512859759
-0.027634986075395888
-0.02879656987143767
-0.01572766427733747
-0.0016153638632801159
0.03531396748007247
-0.0032894384865593267
0.019697225422181136
0.007359321047732936
-0.01247328263096681
-0.0026337514710388344
-0.029831380476403175
0.060913967633976135
0.016642251170315467
-0.00720452482867469
0.023095889777240735
0.021870758102612717
-0.018277557926821508
-0.017052004966011836
-0.04995574517172007
-0.009380455133171203
-0.04918637891979999
0.0802583186036348
0.09045839958380128
-0.01677718290605839
0.008694127017828207
0.04647243720531946
0.026605082264363717
-0.08744232686004924
0.004971591866051865
-0.0298925256537315
-0.0026733538576529377
-0.015509381213501013
0.007362056214570418
-0.003118869809093088
-0.02655998884797584
0.07096538471859068
0.004774142081426311
-0.020989656471891646
0.04825611219698516
-0.016438168133765026
-0.06860718880565302
-0.018510134380700635
-0.0007341459629753256
0.02494135119163855
-0.026409652822897613
-0.02892766553848351
0.033711470645746165
0.06471544870822184
-0.0025703184161676574
-0.0193287305922175
0.02846463934577922
0.030661904540313673
0.022697475555553386
-0.005506310168479834
0.11045854647473184
0.012967774383009724
0.0029354806863991193
-0.027145497848916223
0.028134206816023195
-0.052282457635765396
-0.15163413496800351
0.06449105878436558
0.09854895280078214
0.033780143197359454
-0.007588308026733396
0.007429696495514664
0.06750325201460403
-0.024845287867881913
0.009085857718978456
-0.013557539219081614
-0.03279182814374606
-0.19932700662181163
-0.10485148881254797
0.029233148672458423
0.021756125291231658
-0.004336664404570645
-0.011463072547655
0.009118187360375219
0.027750499359775426
-0.014772362815743812
-0.02322642513834946
0.004209644860897537
0.02497503256516639
0.052835349712485075
0.011083926942357148
-0.013556948501307224
-0.0012880854692154922
-0.007308520763699917
-0.025453387471137387
0.00346550947853807
0.014337247069940147
0.06333482157127812
-0.00254963715958286
0.033401970791924716
0.02705315926836903
0.01654917353881724
-0.012990188820159143
0.013570412989046585
-0.047531886034578634
-0.06482679692097532
0.009950370316109153
-0.02766008562316332
0.025147850490903033
0.08939347794345
-0.0195503301478052
-0.048118443380167256
-0.08692136198062245
-0.019385250864354216
0.03764619772308297
-0.049067837200083474
0.02373209853976768
0.028386463527787627
-0.00036049535605564125
-0.09166730084870485
-0.03112948310757166
0.021559825240406217
0.006210381630604466
0.044401211874493786
0.004798530134506893
0.001250081646053498
0.02295188765931823
-0.00047480108658729144
0.0010423996291385733
0.02884913663079438
0.04515456504379169
-0.002225095981996923
-0.0434113939128861
0.006267538344787688
-0.03539820045589176
-0.030266998729300287
0.034568811463059984
-0.04165564321132448
-0.0042684186424906114
-0.003519796479740203
-0.00793292862936506
-0.014951346878896031
-0.047269445598891326
0.05731195849312404
0.00944355008889444
0.0071037124707418195
0.05004979322013976
0.024880508185503865
-0.01186952398670353
0.012684972797049323
0.060642068511678124
0.015221076187944181
0.02722252099434988
-0.009981579511977316
0.008982521442879065
0.030009415394143684
0.027719170058901704
0.018737426793535517
-0.01405260900231462
-0.002532974171800221
-0.08699499527636889
-0.048362274070896015
0.02640095579678006
-0.004617170927102406
0.0018800300108943104
-0.020080029678588206
-0.010282524871504727
0.020722415634856682
0.040473037978313225
-0.00969094222396184
-0.04022261856665418
0.025741633927079968
0.05082377524501754
-0.023059025001440754
-0.01683262980260239
-0.002908058512269996
0.027197306306252108
-0.08988812044255934
-0.05853781723190723
0.028047448016585895
-0.004739888375247499
0.0279075341830947
-0.0005372789270902869
0.03923680534974157
0.012428858879653155
-0.012571539120067572
0.019241756731883334
0.0011704865448453053
-0.024663352154286805
0.007958228815868879
0.015732322894634634
0.0021608035333894014
-0.012558166636431214
0.005928513041388858
0.026266100727839657
-0.002187890671163666
-0.0003605337877611151
0.0015032029419254926
-0.015557324733185435
-0.01958347535314047
0.005748586205358891
0.016352384018313477
0.025122259796925454
-0.022690062512155242
-0.04814268653812845
-0.049000507440500336
0.026660005519507937
0.008655665090409595
0.040715344620723695
0.01381451424549511
-0.018223039242176158
-0.002093914819186379
0.007530908484702509
-0.01124458198570814
0.02481554370851414
0.006650451504200557
-0.01551235099074807
-0.03146197590466752
0.013076691415604575
-0.01151918616919349
0.025405088511320856
0.08763048194682506
-0.042479377952945985
-0.022938273666938576
-0.03497794301326886
-0.011447298383143753
0.03389059796407166
0.008084409548717131
0.0015079888705110595
-0.021419431277156606
-0.005282341774644184
-0.020057529166255847
-0.034580181682601255
-0.0016997522011553685
0.032036161389184935
-0.010086998205294871
-0.019594254217560968
-0.05809825505214687
0.012065687759447987
-0.0021982207823356996
-0.00446054844355054
-0.02228115033512371
0.00689967529046597
-0.008938917738805865
0.03411303713112472
0.026919249508486825
0.009521630041734825
-0.07659144394443212
-0.015373136889732707
0.017730964660192815
0.00276257133331216
0.06386533956778949
0.05383173298461741
0.048279186265804644
-0.04425831443037554
-0.006070065483524524
-0.016541944764883236
-0.03462144818178455
0.006059459524258694
0.012484203410490323
-0.045280806332255716
0.05754160330626048
0.05932988517671597
-0.011266471655954855
0.01141951517702197
-0.01987721011875477
-0.02265332681992026
0.0054376416020733434
-0.005279071779464517
-0.004868493912806006
-0.05251289417990823
-0.017383555538292267
0.01301172404428129
-0.005772652760054621
-0.025054136465744135
0.013881391814435517
0.04693774853138155
-0.050911905091161114
-0.045816231688076275
-0.0027738812701207844
-0.008188309308048697
0.12171647817755572
0.0780044068453407
-0.0076916872999957565
0.03310251414034952
0.03250505372081514
-0.01829002333180103
0.06228291861563405
0.021912596557629904
-0.052925909511862476
0.04400828133997138
-0.008828872458988474
-0.04733149964479224
0.007284939791559679
0.02134718692658884
-0.06775465090186274
-0.0015904068244730106
0.01602677783996596
-0.017783570718342946
0.030723877875266845
-0.024170853761193593
-0.0343516206597789
0.008601235290637159
-0.007031078593383321
-0.012410191846383962
-0.007249472814845914
0.005706989442025596
-0.016573269683954957
-0.0288545332642934
0.014314351622766524
-0.000576175400308792
0.00843952976026459
0.028053127213008244
-0.0043199343571394995
-0.014528008671983625
0.07519412550388191
0.05385606390682004
-0.03345640155658387
-0.0611931160845307
0.008978146815327206
-0.017048056364371667
0.013523834940877862
-0.06134524764980207
-0.03709239759884685
0.0004895856257587255
0.01616251883700938
-0.01193579498100506
-0.018535184996331854
0.013453847024061924
0.010782581456930104
0.04519026832819945
-0.0026246235994987154
0.01572640862373015
-0.02663417301700861
-0.02423150278654234
0.0099511120259839
0.0181135083151065
0.010526065178683807
-0.03488254097701251
-0.04338588388560534
-0.017428917671053847
-0.033932774503009085
0.004987905023532593
0.06370378548215559
0.06883212609970188
-0.15339557299400206
-0.01799719514388992
0.03617070847682919
0.04202051227942049
0.05230715907697565
-0.013701593119107774
0.020682863882800356
0.0032401702529781585
-0.001972389293451269
-0.006773798572734009
0.010770711022726554
-0.042064023868902053
-0.02034964823104358
0.023612097348221426
-0.002155235618602173
-0.022120139421544695
0.013639088637023313
0.028142980586457828
-0.01872794308558294
0.0071974908777478475
0.037937705717575446
-0.000950042025694378
0.003046492314112655
0.04678516651288567
0.0019968841502196427
-0.021351748190322466
0.046688202487371516
-0.004462029387871532
-0.02188237462906691
-0.003459964703705943
0.012323847041124018
-0.003471574526292263
-0.04132395604323672
0.015605292890890647
0.017706198204637445
0.03090350965598344
0.02272608763259273
0.022138233272264517
-0.008338912681451382
-0.004690699384510916
-0.027000262008098075
-0.03231101978091583
-0.0362983949894604
0.009109082404664279
-0.00911627932312942
-0.00527657611895011
0.013667955243877017
0.024830938794134078
0.005910148351954298
-0.02063798150944336
-0.007023249604835648
0.004454612701277821
-0.08149945084949455
-0.01938022818491401
0.009203699526543116
0.004888706098039255
-0.006890879414561442
0.029653034136769976
0.0610834864770128
0.004773624171328666
0.004848594341475415
-0.016591424085165923
-0.014949347693520779
-0.02545229907603892
0.011334141270123046
0.03417566773406051
-0.05963811515119638
-0.05803070648210552
-0.0061282924339184945
0.028012859317648752
0.051147942333212376
-0.03846246969678939
0.003512180203398745
-0.06909625874018158
-0.061536658857855406
0.01309349302906467
0.01858765400630599
-0.01374134004933116
0.009542521451743863
0.004076383265330025
0.019852629150391272
0.11083074069599436
0.05250449993574494
-0.04608381317187831
0.034720513504448325
0.05473327023183768
0.004407342184554845
0.015995401709336565
-0.019579275795101263
0.04593670102107776
-0.003873326412456801
-0.004055309385408486
-0.01068055011029077
-0.0032573934735273973
-0.0017024506178549869
-0.001667795663003423
0.007199630128909415
0.013394593782562518
0.008418108030473333
0.02125587748206151
-0.01179047357184389
-0.03102196500482778
-0.10086285434332738
0.01295253939268278
-0.023264494455836005
0.03812326507943479
0.002244283244854231
-0.012458401639823175
-0.0478423812442329
0.02658239058021442
0.008811864210334053
-0.007090091011732387
-0.057165774063446785
-0.03126375587940056
0.00508612872710742
0.03589172046240833
0.002949833884296302
-0.06005042785776785
-0.033361344978243716
0.1124318192738414
0.055905293472401814
-0.009870918983323353
-0.008027449476105768
0.003593545938047203
-0.0198072605442404
0.01829722441987486
0.0010316435165624769
-0.06056003323669339
0.011535020860237782
-0.010982622994468326
-0.009509433033953428
-0.025495699148746352
0.025008838404718063
0.02417833162926926
0.03050270899317485
-0.012298744123448844
-0.02825443494932632
0.004946277818447953
0.027469381610945344
0.007603077997377976
0.043533306686524845
0.017853088903848537
-0.022434034166761336
-0.01074263818850749
0.03337509364749035
0.02418645864380872
-0.024327896945719713
0.0026852709338618086
0.001391844553024553
-0.011737512960185282
0.02606957587997521
0.007391021818759593
-0.00445078924919399
0.021599693173811614
-0.029747458342380823
-0.03153740663040336
0.0033997796080603043
-0.008110809705809534
-0.024604818072607476
0.031101507509027463
-0.011127237017510177
-0.00688724391264287
-0.02528870661744025
-0.04864622535647883
0.0352834403517343
0.060787629235295
-0.011665478593957385
0.007227479384515237
0.013537421358949281
-0.02517872838021152
-0.05321393070000465
-0.002415623126431601
0.00044441506175043564
0.009538927682235214
-0.007402645831492748
0.009980123634758092
-0.014732551578154807
-0.010852379551093243
-0.04862345966241827
-0.03093787198870666
-0.04284076102646502
0.010955612287919338
0.008808104279138638
-0.012940796286632557
-0.028877813457647717
-0.010842136441339212
0.021720843286606034
0.014425455329925198
-0.013470575692624887
0.1402279525979503
0.05404367792777231
-0.020192431357754077
-0.017329129559942546
0.0028750026448010287
0.06296621260625133
0.0972973066418284
-0.03083784603372442
0.0020222632354845575
-0.027939319760428773
-0.056373810546516225
-0.03226184376887431
0.005039271839294631
-0.007852455305324364
-0.017640498628619633
-0.012809915595514473
-0.03424037634021742
-0.018679930413983664
0.007265612751088604
0.017274484187143346
0.0023756268602586456
0.06913214461299634
0.06780474463872795
-0.03068155399418371
-0.03584711154254888
0.007942814977590749
0.0022973459086958505
-0.017378644136812577
-0.022007641085623298
-0.02477727929483353
-0.033182344937204476
0.015916501972535888
0.010505214867920717
0.005516009577158039
0.1758950455102998
0.05229793499634232
-0.03871392151135885
-0.013788841599630366
-0.06391562693803093
-0.09374845257159914
0.0348952529344781
-0.022705389077039936
0.024971506766389193
0.09433070326998445
0.030070937384473025
-0.010949035686527352
0.01956809555039338
-0.018384323032336503
-0.024353082037366094
-0.04853864655293763
-0.004565961455043916
-0.0634327595736493
-0.024308361736231212
0.0039321499039688314
-0.011395576288623272
-0.01738199647753945
0.06868602815864204
-0.012729565896520518
0.05869074409257341
0.05782875164865415
-0.05812976556833008
-0.029781458532387665
-0.012824776627798438
0.0015281733714672297
-0.01213369417393012
0.024751681493521197
-0.013365949266028127
-0.013040881213533537
0.003216818048326591
0.015739954315546617
-0.002799289396648966
0.013593178189899911
0.0519799107225519
-0.023546003544303633
-0.01375322846148095
-0.013387737399348352
0.035135113356247534
-0.03924425249588574
0.013574082329407194
0.005708085104347152
0.008226151240421583
-0.04191504756420693
-0.03510356263897979
-0.034641068272171456
0.036079467332661465
-0.016891037691811377
-0.0762540316855111
0.01087929114382808
0.05652520901227223
-0.017833061940616582
-0.004724623868652884
0.029966042552483117
-0.0038474425966418804
-0.0413419153216259
0.0009292997612989681
-0.014676243794797126
0.0091802629965246
-0.002883601226690143
-0.009464249162223144
0.02016047623837816
0.10565978715269612
-0.005416164538676979
-0.0811126487184652
-0.019936799859417518
0.0827629008649851
0.012616968948294659
-0.09591229418313386
-0.0344318782890223
0.04522345430521841
0.02194299441501317
-0.03379739783408306
-0.007553904945770276
0.06137456221510063
0.05591175110942634
-0.017603437849112002
0.01563608067181174
-0.04985781216568488
0.008752652425491532
0.025934506900055537
0.011819288865927655
-0.03272714297067944
-0.035478127151544116
-0.00023111281273180038
-0.011303935889609588
-0.009782058020848815
-0.06643767150952588
-0.03255825961299947
0.00884887643806891
0.1269062255136557
0.05366379318802782
-0.01810782103994952
-0.022311404046627223
-0.0012419260233241473
0.004908278885145262
0.0011877683077194771
-0.05368519360352749
-0.01203939683759373
0.013791805348689725
0.006162861165971347
-0.04419289953568569
-0.01625619752727228
-0.0047528894751240535
0.048474403732285856
0.14597026596418583
-0.05680759480787775
-0.03803352502434139
-0.009569012744315746
0.11903855635813644
0.09427570113279317
0.02060442234455217
-0.0067161306543572045
0.010978976400560466
-0.0407693446185205
-0.07508849105915723
-0.002552384765729902
0.019132033136249917
-0.010089433764344739
-0.002448681174203039
-0.019952108487748234
0.020481178376048424
0.07777147304687637
0.045320471983317547
-0.0196947478686967
0.0043298267743156465
-0.026494139525932662
-0.02535669615747555
-0.03273416346401664
-0.012344329424149338
-0.017315552640862306
-0.017630219341108023
0.018541943934507685
0.006797292504458823
0.022019500828160943
-0.034154473422673866
-0.031156175712131605
0.037044230607792626
-6.6826365151721135e-06
-0.00044487890539008496
-0.006448754015385745
0.03382095446730397
0.04437423439441343
-0.03504898493544446
-0.012897352615458253
0.0028973464875311754
-0.02845877621527263
0.015127995944920878
-0.02193752741519671
-0.02939614262329574
-0.12333621402679544
-0.13041978088574713
0.07365798278220526
0.011652826949587034
-0.0024055417164952665
0.03263425775266872
-0.0012315133862209142
-0.01581471191794124
0.03178951756764977
-0.00022346062135867012
0.025872803350391476
0.011354674980486666
-0.1433608834864491
-0.03595057164271066
0.00793874468898032
0.006105922704996889
0.02275287594067778
0.05488498263637507
0.009065445282931064
0.0008797930626570428
0.015734896632791793
-0.02733653545863797
-0.04604196734753112
0.007266468890472143
-0.040783633032725586
0.05751456505900498
0.08015981034458533
0.043713357666777544
-0.015696169242603343
0.006699501630740016
0.017199570285659802
0.05292313797430876
0.0429748785387087
0.0271471895597441
0.014818782641276075
0.021185910934266233
-0.020615533492358642
-0.002059781895060937
-0.029243473566957903
-0.012092316287289467
-0.009976603933451964
0.008672751101098462
-0.006197488691044574
-0.0113572539312521
0.010100652939429777
-0.07516549220234359
-0.019416228542610797
0.022228336041314394
0.01089821432306569
-0.04292088089178617
-0.01304586747031056
0.04519134608336031
0.0645751683900248
-0.0339003008708143
-0.009757902860027829
0.02928136861627539
-0.020116477537169396
-0.005310809448723529
0.01346268116608769
0.024668287089029663
-0.014677331332736647
-0.035019288764454364
0.025973996434235654
-0.09755995866152053
-0.06654103285839608
0.02099956405118639
-0.0027785449159541307
-0.02251790928152908
0.009773480504683152
0.05617784340552345
0.0795643331372602
0.027869859208148638
-0.03179960693382578
0.009807803862438859
0.013913015316220757
-0.020393377981385227
0.025690509099548595
0.004800992722290238
-0.021644233925690013
0.0006544330409980136
-0.08214344501969428
0.08487569464601116
0.0016713823185488732
-0.03271939156254213
0.005093948195569573
-0.03692005427031742
0.033039411846594785
0.007828303141192983
-0.005563192361533776
0.030188981653957957
0.01119046371096148
0.017688156453971867
-0.008821231721290804
0.00719393105985958
-0.006437589130245381
-0.0048942748066512125
-0.017834129468326795
-0.011525185057551778
-0.00587142338029305
0.03194573593896688
0.024730529193532757
-0.01910239597204534
0.03408593954192584
0.012106923996997799
-0.10791744967821662
0.023003917711969166
0.06336746247013349
-0.0012309686986014937
-0.04199415077778556
-0.017076768113320238
0.01346642464260339
0.01586488884975272
0.0062235652947000095
-0.0483425352517406
-0.01327276072039776
-0.03658745660825877
0.012076524868897303
0.07023692206947175
0.042872153064758126
-0.04279134765097808
0.021590232618329635
0.02956668722273551
0.019928912968244433
-0.0191519459253193
0.009751964642885325
-0.13385255376390096
-0.06728713178462793
0.013974154102166717
-0.030144190156430727
-0.004319697378274031
0.013633265293002912
0.017216553534628965
-0.06776273774371483
0.03143221146551576
0.01649726498794628
0.012720315228955647
0.014017978839980906
0.04339972840514318
-0.01455931054290988
-0.002166013775697754
0.002399341914491402
-0.00768986560629022
-0.020087138137462244
0.10416123849921603
0.014947405764196071
0.004086406833306817
-0.018291617006322865
0.005711578121194564
-0.0042405501392932775
-0.045801327679795625
0.0378724223695691
-0.00914281477861119
-0.030376598143407308
-0.01795670384832573
0.018506031852736058
0.04559090494569747
-0.03109477396829026
0.013161014818403606
0.013964480109318042
0.006355341035568684
-0.03631390804721879
-0.0094961773489977
-0.028125474583758487
0.05921778980376216
0.09052560067648852
-0.03514619300069817
0.04975658377542197
-0.027575030783835327
-0.05346107992885194
0.025099543344515696
-0.005720361600150664
-0.016036563594341233
-0.005561867394962144
-0.008017100529587309
0.022276900050983966
-0.005998698249181469
0.02458161159509988
0.0398190801872055
-0.016743361236942787
-0.0047987342833002876
-0.04069256204228112
-0.06125831511275067
0.012723136569196878
-0.013213732052338646
0.000657683335124211
-0.003666121287301502
-0.02379855546774332
-0.012993478960405468
-0.030477913303309786
0.013264056582915644
-0.041574209429785666
0.010895970468475456
0.08132628798171922
0.006546946562187854
0.03489284085216411
-0.013303418339565363
-0.020512942323299695
-0.0210804435872706
0.017952636740987602
0.006106177266387103
-0.08745797259114882
0.02663818814957321
0.027946269030196837
-0.02848687718385509
0.07708933834979466
0.12237276677408421
-0.0007897930926154267
0.030158881354138186
-0.002822460750971183
-0.010781525137179135
0.00012916057232901834
-0.01412652755504975
0.06745290576010517
0.025127509204876334
-0.17531061859976846
-0.013320192410182037
-0.006764808992034073
0.03915868393903857
-0.011228851498731632
0.031074960244086177
0.029251632143722787
-0.0039999964708060855
0.03605657306691849
-0.01763245541198572
-0.04975993879009919
0.01879634574367947
0.0022902615518337445
0.05353962234419845
0.018279845817348647
0.00953812289937016
0.017156918814889968
0.0031092313744858777
-0.031219775767839714
0.04109757194004116
-0.08882399527679712
-0.08682611062128714
0.0026393022369964785
0.034127639200575294
-0.0754117637063502
-0.07446420640505502
0.030903643462125503
-0.0089821107842121
0.03668322499626501
0.003451582175632753
-0.00977338037213035
0.024546297248833806
0.01502403181368506
0.01891691745210526
0.03751726994281865
-0.1294024439759526
-0.16471491543462943
0.026320676306310044
0.04101484857660293
-0.009793846370560588
-0.032493587169542766
-5.054194260130556e-06
-0.0009885882765287338
0.02265523110031624
