0
-0.08194203504698751
0.023336368015114815
0.005717241049567958
0.050660979603989825
-0.011998802691930247
-0.018728321256579222
0.004273429214445586
0.020835149996898606
0.006765538506732698
0.031616045533709884
0.01315125036875528
0.008056643996694311
-0.03548600744353055
-0.012794440200068499
-0.026270596000645456
-0.05553628375000815
-0.0010233587621396774
0.027184392599790056
0.024398985291969683
0.009836829110890174
0.01917447419127303
-0.01895821452360139
0.001342954971077044
0.0233730344867154
-0.015028231867387245
0.002261216584900358
-0.15350584074440735
-0.011583496577160061
0.01993141995214492
-0.00394769389033819
0.008034590573590102
-0.011385653449889673
0.0026454866757368166
-0.00021465192449963782
0.00957639225037674
0.006798408635606348
0.005800272281547582
0.013084793699443792
0.036320983663264195
-0.006398220372563757
-0.056047634912375854
0.03228515795093778
-0.04414429093808517
0.0360213830046651
0.004027663165561412
0.006719699134148266
-0.0064675106320970345
0.006463665269464144
0.018713301010752005
0.005269272608158024
-0.013701627830482503
0.05262625129385337
-0.05702653965681605
-0.06925108082940876
0.014990016469325811
-0.03173760910502097
0.03995872250095911
-0.008311251760850322
0.04364569767690126
-0.01632090300951861
-0.09236066171557691
-0.017562384000204906
0.002012657612262381
-0.0232104151480964
-0.03024662360850802
0.016176475815686986
-0.011854263891351956
0.003844062849779591
0.027438124686914776
-0.01838843258683249
-0.031589058453731014
0.08574458153853462
0.027276709679418292
-0.01427287822099867
0.0372262010888198
0.026403009031878602
0.030300545245826684
0.008879104280765823
-0.032925314139469024
0.12315803203147098
0.041833430179460326
-0.0033758526561649916
0.07056641101445207
-0.035376215376381706
0.08454724059946626
0.09002623342279768
-0.05542310450945795
-0.03763973791958373
-0.0013407077199810975
-0.02943709108089779
-0.017533036809929237
-0.060856405953819685
-0.0035076190360413552
-0.10517441168024971
-0.0915096629634265
0.015335974901476672
0.03812555300215812
0.011590733978409392
-0.007627632512851146
-0.016788742886816647
-0.013542459010932411
0.01929499688817713
-0.009845640764194563
0.024680791032917856
-0.01349377934178425
-0.01720905217354594
-0.017279801769769
-0.034799042735115505
-0.0037197704536422564
0.005624778342599515
0.0052053024128381215
0.06101467060799673
0.0037903067377447375
0.04193325072445505
0.11600878741909466
0.027390543837228432
-0.018573080191770227
-0.10332998571937127
-0.0069018054150115395
0.0017079068244671173
0.008178386021369643
-0.004823459810035284
-0.022481627797630615
-0.023510108208898636
0.026226961654005034
0.009192107784768115
0.014240305477478154
0.021883991427173417
0.026399523490035125
-0.040113320112426035
0.0005339830883503495
0.00033495186493341954
-0.06402601853913252
-0.015379462096959746
-0.03848357127006749
-0.009148526661531636
0.04294889461786241
0.04314118502414809
-0.007251010292986881
-0.0022914988094504393
0.036220881842512195
0.011136478634543279
-0.001371682671346646
0.004074949378242241
-0.015753411988789934
0.018296616447523128
0.0030665953193147644
-0.05223788491474482
0.0204710965525738
-0.004072969960302434
0.00047316248505599565
0.011993278621851523
0.021111716779628347
0.009495514088967625
0.017324135401857434
0.0011692073480130437
-0.012185096830431397
0.0031991606937020723
0.03738388204728453
-0.042045908690536156
0.027078321369191954
-0.0077505853451678005
0.038320739670544425
-0.05395176897414111
-0.06268660389909532
0.026481035127612518
-0.009532682887287485
0.03367789433305487
7.600411382684864e-05
0.0017626089910504625
-0.0028468390751116746
-0.01043495620382714
-0.0008943591341070416
-0.03193694100650146
-0.02179276343727002
-0.03703653640524531
-0.03404248295429726
0.02132994213422693
0.013265223145335986
-0.010717868371172487
-0.00025003389727654184
-0.018179341275178135
-0.0082630557889931
0.09204554995797129
-0.016601930170135743
-0.052022180372657566
0.01883409939185055
-0.12221764897482074
-0.03615301323832287
0.002635245640291758
0.028634479193545972
0.012372433625518126
0.021354821284413326
0.018053171232693285
-0.004226669834086708
-0.006191141409969471
0.013129327920014401
0.0011289590134635678
0.036525278300303894
0.019603758999372917
-0.027887670233699355
-0.036053067680638845
0.11105970552553455
0.07874591188311361
0.003484841560764235
0.0003498694046484746
-0.052524416752932415
0.0004035979622319299
-0.03372748701016435
0.015416161213395122
-0.024237748888568635
0.012285258925077633
-0.011551720499909844
-0.013852458628329256
-0.005227335035662674
-0.019485033483801293
-0.02637491347799955
-0.024017908239027334
-0.011320236142528204
0.03021145109674407
0.04328801585368035
0.005954224624580385
-0.0016289214056547775
-0.0010131936935253553
-0.020279601181888127
-0.03390871804556842
-0.016285378747569697
0.07392250889141415
0.12346829401728444
0.11417681000255386
-0.028104811531559328
-0.019896524111487433
0.02818795859523898
-0.03384056104683903
0.019780894103221574
-0.023571715756886047
0.0396976067244331
-0.05493265688895547
-0.13115974175348288
0.024979505220967108
0.003155922289588648
-0.015486648159206933
-0.035240702298776544
0.02639235012406665
0.006332142483913465
-0.0019603580871018784
-0.05264749028086151
0.008394270473119315
-0.014617936560570947
0.0034269329015707718
-0.042723792279094404
-0.030336394553615108
0.004363797398474167
0.057770446769952924
0.05403587519201458
0.02733759957309938
0.058096626730961824
-0.022026233402501635
0.03251694086675667
0.005370316956936647
-0.007389290893092774
0.007555203926557535
0.05777703249997036
0.01648167645366036
0.005453482221128966
0.005713200195477039
-0.022694111243181707
-0.0016981355247330397
-0.036764833171184674
-0.0014689690470087648
-0.009916709253442155
0.021421259402913766
-0.026129032732787286
0.03911076413348803
0.04850829979849374
-0.014858912272632887
-0.005224775591225331
-0.019600406658912817
-0.007610726394903604
-0.06485271830521407
-0.05717815142461319
0.010705202633795248
0.009451509787277301
0.0033163337416196605
-0.011396582520815296
-0.02641737244009774
-0.03698529793678332
-0.06199970506979026
-0.00816069561882772
-0.05071149723020491
-0.06425933818327506
-0.02481107679769783
-0.011065365471828587
0.014910747794521593
-0.020522053353580864
0.004543342552582199
0.027645301869145416
-0.01529648561911512
-0.011446891772791706
-0.017955314649787134
-0.029275448562226112
0.05705103967339833
0.05279702106654822
-0.006536760233561914
0.033925486504108836
-0.012784442528652778
0.13516821605534882
0.02400031200821298
-0.007815058509778702
0.039644828028486664
0.04271903062573766
0.0807522458711651
0.022460718074828134
-0.011448188030657822
0.036982055910590304
0.02996515805286303
-0.0014007781412950294
0.037740398806430514
-0.013037806400780953
0.05435108568914846
0.02996728362284175
-0.05992919394354052
-0.054230195089324605
-0.011612163220600283
0.0546220068586962
0.07430178104522155
-0.09885738153918576
-0.13138130376880042
-0.007980101418504798
0.08076894673734653
0.0025702587276454905
0.0211386573767717
0.054664545921051876
-0.1255874803672095
-0.017352359549120094
-0.12002797863040943
-0.08739376183779006
-0.009609896809512646
0.0032777712509545354
0.03888726308832466
-0.018455124299786588
-0.0015834115475942508
0.025564886607378448
0.028030751099456894
-0.05617990511627765
0.025763894741929604
0.022919510191142387
-0.056445678280064075
-0.003492320414970027
0.01683519820531752
0.028888860120437225
0.0216243542508316
-0.048023635568651996
-0.010646620073031774
0.0010896645652137527
0.002112746537420872
0.02323815482547231
0.059492545722360415
-0.07891033615917412
0.016677018315220282
-0.0028594745589956773
-0.0376372545061258
0.012807387646301018
0.04196519635772541
0.04505603506597688
0.04310133083935708
-0.00522864559146698
0.0025499380407326675
-0.0013078370086262497
0.012749064552660888
-0.028096170434247898
-0.052400857720175595
-0.007999142195805721
-0.021167529146310315
-0.016115618533465836
0.01875647363359728
0.048191307291227926
0.0012967851207640788
-0.012516637210526472
0.018279903218225264
-0.024155389566526197
-0.05492177034708084
-0.019009503033053127
0.11123898338141233
0.08487159085415531
0.016115151936654547
-0.16421178207895698
-0.12667512600199488
0.09150318544239065
0.038487974518974344
0.05567681893639442
-0.08313681023325607
0.02961455512071965
0.02617411951600861
-0.007796593124591496
-0.014903733508724717
0.010650297337231588
0.06400408764757108
-0.01541280895243337
-0.02087053771404933
0.0036969483711169504
-0.043609284635325936
0.018763223635607097
0.026740522492032723
0.05637663708952507
-0.024316257755028263
-0.014260361700734869
-0.014755401440180177
0.05694416238106041
0.06995312709048936
-0.037121713033675625
-0.01326489568980472
0.03127915188831384
0.015985840669938634
-0.0032526721976192186
-0.013076729721090823
-0.03511727578505419
-0.023756206324900633
0.016854980766378203
-0.037218612270742954
7.194945824468003e-05
0.0018401963322235866
0.006772811695648114
0.078213275655855
-0.008608722817114738
-0.004394794544556707
-0.015788151766226718
-0.03066425283334661
-0.08906891407605855
-0.016547698910341434
-0.004711825154764714
-0.010940414278184584
0.03245201008276809
0.030604991791858924
-0.0020686336126707933
-0.003652849025665177
0.021754582510949347
0.044756837644614175
0.023578013020853314
0.002540488261549625
-0.004010270611356407
-0.007634236225070883
0.022166252780387325
0.025552508970825605
-0.06206860216037378
0.017959834559507892
-0.025959906611135713
-0.017787457914554865
0.018650443488369636
0.012422246030206944
-0.01689770712096834
0.006865032068317843
0.014091713209785887
-0.023651383229987135
-0.010230259147381321
-0.024670367084290983
-0.11576699952499628
-0.016950040952100114
0.016892087442697937
0.022383280899036986
-0.057441949501509194
-0.030612852199668847
0.027389223139535148
0.0007545132255850418
-0.011219750395136476
0.02481351916563528
0.006267666955226266
0.05160543864190048
0.16508891571138992
0.01472783666312433
0.004921870992501694
0.016257731766179406
0.038504743822083444
0.008020887532517104
0.017029407405545094
0.026740264318431187
0.021769484517405287
-0.13352573921003266
-0.002797403015145019
0.020522152544854812
-0.018120429011839138
0.030263759034215635
0.009145120528105143
-0.01667869550881152
-0.08463374645079974
-0.01065526869171032
0.006513345922092789
0.026487642924762276
-0.016092854569071773
0.013729353183397726
-0.008498454799703481
-0.025267936669146934
0.04723328932060331
-0.020892874584268008
-0.07545501008114533
0.028647699026873398
-0.02247968618090581
0.003392990469561289
-0.030668901453665007
-0.012442476824153054
-0.01646824479717536
0.011447487196901189
-0.04795906333031766
-0.0324965722648451
0.0021565658907317887
0.0029364944144142924
-0.06374939718999545
0.02968125853141434
0.09310580665892176
-0.009179987348702526
-0.017057003581642936
-0.01971893544878925
-0.007969248257409026
-0.027647420817456858
-0.0038271707364946578
-0.022998021796452016
0.019976979003440826
0.006254852409426059
0.006582229588946785
-0.02313866166538834
-0.008423862385809368
-0.0010143178656355418
0.10446953322129102
0.08484134154287426
-0.021213549532923624
-0.02607092963326047
0.018462896284078125
0.04398657204892097
-0.00519920513380149
-0.024843321766775676
-0.03846699529770603
-0.024736993607310593
-0.03560194400775996
0.04156006822800277
0.04987200109164464
0.029786441813524953
-0.032523371250774646
-0.02634873227708826
0.17900311620836834
0.07756177363874167
-0.04627653773827378
0.028705316301183254
0.006364912569912895
-0.029616641672871064
-0.03082007697228026
-0.019995361262806575
0.025716179701255695
-0.010088371484988121
-0.005315229273364547
0.11452115222857083
0.0034599549897702275
-0.0029999646435748596
-0.010627807211065663
-0.047998873332776644
0.024135812010224262
-0.001351256479998004
0.01375157969582589
-0.09730903043028974
-0.06641587731105292
-0.017788090752026676
-0.020609442914278665
-0.010562734609244548
-0.0027391969327285304
0.018014666831863486
-0.0065816112131437425
0.0184627249052601
0.016987144650534334
-0.00012624815229742603
-0.0008249465088148696
-0.01659993549886732
0.0041980188186939455
-0.022939504755625242
0.004091077949216145
-0.009058742837439822
0.0024100613606878904
-0.003774401356028796
-0.006576560229674556
-0.12323540876923354
-0.07988411433019568
0.03514805717089543
0.026135466826059217
-0.02801176615987045
0.0764648632783731
0.09163536038779121
-0.054394039916447326
-0.03377179636289454
-0.031151372895229422
-0.015081723172964962
0.0007340274684595323
0.04237643466361706
0.016610443581379933
-0.04860179531993369
0.002855053663002814
0.006108847203660842
-0.024358241963838536
0.04825643962561147
0.0020359962931699445
-0.008757565403005879
0.0067414177629754515
0.04494571069846317
0.0005968275310401923
0.018793088857819586
-0.006504842263611007
0.032106915167440575
0.08252514582472796
0.025737694998142574
0.010061406651360487
-0.03131276360487311
0.004455511898623652
-0.036730882535192265
0.0014286693026395359
0.030811672997952885
0.005529491202241802
0.027816460886464684
-0.006778584574082868
0.028770888328028932
-0.02362195322645622
0.03826902667580272
0.008264487584681563
0.01353315477712865
-0.011194444061076754
-0.028223449923631853
-0.012118366182351443
-0.05678699842517815
-0.03189763966362129
0.03460424388016153
-0.01266865320653777
-0.03310779362771683
-0.007008716758719331
0.0022933210754559805
0.0021735742427758274
0.026704258014087223
0.03124927578754545
0.03571821521516812
-0.0033733026042425318
0.014533110371227573
-0.011099138938454182
-0.047094325141516166
-0.06943016375378915
-0.02241898550291218
0.03167053251821134
0.010813348391769392
-0.036300973181243645
0.015708541971409317
-0.018805274895549468
0.007621881821858493
-0.027280357736374408
0.060482755346468776
0.020168458671731608
-0.0005284706897463215
-0.08400588212054583
-0.14310775582085386
0.06175324165892401
0.0010196804285527907
-0.00293699516174306
0.02319794462776619
0.024683965070117428
-0.03963492412046106
-0.0651431047014265
-0.025043725493407883
0.026247487900282414
-0.03366819484256755
-0.0072451753147794225
-0.0017773369051759418
-0.0007184683909767637
0.029197206516120212
0.04196783719850838
0.01104667844706635
-0.014429120409949474
0.033139974923091516
0.11821418760771427
0.0478118633656448
0.011608492451302518
-0.008154828412488898
-0.0020669124111092835
-0.0032913785866263688
-0.026092070785090102
0.005075708558077848
0.027015510504252858
-0.03361103810924439
-0.02550642336153293
0.03580198072087091
0.020311983092258484
0.013257598642080747
-0.01286062858894533
0.10000735831344622
0.051679353489844045
-0.003032973279635697
-0.014861901895546144
-0.03756891004930719
-0.005338361073864298
-0.016563546488425097
-0.02977783057742003
-0.07882351746894221
-0.02426201762298451
0.00957631665907519
0.020315041544442296
0.016647111307461476
0.004812379431191373
-0.001563309260131555
-0.017747046712054317
0.026653080549234494
-0.004598250976828387
-0.03470012679056575
-0.0006238510665993398
0.037027017500360526
-0.01759151579404178
0.007851295741096586
-0.024015727171764898
0.007277038530798425
0.003273311214048665
0.03953134991067017
-0.04572649773754278
-0.018663321850239046
0.04647763415985727
-0.009104884742568733
0.04489362597469184
-0.009058904344516316
-0.02692211724122291
-0.03434148868789515
0.0054460364055424456
0.005128702963384741
-0.1151342637190552
-0.014976757065769876
0.014124571132793756
0.01638737366444576
0.04203697143180706
0.010233036710598432
0.0018910221801606442
0.05342589560381329
0.02821883079935696
-0.010036599849226892
-0.047348096969725646
-0.028796776637589942
0.0031078498322583375
-0.0195538774059762
0.025446530277828266
0.05732206076110211
0.01112134913871324
-0.054526761061311387
-0.06829906062086623
-0.07930858207720749
0.014759325872117346
-0.041341923467746525
0.14419978510479317
0.0718308543234544
0.0035504459598526437
0.04435009752054185
-0.016201630276882546
0.029052886238184566
0.03821226038531334
0.024298579904946823
-0.07739301832186721
0.12797362140157073
0.06574034561440674
-0.01956609343094502
0.021833608832437665
-0.007644710331746087
-0.10129025369347816
-0.0004663132752023919
-0.0506623390015488
-0.13745260310690383
-0.038889632494261514
-0.0007113046357007721
0.027735625929933252
0.008155996361518723
-0.027088209099319624
-0.00022933539926888252
0.014005906102920794
0.023385192186921228
-0.014180957474519484
-0.05900203583884642
-0.027371851085763548
0.014550540118872742
0.0035468223327124048
-0.018601553665797094
0.009270484750611431
0.021205800952253225
0.03384761431959235
0.02177209117142473
-0.0007106660866023765
0.032672695201198046
-0.011355592153695982
-0.014648966208298775
0.029287484400801842
0.06916415377717298
0.0006225842543225681
-0.0006324279721741747
-0.03153280939067308
-0.04658470877970254
0.06272132677017585
0.02879718504850887
-0.03719350720776398
-0.06902880759245109
-0.06163598894306011
-0.01826049359320841
0.03478232280362663
-0.016849307864990195
0.023082308129980023
-0.019831752085265286
-0.015785689566638467
0.020721674796909846
-0.0028419342407979623
-0.0026220223986834984
-0.0015769361226715308
-0.012917699121598387
0.030720185053309975
0.03058233733082718
-0.006356713730287421
0.000524104167655319
0.01000270734565503
0.05129710047162386
0.0005617207795152808
-0.008184262657937138
-0.0018601143187974068
0.006102373734286968
-0.014022055651695212
-0.01958994967736244
0.007987225416817862
0.042788108835681994
0.03492561185160179
0.043440057055216676
-0.0340376971219881
-0.03748884190298891
-0.01162648979261078
0.005077738678626939
-0.06089811100300898
-0.02003786873224921
-0.006940540190633396
-0.02703862795633218
0.01789159808008158
-0.023189432395005566
-0.028959017118120142
-0.012672478625897548
0.060828804493610805
0.01782846505395954
0.04030155465506019
-0.003840734717223472
0.015295284047663891
0.008941314178976943
0.015857633882650143
0.0166925074003718
0.030986959137059854
-0.012313693273543678
0.05370648808339374
0.07143842110546336
-0.003996695902414621
-0.0016194356518098253
-0.006867174068894185
0.022985051929717205
-0.024036318631230034
-0.00406439733261497
-0.010029430426656058
-8.951384719073458e-05
0.01128054977005155
0.013589540911459298
-0.02689002470472927
-0.11515661988139624
-0.001847054631389464
0.0056656662679547476
0.014785100103010242
-0.02053509341298885
0.021837552919653083
-0.01465327084008338
-0.011936381246815852
0.005355993730287549
0.02745594738064888
-0.0057588227002874585
0.011928491577657303
-0.022161755942657176
0.01641814220724244
-0.11664958994930799
-0.028716806124507777
-0.006528003271924184
0.0037635857430393057
0.0034173127683604803
0.10804381747131922
-0.11234914398219263
-0.14195546239915982
0.016917937787026254
-0.002919972244237449
0.03338640730296793
0.004278170879935343
-0.03159254831514991
0.00028478607603240176
0.16608215901803253
0.12599675385579978
-0.10215445100739812
-0.05753607971453527
0.02515805345869389
-0.056314061576657075
-0.001176314878386729
0.005202883347364153
0.0434496610869191
0.02224754977283858
-0.028043210655814655
-0.036835205523286355
0.06351047147552696
0.02868389201874078
-0.0029001619470113414
0.0034821357223501145
0.024582131079869753
0.04149328688107
0.025789342226555018
0.006344743268083614
-0.01980517943398565
-0.03140884892726436
0.026668911126065356
0.01140679765328537
-0.0025337900449173443
-0.04065291944309273
0.011263135265803062
0.034948155371654396
0.0011645740591990225
-0.0010894986349640778
0.020831229974481936
-0.017454523810014853
0.028099293703349303
-0.07996543026339369
-0.12100849361259557
-0.021706003568783702
-0.013195534213739441
0.019264357026552815
0.019798881125070934
0.053357085317530764
0.029974474408812016
0.042018872531645164
0.009456517532210783
0.024929162286921075
-0.03050623894638711
0.011603520199046041
0.0273585151888351
0.021337258187786687
-0.027984515488903298
-0.011905821314471847
-0.023098477398722027
-0.030075805959302666
-0.026332857096870797
-0.028750517685310707
-0.016240386387247212
0.031603356965349404
-0.035917574279329546
-0.07146417816132267
-0.010108019847083587
-0.0012465198729744878
0.022172816635275247
0.03791272792434284
0.03933147192091991
-0.024870388657614664
-0.01158495839998205
-0.0569914051733417
0.08901927514202225
0.13065787486881475
-0.04665688973702356
0.002238427127334864
0.0026568842178591604
-0.00791372028416787
-0.02392715197119645
0.02476074403425005
0.0045316314518403875
-0.01649296863929671
0.044285378518173005
-0.007429163397813684
-0.022439750746319518
0.004256030034545143
0.032949537721410474
-0.007548968604157356
-0.051164366736571223
0.031301022668817194
-0.015893303165116036
-0.05458849677820439
-0.005443831215221642
0.11034994735781832
0.0216974272799344
-0.018544930178987333
-0.02035687502552286
-0.015680686805257187
-0.025179493446378477
0.06208043628141139
0.0001521910210711843
-0.13308134344720704
-0.0015452228289949163
0.008503453158123783
-0.005520949730947484
0.012593863239569448
0.029021554530451958
0.03423184716180327
0.0005826399976610031
-0.05296222252825689
-0.028781295412139352
0.017185557888702355
-0.022989758772011586
0.0022181400390284
-0.022234695416371
0.05023850669337834
0.051959953324248125
-0.012391970501654971
0.007557755969045611
-0.02676682839362163
-0.0038108806257914577
0.018858729821861125
0.0186702010602815
-0.03427208950615724
0.01662665655392337
-0.01153059724901652
0.0497381821127487
0.10100346608640833
-0.009823079856903005
0.022775745032925853
-0.0355680882702021
-0.018615503204692647
-0.04868183219543282
-0.049699962965010946
-0.012823209752430263
0.026758308789636545
0.005750289038599279
-0.03681790212710648
-0.05484219485113329
0.03205828091979365
-0.007525047434391786
-0.008330097587748275
-0.010125375839483945
-0.011775322045548564
-0.009721651111882916
-0.002978381088699705
-0.007183089925735368
-0.03668057756522993
0.05081187458698697
0.08699387486527992
0.007920841496413361
-0.0318857087089562
-0.02777535158524032
0.009437281528142475
0.04813023206242559
-0.03793194942636722
0.002888893440365139
-0.05080276028969857
-0.04484023551165368
0.02161901061225445
-0.006240734695365667
-0.022781239533862505
0.0007679421276353997
0.02863149997016715
-0.02187386458789548
0.009615944492148362
0.0438691554460129
0.024918567026372837
-0.01897603944735687
0.018781063226238452
-0.037650357428351704
-0.005191248968182087
0.07955031337505601
0.024997267371646984
0.004481192295695392
0.052775013258474966
-0.017601942963830948
0.014091377450007832
0.006906428484126243
-0.012676765645218127
-0.023457739152967855
-0.03233441253070278
0.010378259931581734
-0.022848922350131206
0.009309826304870462
0.061025933148164194
0.05906124503459391
0.03919745363619642
-0.017567454540186947
-0.02498310820933651
-0.009283998079821845
-0.021188268236387277
-0.0066713653989463224
0.022278139684992
-0.04227426525120463
0.009107827755056749
-0.04169302792339671
-0.054059437313877225
-0.04085405027154607
0.0018262562319003694
-0.018731351907517745
-0.017253192970743635
-0.019794879591923924
-0.0023996933678438414
-0.05417929821015109
0.07828616689554285
0.03237505444625691
0.013926224839737272
0.011708245766519338
0.03161906963305304
-0.030054775931611693
-0.041224722304962234
0.003283515996088695
0.041310408107382436
-0.015710408089703965
-0.004756900160754609
0.13150368830197962
0.09352791444507406
0.054033491778072415
-0.05669654833754437
-0.040760408682816655
0.006884890495592701
-0.014078625074761405
-0.01846558921489994
-0.01533618294701877
-0.007250235197416985
-0.01590324435459093
0.020717579637612157
-0.01847001636853055
0.03189333186300694
0.018485044953377654
0.004287530463572311
0.011928363056451683
0.005142334518576177
-0.12851886430837867
-0.06695408888511424
-0.006545934373403385
-0.02300473058095602
-0.012845082439586068
-0.021046469719592557
-0.02435892239393626
-0.03187963554791472
-0.027007166406755354
-0.012829530940810324
0.020021237739384343
0.044796889745443894
0.16141118396481133
-0.007572453128112576
-0.016900992745224535
0.006317291129737184
-0.00945644537360592
-0.0712193355381547
-0.015250192839431928
0.025531624440903875
-0.0017325570149715772
0.0006816184214694318
0.02732802033701933
-0.02067105086675371
0.0016656548353842194
-0.010273214575733635
0.03209513152822517
0.010213075346489539
-0.03765692940483456
-0.025026692540795946
0.0007872289287327304
-0.007658429510432847
0.023941034750013405
0.026619404893041532
0.14423354662476282
0.08238720588678661
-0.013445482722769185
-0.01566741676398141
-0.021917451642677686
-0.03697035737825097
0.00793959071026904
-0.01952243375526872
0.01187832498248896
0.06058095232837652
0.018436962071332514
-0.04973647401531387
-0.11555707991121943
-0.0564996814480972
0.10043578369330472
0.022232180857812284
-4.0517223787531954e-05
-0.028459906754621424
0.019363585672666366
-0.030807225914105427
-0.012684898652998251
-0.08561096224661319
-0.021571931189651814
-0.0012679832285012443
0.02882991012846321
0.06480467838742948
-0.02917407132402444
-5.483565865870707e-05
-0.04956148746614688
-0.07783763023102146
-0.011624527552623774
-0.008330224670120784
0.013067383037630814
0.0346278361077486
0.023205092896623147
0.012673744091739679
0.047893980533166756
0.04531093304837706
0.041352839821795676
-0.05582912589046865
-0.032003767701879855
0.0005155744927026275
0.020056861641702627
-0.013625073624356355
-0.00445617315647762
-0.00723505181631738
0.04546215748949049
0.05309413020929387
0.03681098421636766
0.03457902072781547
-0.006529689541097493
-0.009755626335746087
-0.014423091516454793
-0.018480931035975076
-0.013569121988159093
0.0018195695417671754
0.05208717393532077
0.03093330187163241
-0.07965492591222177
0.033436004560559125
0.02907475104615922
-0.0032632962881750226
0.008873156873796742
0.05087679282786824
-0.04223019641834693
0.028266135776040105
-0.10149299713130729
-0.033250976422777336
-0.014201230900553571
-0.013375094922622165
0.008406625013233497
-0.019671682607205265
0.0002438682214330929
-0.026482314787201262
0.001005728627652996
0.0034661780940189375
0.032661187720649305
0.008186889899541113
0.014132064962042864
0.013752986413437855
0.0490894219188937
-0.05793084027520361
-0.02664590683594441
0.02051970592180309
-0.0051550584079760224
0.014912960138636355
-0.017787825967527572
-0.0231326990104483
0.03308163626519599
0.024229129204689736
-0.05531875056178136
-0.005212015268586653
-0.019527403044314894
-0.03501177954075742
-0.009887590972266757
-0.019358228105452017
0.03716198681049999
-0.02031642112727686
-0.05600242154171593
0.056986444693681526
0.030966740901697258
0.037709120622909195
-0.018668406290688375
0.007133794149697413
-0.008844423709243553
-0.029975656809502847
-0.0002502084030342593
0.02963602028796598
0.05705661500130326
0.033023145276115384
-0.019242445444312247
-0.017866438052362765
-0.02769280168915979
0.012710898614022853
0.02611240332177991
-0.01833408721008125
-0.11417717511606376
0.02262012719165531
-0.032996936202455134
-0.11864678938759406
-0.0044541624245156685
0.07392721343097644
0.11966112823277333
-0.03797579065125335
0.01588305080306947
0.02114678725615749
0.03676901505717308
-0.03348158306499051
-0.036660657240598166
-0.04173095595759524
0.025939828295033225
-0.049778214349703906
-0.10457728173690811
0.0029584631694809546
-0.020924479433953987
-0.01565173213583798
-0.014635648171826795
0.037594800084300564
0.029787410595164363
0.03446064466046198
-0.011951435186386687
-0.017293056961108954
-0.044758708995824306
-0.06138015257655401
0.14461493115462437
0.016842454570065925
-0.04712195611458518
0.03410754698358359
0.10338509291926264
0.20114339473064716
0.2050867070665283
0.06777255845620017
-0.047327034727905115
-0.017800441108046808
-0.011628263700508217
0.01940432490509923
0.03273306524535696
0.008420986547244871
-0.04600392870269885
-0.017375652461857207
0.019690290927593182
-0.021079513315859867
-0.024843347707456612
-0.02441833852023218
-0.10035602402855096
-0.05071100868051708
0.01394838130570289
-0.0515791995123234
-0.022846227703759176
-0.021861494446251843
-0.0010369063592106076
0.018874597790991366
0.028207458203858962
-0.028726908912062872
-0.024874129370048993
-0.00263787001515051
-0.01240507465635183
-0.019340149641485893
-0.021434287567939934
-0.0249120389041974
-0.0014030092110830228
-0.014895248331792645
-0.03385121940932344
0.007790088183745721
0.012993491009820269
-0.02641026154288135
0.04119325896382871
-0.01631174125118739
-0.02050474208716601
0.04658869928038602
0.00863834335632955
-0.014076056303503412
0.008379012866743134
0.01247714683886348
-0.019116513556456056
-0.008187127436079815
0.025888788295851506
0.01401228073001825
-0.01813937233492442
0.01856544887511171
0.027605116728947054
-0.015191348156811411
-0.030517000947112675
-0.004091096076001526
-0.053102456559611926
-0.0010134827939978677
0.015332550342748453
-0.0010384435558904123
0.0068482860474743555
0.025486107376589958
0.026053337096558674
0.02014060377691014
0.10185481537077223
0.005212491047263763
-0.017130526144031023
-0.021442584122584377
0.05994470119325897
0.04041736030824697
-0.15138643764630647
-0.021975092454563503
-7.747726781537844e-06
0.004780549188659861
0.015239471235123793
0.051774267589500954
-0.00031073658604170837
-0.030494665124800254
-0.022968217771337694
-0.005682280665588081
0.014180622400037637
-0.0025536083440922037
-0.011904486791254202
-0.015468255163449874
-0.030547146933211797
-0.017492227681517133
-0.010174515006952057
0.027920022348364548
0.07037225449471887
0.043546281297295354
-0.08088668727359141
-0.0763404866124485
-0.0026636769871939536
0.01744349482047426
0.015411545800020122
0.02089856286143159
-0.024762152098938107
0.042732374366454606
0.021087806244297312
0.04993803487883147
0.017884761078996916
-0.004089210694065731
0.002468969063268362
-0.01498400343554994
-0.01043813094314077
0.003812638213308405
-0.022453884472655863
0.035130326368364585
0.06148884341962149
0.0632430244898433
-0.006991224842227618
-0.00995994563463048
-0.00965968445900619
0.022774320885939732
-0.05027876677209481
-0.18862354078512897
-0.04419426023955858
0.01061646282074976
-0.014336802171189145
-0.011350339719708339
-0.02050766765898423
0.0025004063573228342
0.022270237676978517
-0.007190933110406958
-0.0036170568980566442
0.016194392794023793
-0.00436227947136171
-0.07024722617955477
-0.005731384541671404
-0.019550358872402696
-0.02219355470119802
0.0191469619966577
0.08820530657447627
0.12256964625319057
0.13438606421914293
-0.09522476522798949
-0.09273677807969288
0.01129039039408824
-0.017757807929576385
-0.03911376893256673
0.058702246386619625
0.1501470995624184
-0.016478979046594587
-0.07991254796661207
0.00739364542176305
0.019791169969296276
-0.006122202211789108
-0.00931254573692148
0.020418206617380644
-0.0021291555914797634
0.019909232593252325
0.04312138831280195
0.03218229811549414
-0.0031751158797967555
-0.01836836895115965
-0.015206790713681504
0.010350892418398058
-0.04264653451666633
0.0002908800391813345
0.03859904413742984
-0.009567295302274756
-0.05248606412257871
0.0015144683723356056
0.0004548444901056191
-0.004130869495068005
0.018109220219433363
-0.012833385938992907
-0.037702176502841654
-0.05289941158539533
-0.02269015764568064
0.0002754194397640583
0.07130008753220954
0.019105588289625112
0.026730037634200163
0.029439697646663057
0.016689525854862802
-0.015859027636249214
-0.037002553000135975
0.009821892703230002
-0.009392679781834291
-0.028221019842498588
0.020734203877519817
0.01776742263947922
-0.04641477868665414
0.032476724271866174
0.002211716499469005
-0.05575447551346378
-0.04149109498349892
-0.06547228061080486
0.007313303932646486
0.057237580261916894
0.00967317108983126
0.06273023976960573
0.014912358728255175
-0.015234498245180413
0.017324768785877482
0.022762685084830668
0.009572183226128529
-0.029717709394713444
-0.029433931441468712
-0.01065816750517431
-0.019959768884671592
-0.009152635488679258
-0.0009483614801558062
0.0013113193811645975
