0
0.0351350048697285
-0.03667974707411783
-0.0067079157215973175
0.05244962284171013
-0.0020870426184971163
-0.04023351800929345
0.014919012430177238
0.01960086509257536
-0.09037968946270321
-0.027207988162468652
0.018830040997659274
0.09872089909911189
0.07390536392831033
0.032117875977368225
-0.029611097046400567
0.01690933182990247
-0.01127193835341422
-0.027260378630427413
0.025417108792683264
-0.016353125262693235
-0.04811660055873642
0.000984510500359556
-0.014189651014320577
0.005966081081184507
0.11582120519378405
-0.0024530764064107555
-0.04581752685563446
-0.10289532695819474
-0.028828288315048484
0.02493411694703826
-0.056252974584543314
0.03380360727174444
0.022458933993839674
-0.04234175548793289
0.02234331988890208
-0.0431327459165074
0.00805505985065113
-0.011517649752331402
-0.021156238415093398
-0.040802704785774996
0.16040635957232716
0.07553272203904553
-0.009101480487265055
0.02839405886568076
-0.008795567566266406
-0.01003033740381358
0.0652299473536606
0.20067944949999872
0.005290393485908181
-0.03419061715379254
0.006117985987674713
0.07402200302431859
0.0005787710530414636
-0.042439065014776074
0.0019707328258797346
-0.04179571616984172
-0.041371813591435644
-0.014086087066787227
-0.0037067485084879576
0.009087623477481793
-0.08159828020825126
-0.04789034241499476
-0.05038017112554745
-0.018742695451414416
-0.0017607112528865028
-0.014552891590256087
0.03892503642516042
-0.00840876825492626
-0.011406736764878512
-0.027133667298830433
0.00032644330528229103
0.024707191972995972
0.00019875544914222586
-0.017003092505019208
-0.03064563865951424
0.014676206523539265
0.07345830183533492
-0.10108367801622113
-0.04909196654819604
0.027287301612529506
0.12402859021866992
0.0016051629182286342
0.01583568491329715
0.04997842030136961
-0.004986555082266115
-0.07735979490133023
-0.025107379823390986
0.03004063127249981
0.01009681049579697
-0.02227969495821215
-0.16928374645433997
0.004170528293307205
0.0023371395942903645
0.0047992470673613825
-0.027381628189710367
0.02255299694306368
0.08580729767541864
0.015551551561842422
0.006657135514532851
-0.040906655985005744
0.0036491745133282573
0.03753003827867997
0.02359292294177322
0.011782155033124948
0.09096796203999197
-0.07555826845791468
-0.009637793879463806
0.01816299107232737
0.005849473480626409
0.032009127844781216
0.0038829212628612958
0.010751244246048217
-0.03274409949466851
-0.004413998191324919
9.84945718484312e-05
-0.03160392692057207
0.012589687868349
0.029533635590010283
-0.03639871423160614
-0.040906603612412475
-0.03205344895697089
-0.011602674158862443
-0.011580699332116752
-0.013548192381627282
0.002019734961526272
0.1407642029744544
0.08421116706571097
-5.65509618384875e-05
0.005915302236902054
-0.04751466868047286
-0.024472501738746436
-0.03621349636665059
-0.018975712919784844
-0.016731028377824107
0.01883924573578967
-0.021675745796140962
0.01640194369299789
-0.016224479946929788
0.0426613160428067
-0.00958343386555727
-0.09921034071122785
0.024463782269681152
0.051833913679760146
-0.03406239872326119
0.003850497248312959
-0.031020061844290635
0.01865766124535412
0.11961261933811583
0.044760555514039
-0.0471808528480842
-0.025270815106558105
0.044660289004803407
-0.0019040225278323674
0.010693834243790175
-0.008952855240470617
-0.03293450000842882
-0.0022372908716879678
0.003806847349394894
-0.01720579664695211
-0.017105649894828164
-0.013725665548301047
-0.011592160684500407
0.05528372574381276
-0.07233722116230734
-0.06969489435615975
0.036737094754186184
-0.01115611438913558
-0.025013110380470358
0.028185369810028622
-0.002400597487243438
-0.02113356022996347
-0.03831745543384958
0.021172231838190385
0.0302615366927275
-0.02913929054054686
0.03552534855584767
0.02702694348391254
0.031089471322426617
0.022549828608101397
0.0046428657010138055
-0.002281470439850468
-0.005420604448768823
1.6620452315585746e-05
0.02898100579411895
0.09242682745361079
-0.10212230003755308
-0.033414860172737613
-0.0005055379189385807
0.10136669870309695
0.03265174993678453
-0.003925085816468768
-0.004262143044424667
0.041094425464664366
-0.049442711889240015
-0.10053735703694529
-0.025236003948561073
-0.007768748112560107
0.0016023326691532963
0.04441606729237479
-0.019280605342054263
-0.16816862438493022
-0.03233129373203611
0.003975273510129904
0.0247581849387126
0.03958622326184823
-0.001038644661002552
0.05174908606417851
0.02759441539132065
-0.01709995836907805
0.02219401552994616
0.01878470356565765
-0.004712983782007145
0.08472066907948762
0.003959387864878693
0.009039621173769524
-0.012135935213644684
0.07305749480000508
0.041841000176853355
0.03586362155237676
-0.04422526708795964
-0.038527559965357644
0.04612711467888545
0.0049094353484016515
-0.11859834114664487
-0.10015725047747875
0.08428067497540681
-0.00820889549340954
0.007046905860238275
0.06719202440864314
0.045641586936888794
0.02349471277819902
0.009711993558011105
0.004057178746340759
-0.032549329622034745
-0.0043658156228310475
-0.0011131436244643856
-0.0036847546620450877
-0.0860896409836763
-0.06493148419828436
0.057081037689841324
0.0026349922306027197
-0.03784841610264105
-0.012024993108356866
-0.029925902600242336
0.007458342788623753
-0.039976624757045574
0.02309363857100953
-0.0901896905417178
-0.11864061456765002
0.05792833922473606
-0.019835001027801433
0.030792453109098415
0.010371751846834903
0.02406735567273413
-0.01040529266082402
0.06215689679061217
0.025915398925908033
0.10133877562770635
0.07733656999013908
0.031512355441548616
-0.014877707535975124
0.02290089406431676
0.009677318640602
-0.05362072538707986
-0.2776052017373384
-0.00953874731013868
0.024694309704071327
-0.07123900998306436
0.0452286838936961
0.04107302794673631
0.03595528780281416
0.012605551189322531
-0.015901791925221214
0.00582430381405989
0.056384946442399476
0.03767449505817743
0.000960516301002668
0.007326295227178773
0.04652509106579526
0.031858983602960314
-0.026158096836344645
0.0614126709619925
-0.024792721474820152
0.0045048464278348065
-0.024063018424985236
0.03610936769101734
-0.050123480430137465
0.06526127242578762
0.004401160237291863
-0.03284966469662629
0.033721906511302635
0.02479399806651285
-0.07097201451953351
-0.13422835828129195
0.00811719849350628
-0.08820604026527033
-0.04203595018269202
-0.04034846726646696
0.01192860651717274
0.013415893061016652
0.07053658942665952
0.025920503516258544
0.037955601399330255
-0.06514681047674031
0.05055777074704133
0.026691586358079816
-0.00601273812669707
-0.0032818564456723737
-0.019810289189205677
0.04614355060093078
0.002535210338192006
-0.005793237272484754
0.003108117817240805
0.008545978508871574
-0.06113555497834822
0.0023053571341597394
0.01038302140163404
-0.01828835510837026
0.025224360981384347
0.016083988941034844
0.017752155691596633
-0.016565284657142108
-0.014920601368202304
0.046388482604732675
0.05031849916074164
0.0013884539809987198
0.00846103572886001
0.014122624760626423
0.01021363745666331
-0.041955797917798486
-0.027983675946304874
0.006702195540470947
0.027778760130779793
-0.02269993078557502
-0.010304890367975165
-0.022124739859074077
0.056657184651887925
0.050369634511834474
0.007244875347821115
0.019735462351327563
0.07158258135982334
0.059879645624163605
0.007245501568132217
-0.04887732246019965
0.01809192260355434
-0.04806564713699191
-0.10190035686523433
0.00634170820381083
-0.006265376781525864
-0.053300435906430715
-0.0411412350779471
0.0226915163303197
-0.009926062673845009
0.02018836640150542
0.0062991557430019185
-0.001869979122090102
0.016011375476068693
-0.0012329167172767104
-0.03568026329048556
0.03529285742638386
-0.06637897031100473
-0.07209643584230686
0.019193533687095057
0.02750011322240748
-0.03076175180704938
0.12857826598014363
0.10331464120344543
-0.027933322500601123
-0.03249123753995346
-0.07146484336579434
-0.006255592140590017
-0.014688824680180913
-0.01597533406968364
0.015296215587818867
0.04549468170014708
0.01729657052404074
0.0032083908330812227
-0.009375010709805228
0.028569863229796794
-0.06938779768734057
-0.10494249713492845
-0.010736669409369862
0.015639916543210935
0.008488587382604695
-0.019019423589189302
-0.008306952119239425
-0.008178450904925904
0.0016176875995491348
0.022352471128588812
-0.001299332437641157
-0.011991918782938146
0.018739088556733334
-0.039387369123492465
-0.03331627634341344
0.0005383281793224764
-0.020530087238918845
0.004334969477653699
-0.0020272312120852183
0.011808074850113544
-0.054297850155058766
0.004604155168287709
0.0821867745682085
0.001241058046954424
-0.046425530124247175
0.036526001034218075
0.09894329688981723
0.045748466897732126
-0.025001943523731678
-0.03162079071389948
0.02104953245998531
0.024443474781769836
-0.024608631564738248
-0.031042341360849685
-0.038808635986504796
0.03612830886559305
0.002646155985391111
0.05896002826189866
0.06154458771457406
-0.05332713430505655
0.021359955149445362
-0.010572705384096293
0.03969787933474669
-0.0335851662657814
0.002888411369810076
-0.00030386646333545363
0.058753328871753246
0.0656709752578709
0.025836541323137587
0.08920519925240461
-0.016333957838685447
-0.007636170452442288
-0.0057550379961768495
-0.009490795556295138
-0.01934856959377032
-0.03883914210512179
-0.001065072955080214
0.01734199630554602
-0.013503371985371371
-0.04667623886861222
-0.004729262241489768
-0.02423392659470915
0.01077810502893067
-0.03308409190448347
-0.013647997442232919
-0.005003658372964354
-0.004063794978519513
-0.025282649049865814
-0.005081435478113591
-0.005067678268161358
0.013901611072772163
-0.04432422977997246
-0.02336649541074068
-0.04619239917337524
0.0351116400922779
-0.020559811359638983
-0.06816161457016151
-0.001263402423370474
0.16212163861928233
0.05293006316482381
-0.104164712551814
-0.17068475670949762
0.19159746876927183
0.011923820885261614
0.03221104373599812
0.07761526621888051
0.04389333251486201
-0.025176650703855313
-0.1642008305787579
0.08887838157980227
0.003881278085932893
-0.0011158038970859863
-0.0471933722639161
0.0008691307609508821
0.006904696790002638
0.05067662070333663
0.04310669853058763
0.0046939703457363645
-0.0492825208948185
-0.030383387757917633
-0.06204321897634551
-0.031580089471925685
-0.009549202787323062
0.003912915057776698
-0.00442902482146614
0.04758757537296508
-0.028261969018770823
-0.006995189458839143
-0.04322517944346394
-0.03298265853988737
-0.0289186500217531
-0.003221696962586789
0.02109918214778436
0.05423709434169611
0.024322846302005104
-0.052200040552579104
-0.004288167569444764
0.016422418308718417
0.011378721449516665
-0.005151370118595176
0.19241744332952046
0.05042087919397474
-0.04818378319785182
0.06113222319403145
-0.004261868727516236
0.016556589309697813
-0.05047688303571606
-0.06535449579724914
-0.08132692699896611
0.005751481242318338
0.013515951895091777
-0.030941506895353275
-0.003963453642508012
0.05183774061100958
0.02298366446275179
-0.0056818700472770715
-0.020797527623353962
-0.0024958013261715106
0.01033065073969489
0.02491182838832026
0.006785450069631051
-0.027929760431513354
0.019651889673998498
0.00816747694808312
0.0019100836196693893
-0.02086202241789781
0.049048334904957684
0.03254422379729174
0.0025979836280331996
-0.012111378378327473
0.006966227597140059
-0.04155964314251686
-0.10260107847018346
0.039633639701883994
-0.028557567173376187
-0.09989352265343861
0.06297888471263367
0.09640900937613263
-0.03751545236063398
-0.026056451873938694
-0.0622718147669266
0.07873905019215757
0.010324566914547714
-0.012547014259779698
0.048185379960934624
0.04757616048142422
0.033844038244135094
-0.04295098290008728
-0.053645694497643
0.0011648035912162882
0.0329863402468004
0.05057542921026658
-0.036076727768490045
-0.030194755690945208
-0.0278927920153988
-0.004106505381213174
-0.0021149758569292865
0.06127185156285525
0.016737971669981123
-0.0010529041487799375
0.002999388085188013
-0.002974247321018108
-0.021912352791543133
-0.07156048511869556
-0.06675914147671516
-0.0018733188871685096
-0.019350935859024778
0.021774466175551038
0.008664132812552716
0.015614001230000169
-0.003126375645364821
0.017324537989166236
0.0001766284669582168
0.016995596101175278
0.0055405001621790856
0.03843907927462647
0.04018923971621336
0.019554582689475297
-0.015860905869022283
-0.0020854041452771964
-0.010397842057897138
-0.019414843752869292
0.008327203441253043
0.012003185485857111
0.008961546780837399
-0.00637224405490049
-0.04156027339019157
-0.05155539976418097
-0.03097917994615426
-0.006642131216141367
-0.029020295015836403
-0.018661597426261816
-0.010877512506484744
0.008777128010059317
-0.006259438026655138
0.011377018946202678
-0.03956466107102258
-0.02506316082244995
-0.04313326244197697
-0.01986346912792232
-0.006886948078215881
0.09114098002986148
-0.006786861469985456
-0.026979598137191817
0.0004085981504711815
-0.014164399474179443
-0.021026734884359466
-0.006589166268933982
0.18247976362373777
0.12787964672799831
0.05792853742272606
-0.030942334621207962
-0.02708780991784896
0.03725506990794479
-0.025437130745724575
-0.09126526548276248
-0.06992177522371514
0.015613840467418571
-0.010119673991658813
0.023189924424307493
0.16441199094013603
-0.015342521406294454
0.014159739052917831
0.04040574643379231
-0.02879376643952053
0.036254325224825676
0.039329910613055616
-0.07632545507765726
-0.0004586260443624749
0.02610608891938437
0.05959181505643486
-0.0358552872709045
-0.03500475518651829
0.00354482096982661
-0.014059414514479665
0.01147357676537051
-0.013128415760360975
-0.010812117106328506
0.04173116828326924
0.0006862618548544473
-0.03381440990613359
-0.018203272170932386
-0.0386362507754834
-0.018508981443453
-0.016463860737821603
0.014918435725419895
-0.018801983670168033
0.06732658723684028
-0.09019593464758546
-0.022798222165895863
0.02960692457755862
-0.033262353136896676
-5.495555556287506e-05
0.006476674426280456
0.004582823013636926
-0.05184647951033239
-0.03229732069330642
-0.006928426097822414
0.00966418552795013
0.001456465346329056
0.048139366828310146
0.05125852375467148
-0.01384864552830744
0.012622639291748864
-0.009509609784052537
-0.015164263344442933
-0.012296586515598699
-0.012373777370268587
-0.02657660551701596
-0.015187811176236113
0.010647759061041276
0.03744328417446056
0.06697720159120525
-0.01789414016613042
-0.04560502603956403
0.033879401302515946
0.06340760869701541
0.022731670448817416
-0.027724463975370126
0.0036732471587358944
-0.006526937218541422
0.05113354828109469
0.0487685070437602
-0.05239306867921261
0.025952069107550213
-0.025190020885931277
-0.008263792036153553
-0.002196516003508726
0.0003416270456819631
-0.007526567081493147
0.030768475693666284
-0.011225601298473931
0.015521649825836117
-0.05120241383751454
0.011410645153217292
-0.01858652003592412
-0.06406196578527089
0.007184453552831277
-0.01035193316164116
-0.018566833693212107
-0.0451732792455759
0.017255019996964487
0.01684076115250936
0.02596926649356382
-0.026558587331389636
-0.06276726767501026
0.015161478728968683
-0.026089179250016383
-0.0220920151264312
-0.010761253363602402
0.040337776218943605
0.015456526012089623
0.03247675146613168
0.04089916207831773
0.003746485527264566
-0.06227832901785854
-0.04399642716615244
-0.011973326542564163
0.013037731241599142
-0.011987320967742979
0.017893335224103493
0.06193968147243002
0.06407863131195746
0.005739894069064071
0.022422484012240992
0.02686590361960949
-0.0030304610294734553
0.0015870725739195143
0.03213930632310215
-0.005775384889788762
-0.014648798900369568
0.01109471059483736
-0.03658624555985377
0.008958492434310203
0.014530914382652443
-0.058283813735491505
-0.0034250058756225233
0.0035692016997437275
0.029156230208511148
-0.014067480286604775
-0.000887461447018953
-0.02307061242997284
-0.011947196855030784
0.03777464756216886
0.026273187876335393
-0.0329258282289463
0.005964171011070999
0.0038564438824055334
-0.10009220279735236
-0.06073683344594625
-0.02205967147959337
-0.015782581475411086
0.030898115271371245
0.03387567884314354
0.02147530668140936
-0.047122696714514356
0.01305825417304743
-0.0029434334985432614
0.17018704335260648
0.11259304750550163
-0.01451785441774376
0.006571617080358074
-0.037071671465939336
0.0030775119690972827
0.0034988302873821017
-0.067048291258794
-0.01837370041315096
-0.02432899791124769
-0.009202343292565664
-0.09512629872878707
-0.0043626342061551205
-0.02713834163114829
-0.0070796774099462206
0.001751782724177353
-0.03301400755017168
0.01606086034276864
-0.006295370459026089
-0.02711564859792802
-0.02010098580185615
-0.007880727744595266
0.017248407566957807
-0.02563561827606321
0.00859089498221746
0.03077728130181706
0.038269501990163206
0.00994182767793545
-0.02819733166157529
-0.04714168708269807
-0.004615439634417429
-0.046847752629766884
0.07893092080739735
0.1672785605768165
0.03235186119457892
0.03105937454812629
0.031187792044162183
0.006692099046726198
-0.030887544090802615
-0.02623105007633399
0.030521384140047552
0.027107493593815743
-0.02050023142375024
-0.004986401498440345
0.18351323693409397
0.01237211547924708
-0.011634733453789362
0.01722888521860054
-0.09928843661655058
-0.03995718883578985
-0.022208061468310163
-0.019276545345486545
-0.042355545827276554
-0.029847083291978622
-0.02405296096214395
0.004969214182101661
0.0010620415344921761
-0.009162160285817842
0.0025153821694357216
-0.024203083409933327
-0.009095582385670362
0.0029741550912876775
-0.010096336476654663
0.017735761146707208
0.1256558839997889
0.05682331720474921
-0.05946884607033594
-0.030364106353899786
-0.04345304016310116
0.0012236091230049214
0.026578182977769108
-0.04717870065806776
-0.05375424461235018
-0.03367087614470497
0.002462864274867252
-0.007684588136295124
-0.028124944298742637
-0.006948450909264139
-0.03708283682695991
0.02231535858426401
0.04325404000958148
-0.025272970092869922
0.07084609578843445
0.12157757049955012
-0.004160614036059301
0.0183019076551058
-0.03327775076221642
0.011502734075239227
-0.010439060003046294
-0.017681626025025036
-0.010018180224577185
0.025565033136600305
0.00784525776951654
-0.014387026005566227
-0.013125438224298729
-0.055934993832833145
0.003119544297857988
-0.012744888480254297
0.04948907672581861
0.016845323633982626
0.037816543359191684
0.046499932277770266
0.0016060833375701185
0.005422140067013651
-0.031858630743751254
0.02077707495587582
0.02842184989096674
-0.053293970227293715
-0.003181443088560259
-0.025181947036497943
-0.07212021756719493
-0.0024289673655105573
0.08318870272056016
0.059202573113076105
-0.040386307697799696
0.008668754436810724
-0.00496629883673936
0.0007361780475669205
-0.041921364607673324
-0.20124309786343123
-0.023329147208477913
0.05412642928363251
0.0012207801900325096
0.02212030527049556
-0.018946741859015383
0.026417514785844837
-0.017859581778724723
0.009514821870487501
0.012365099396968301
0.09417324995541004
-0.01054381343884708
0.016704634429371357
0.04443441615641047
0.0008929221873058174
-0.06336238087559978
-0.056131741254856954
0.006152302195894053
-0.007846100058029076
-0.026556764807371715
0.01579111898101559
-0.0064122100529319485
-0.01993691610816101
-0.0048350572466563
-0.006923769792183402
-0.04304337686440565
-0.018032094433143003
-0.012343330324246586
0.014001587619477363
0.030552820525667105
0.11625598599845052
0.015541253222923646
-0.005132863952009816
0.0030290094316256485
-0.013396529172164731
-0.0010646317981347236
-0.0025014985631537103
-0.02727772275479009
-0.0405477586686896
-0.01894827215763827
0.011750256236210276
-0.014236573099860057
0.04343451476268924
0.16284264440800822
0.07677817538361574
-0.044974543993871324
-0.09607043707232507
-0.03155960533976092
-0.0023526296071037164
-0.03402661389899182
0.0002666307338937895
0.02084223968821163
-0.010000722813273827
0.05341249725650804
0.01510762458778475
-0.012847730371055962
0.026707706412040563
-0.040820565069028966
-0.03401885481542327
-0.04359913082313087
0.020427285171812155
-0.009706611893578718
0.0018284552357954087
0.00629892194050914
-0.00813327475549276
-0.036294781157240115
0.21759634859268775
0.047478984590423275
-0.015612825831207745
-0.0020742109225155942
-0.04908225678277266
-0.051031451530669555
-0.02263953473136561
-0.015582872537502542
-0.001348804694959055
-0.016512504523712015
-0.0033522708498489678
-0.023116165193379352
-0.0074561425751673615
0.015138096049075114
0.038843085721051704
-0.01718161427180407
0.029826109368785134
0.012139821146571998
0.014185731700213214
-0.009741845328615837
0.004297146063511972
-0.01698817611322622
-0.006806071281976555
0.014943055970386586
0.04815176465619139
-0.016689650733351272
0.03400130375957944
-0.04129567616336936
-0.14061596658917008
-0.006523771545621509
-0.0141103609503372
0.024575654621794514
-0.019230049545739928
-0.028236360732143032
-0.030548042745221788
-0.0001572077818523872
0.029583216269045618
0.007275693641806686
-0.012124061364840694
-0.029613301744497725
0.08897384749325918
0.09246691202335754
0.04262912691346384
0.026591575359920377
-0.029392087579087456
0.01438412593135073
-0.00864623488539514
-0.018681435144267577
-0.013854526094270408
-0.012310084585239115
-0.02982951743605187
-0.012972392102616416
0.07295545082068684
0.03069128320560084
-0.020910684582694093
0.02520614307844768
-0.022171358145833694
-0.021206936857106257
-0.004102749888246165
-0.01827646326305653
-0.04202736634276202
-0.01969966581296229
-0.003629959979312533
-0.06226960081613635
-0.07684350562166326
0.03574893849158525
-0.011402651655783866
-0.004377889887004571
0.04453913662267201
-0.015386701339571266
0.009487292120812759
0.03236347177601886
0.0040238628937038735
0.02027802361075936
0.0900284908944505
0.09815858107996198
0.03534774268925375
-0.01788780880130577
-0.055827871686829636
0.035496534939652005
-0.05093509057203499
-0.042025290977936766
0.0027969195963062376
0.010816170341613987
-0.04060893546258713
-0.03836772805323477
0.04620643910475318
0.009137900242468588
0.06092625129916965
0.004800081315421387
0.0026280971258391397
-0.015185689355861013
-0.004443127768381557
-0.11569252832620489
-0.05339121611013277
0.015834993785991656
0.02535715018255766
-0.05504081416389101
-0.0696422425659348
0.00931758254555195
0.024274754235762194
0.018508542740111277
-6.044673602436245e-05
-0.004966017750173868
0.06248872209256202
0.020670333157476822
0.022159064965725495
-0.0007574605834845066
0.08302911463374552
0.04045773366197877
0.0024633177948148047
0.05062576108653228
0.11676834144614605
0.03560913452088066
-0.02042409075375884
-0.03027071813903406
-0.09269502673244769
-0.20155962698954946
-0.04524871319752314
0.008912788174434616
0.004427275612615015
0.023833806180650976
0.025196032709741717
-0.0037382110311107862
0.0030711088847770467
0.011606607852566366
0.02057171274220254
-0.02156954299064854
-0.01082340027748559
-0.013560416794907377
-0.01751142026765698
0.03278173692556347
-0.005432020014421426
0.014345697990398398
-0.012155683709132396
-0.01630241092483458
0.019944449644021072
-0.023528398272475052
-0.02624438381432245
-0.0001194628028261019
-0.023250848697233865
0.0377664565204471
0.0015488972892382566
-0.0005393398986590425
-0.003376665494768117
0.010569883711324578
0.004089408632082877
-9.18552096665784e-05
0.008880622110584047
0.023573760792640328
0.06537924892348147
0.002342892858732452
0.03785249897769298
0.022458051592081658
0.046758213149778155
-0.017251354130278788
-0.04788034676945221
-0.03502043800260401
-0.028314289763319338
-0.04396352805844177
-0.022023885362049328
-0.02115812797992021
0.03667847893589694
-0.034842548695552214
-0.06936207971348744
0.03794878808437173
0.009463883463143188
0.0406141533187163
-0.021060672757467563
-0.014237160154072828
-0.0039190650963425175
0.0041544826927978305
-0.02955567416596005
0.01920522263757785
0.016478292826695974
-0.015628035040898585
-0.001708846560208549
0.051612272328654715
-0.0036700845077048488
0.0040846365658265445
-0.0008042425900010574
0.0003950852234189138
-0.03246349339080544
-0.018185955706020503
0.0038816619695874813
0.07580273912356725
-0.007382153726843416
-0.10022285698184029
-0.04739810372158332
0.060805992681474595
0.0038123691584261658
0.07768282287894991
0.12206206431556638
-0.06639776556445437
0.012118667571173644
-0.009127955285754694
0.0067752873978734526
0.02027013600288049
-0.010424992533871419
-0.024264118892920645
-0.010414138455135771
-0.05933960262505598
0.14900741175116974
0.12767100696452244
-0.061928173183932025
-0.09436751422159788
-0.031204762629152526
-0.016482597988854403
0.00684299702827915
0.000785591213062049
-0.03564040331081045
0.033621650232657285
0.00519559814502852
-0.0280497191612419
0.0023612932113538728
-0.01408050804473824
-0.13964847665874555
-0.08696535766239127
0.06618396552729419
-0.003980867807257108
0.03234361014846635
-0.02602924923858671
0.019092594001311636
0.025192315811136526
0.07632268135989002
-0.01217020244755896
0.011327719187280278
0.07545981207821743
-0.016027939541152402
0.004717668570583304
5.437256670680892e-05
-0.0038931547991085703
0.0033356793065458202
-0.0031570684088288066
-0.014348203857210992
0.08938356016362395
0.07790556941198853
-0.022670269541820703
-0.004135983078931624
0.007108998193272428
0.018674906914279157
-0.04050006060151374
-0.003555710469192034
-0.03149554925385056
-0.00984420851160767
-0.05063386241782577
0.007925444678897477
-0.005099226892544691
0.01603684502483118
0.02003705928872894
-0.02945481532577925
-0.03089832164418938
0.027740287283008525
0.048756574138509264
-0.0032547905964965726
-0.0368360839424165
-0.05476893330198356
-0.032537305231839224
-0.032425857358601255
-0.012047073743350444
-0.0167227895385018
0.012052507510995705
-0.011178754919312164
-0.01597471296103876
-0.0002705260836310632
-0.04016679022313195
-0.02200534110774059
0.01773487500396926
0.028815688390444672
-0.012391736947573836
0.03353780285894442
0.0022943448996149765
0.029820490134480494
-0.027840897261228098
-0.04256053947367717
-0.0503795209590672
-0.01259703333522916
-0.08006363786557705
-0.02918877222371401
0.03615439969974406
0.030793131301946747
-0.011668287493976697
0.11212639789087361
0.04072824437309913
0.06933241365505077
0.11020822014884282
-0.05642980453798084
0.002700411120650931
-0.04491515370191078
0.11463863498051874
0.00418149486136672
-0.01164412243185674
0.004745877150499295
-0.022448270738960576
-0.00026156263652118826
0.013517638999530885
-0.010970460024783297
-0.001881524046193125
-0.045977811077256736
-0.031692481923150335
-0.016732066293601976
0.019418080072321472
0.004039505505137794
-0.005457608077509359
0.06199451880296978
0.003811409992005527
-0.024600558592446507
0.0026834927249963876
-0.00018065033188299504
-0.008439156434749672
-0.051745717981106984
-0.006285080176960647
-0.023414734604071247
0.00415727500345574
0.09286714440883481
0.03920891092895416
0.012783977684759959
0.015246664950774818
0.03776505169699059
-0.04483139995331385
0.06558803698654724
0.01265567382984233
-0.022139035374304016
-0.04469141486565345
-0.015528081520305886
-0.0030820182130615755
-0.04084434713466506
-0.04374551079369928
-0.06288485559283558
-0.02541720748517439
0.005577790182132554
0.0008978893110447576
0.006410971439346946
-0.014265896093772825
0.017772902257672647
0.009792377765717453
-0.04218754388073374
-0.034403066623720294
0.05713692218284256
-0.03988434738906649
-0.007912966116650643
0.03752719916184669
-0.03808174026980954
-0.018225723779619923
0.03367239639779043
-0.02541853245688417
-0.03377765554426117
-0.012650642844365604
0.05905563610360728
-0.012570554144671413
0.005318131276023256
-0.00456393988904299
0.15676046048475434
0.06342463388983745
-0.01131562533138427
-0.004779820427767666
-0.022169932549926444
0.026567250400216545
0.010277009476229875
0.022256785433724852
-0.0779983941438455
-0.06028130163009551
0.07688630031253346
0.03032308927078167
-0.04878838039843019
0.02853119812446967
0.024396305078441916
-0.017390725925569735
-0.008867139727981671
0.026062436907441297
-0.007731932504879274
0.009835592781190594
0.008333923894662896
-0.009019382655118773
-0.051382041846085594
0.03546124651989677
0.03909418248159375
-0.023161869108222034
0.04560017312446225
-0.010817416976884008
-0.17136070527823138
-0.039186948244315165
-0.0033353877998874367
0.02019206039004828
0.11017000853787974
-0.0038410352887197586
-0.007074437795545171
-0.057545968418661726
-0.07787017730686216
0.005640898229157728
-0.017622569088194907
-0.06724583146412012
0.1085142220939236
0.023739123749804747
0.1211244432482841
0.031173817874637428
0.008910218632055324
-0.014603678465024021
-0.023719227352271215
-0.0002321172919040306
-0.0017619841101568106
0.006106761247744615
0.012372913564389002
-0.03250523940177546
-0.13680102048663367
-0.06468450662692346
-0.04963421887422689
0.05441420404230841
0.006425270596191106
0.02500660486985067
-0.06546444843899683
0.14327454718986096
0.08068511700816043
-0.027713827596783976
-0.09870622052672315
0.002221172407319487
0.034261621239125004
-0.02197116917276838
0.011571592434164312
-0.006567287862682322
-0.01353938175275519
-0.018860664494296405
0.02828524207220808
0.00715138812579367
-0.021202759012140023
-0.03267119654734886
-0.017238942395458517
0.023025015493999698
0.042389899439061726
-0.012340819990432449
-0.037422592900446874
-0.023821311577491403
0.014607240513907651
-0.01625568757597744
0.04137847598118384
-0.0032640741775346576
0.006586943495339027
0.04999825404211331
-0.011409770100765947
0.042786015228968445
0.005910753863326179
0.09187371087813773
0.09485866980050071
-0.06628623853207272
0.004782028012739926
-0.01483758278247015
0.009268163494292032
0.02505638865985104
-0.034734339971339456
-0.0008540218979665301
0.07113212050708867
-0.21216942006974457
-0.12496032962724954
0.03378350500547414
-0.04584446815379004
0.14551105946665716
0.0681354264355411
0.017964445299336208
0.034081190056637276
-0.051538617501228776
0.017818365179440555
0.046824740833197834
0.023194548273289206
-0.0030458339513589313
0.0036123418418031955
-0.027238354599289517
-0.02807911085285742
-0.011612226797332878
-0.13661224529160593
-0.03243437739524357
0.08606479434148422
0.06887516076582213
0.045043806795740514
0.026950020034647228
-0.006085287123141534
-0.07697755020018729
-0.032843129479970735
0.024664254338468333
0.012841445661373503
0.051307853455746136
0.010808943771444977
-0.020424195031816125
-0.021308539750502797
-0.029180321188580306
0.0008558857980256045
0.02782585494657211
-0.003771622063947754
0.00021558895183711134
-0.014757006854147216
-0.016909025093781664
0.004435671874353113
-0.003036746846173025
0.017270048995623226
-0.007417652051676969
-0.00268447442164584
-0.01085486700923997
-0.0069614116853038786
-0.015483855750941055
0.0022440343138006675
-0.21561853868712044
-0.09666137020908029
0.04265242733508363
-0.00963037280482107
0.00727234706548078
-0.03204359643543054
0.009558492706679671
0.03662587999122296
0.022858254697035233
0.04779664149684835
0.004951888095978298
0.019677859328471617
0.025588272369570602
-0.0059404605806580215
0.006259384813735626
-0.009890416465775072
0.01668855622939808
0.0005265099665658038
0.0071890688453044695
0.09838827237560825
-0.007365008805951038
0.03457313566222429
-0.0065660090262899635
-0.028116600809574115
-0.01405274515073514
-0.009908729247178272
0.03279787869672244
0.008137644483650529
0.04338218075158088
0.03879134455057057
0.051689137073026165
0.015019455278847208
-0.06428821473521215
-0.018847000002292745
-0.020829696920602908
-0.016832962745786415
-0.021143257425379147
0.043056886762694396
-0.003559152467876672
0.01788435372063147
-0.008711648469888134
0.0389993162597176
0.0474221938378825
-0.009226512322427181
-0.14695448978371964
-0.04027378833238605
0.07786541816755384
0.09694302770608208
0.012389411708216195
0.008664284860817802
-0.009461405432746215
0.011002343741152564
0.023804147892247964
-0.013480306827963036
-0.06059422954558168
0.012201299760827126
0.00017394073015494752
0.04326359378269994
0.01753745386553796
