0
-0.0036499890098671503
-0.0007414190935922542
0.0018730225345356566
-0.0188477854081638
-0.053591771831889165
0.012429197469966687
0.03518043566539519
0.03091442049614257
0.028909203965693235
-0.019232446740278856
0.02004580373848882
-0.008100891688573898
0.0010429305337339568
-0.024750380014055273
-0.0417354538530718
-0.008877337408151824
0.0009218329332446208
-0.0030389773092444838
0.013304968116625883
0.01669474888611202
-0.020861864885649395
-0.002428374298489046
0.06547600058782692
-0.012423161947070797
0.006515457614084169
0.005142414671058755
0.06930982688274849
-0.016017172382848756
0.04048181031938984
0.049255572117146894
-0.003741410686370221
-0.025482386110634594
-0.011338330657652782
0.013373284228448783
0.023991836875411336
-0.03882188735797209
-0.036683542845424646
0.020491125255244262
0.06909989645830428
0.10639444819248504
0.0050283410853158945
0.0017698122144931595
-0.01618818840745187
0.02597234420942337
0.016425406107430512
-0.024124729661115354
-0.007078124208546537
-0.01689429163469141
-0.010067205657883828
0.00012902514747962135
0.006052908148122033
-0.04725245447841388
-0.15135284980814226
0.01796570540762263
-0.01486898782862357
0.04632683190001042
-0.06534019990773801
-0.13318952445323465
0.03462746767795521
0.018141298199687277
-0.023340133009335656
0.006642013083093525
0.08335861087696506
0.07735801114457225
0.033237505639876555
-0.01616448822295987
-0.027741353871760386
0.016210542521944583
-0.025532957294562664
0.008858923015972252
-0.0018197108685078461
-0.002737016695841553
0.01647688880715872
-0.0075988959459744
-0.07470078090014715
0.03022608641923799
0.014560971754723545
-0.013915706813173211
0.027247071955920285
0.028461356304241247
0.0002835886116777196
-0.026765019333558304
-0.006889482566664069
0.0038710411048649023
-0.0742036001708253
-0.0004986840915248862
-0.020488525980750235
0.025997820572877875
0.016503548300710665
0.052850643449397244
0.032702294231918644
0.013027403632565522
-0.027939339502982843
-0.017699723314402147
0.022695985100836154
-0.012933238497220627
-0.022650212800066773
0.05941833648495822
-0.04874912549496913
-0.006457525679428338
0.011827327659908082
-0.004638171443123402
0.0036240506889738105
-0.0004433507161146406
0.020096885390990804
0.040323771557791585
-0.02783578325264269
-0.03756901709542248
0.022179710189013796
-0.0162743164798765
-0.017229905937226432
0.00024130347268490617
-0.012484537015834064
-0.03046639050080997
-0.01959996808488184
0.018322848518507066
0.011355359219277222
-0.005785259322536286
-0.016388625595172984
0.012509473814190115
0.0018327041363636644
0.049861444545032683
0.04382965031458366
0.08192066525644526
-0.01131486401733843
0.02531140838160506
0.026187118926671082
0.03629986633455486
0.04585538596486156
-0.0017235146485375281
-0.026970329725043866
-0.029806039486177827
0.004332813761366567
-0.009171722944247786
0.0061473156171921355
0.028189018260761926
-0.025730676099943627
-0.011016269300170146
0.000430259395713427
0.02704359057755203
-0.08015549428019651
-0.09690424450068465
0.042996579317583015
-0.006118122029476138
-0.004513825495520481
0.011732982069727524
0.03183006739328893
-0.02599550195793476
-0.04725767039470325
-0.07148555967848079
-0.007366509092093035
0.004692916640380101
-0.03206530063385816
0.04155745457724589
0.010805840859977673
0.008438584705843898
0.0030617073016314775
-0.08381266688749782
0.027749003798540926
0.09742452914306975
-0.01171361746775492
0.03721326952841065
-0.1432383630262559
-0.08871136260697965
-0.1389920528355875
-0.09016999484658157
-0.011579712837869212
0.018068469408268832
0.020239846975543502
0.17373132811121386
0.06047476625055948
-0.028794766214753326
0.07448929433828859
-0.0030098841807875676
0.011425185499142398
0.015115703950269127
0.022710223213932953
-0.04468740271024299
0.02052037621264126
0.010549371059669955
0.05621174330939417
0.020147573167635435
-0.005511052325337168
-0.015883694016059522
-0.0796149640241408
0.009107690854519962
0.058960612338693846
0.011642392834392433
-0.023141474133004835
-0.00874016297764193
0.02692798356404278
0.0037747227415882234
-0.03602398931817669
-0.024526915331202027
-0.01876933392091191
-0.00871400339082297
-0.008983297579666228
-0.018310582173376673
0.0974580840323128
0.1808283073664984
0.10771804383461744
0.01995187021656436
-0.028312933033174847
-0.07629213645963143
0.0037343192547920085
-0.02033606256520703
0.1581857416124254
0.010464664442039312
-0.03068001141949554
0.016298624980704265
-0.018666286832036562
-0.20809411246088397
0.0032471463083634305
0.028763912572401747
-0.007381566249231102
-0.031032998727157406
0.007240898031923425
-0.0105522581055106
0.001491934946186075
-0.008245517947248995
-0.024305743582503942
-0.026250361405171414
0.008951057814250114
-0.03863429142602826
0.02939901990707437
0.15776256374586112
-0.006422327413061421
-0.01155352399395308
0.02587923308016136
-0.0024857335229160143
0.008067752982609063
0.008875073407668995
-0.0355192442018889
-0.010409019984338921
-0.0040213133070243195
-0.013550099843374571
0.009212730853279732
-0.02871692267878908
-0.023814042553656215
-0.011301016650475325
0.013251012436694918
-0.03876506626916806
0.02019734845434284
-0.045412027943851734
-0.07476054802151468
0.04644773874791492
-0.03454975883599231
-0.04570352728394128
-0.06190123344757284
-0.041452299866648126
0.0057310251013288765
-0.011582762490851242
-0.0014975779134947557
0.010942134298282303
0.05844222697183976
0.03573104144299116
0.0014624339013925194
0.017660075916118703
0.0035600071427049004
-0.023064619450614027
-0.001476992049000342
0.0047403243290433
0.044377818417894774
0.026127806907257165
0.053464541501445334
0.0014473681704775267
0.007192103358193454
-0.03626518758959074
-0.04143559486353657
-0.03884417308225612
-0.023732424396988996
-0.008095157854699228
0.0297720241548708
0.026784929203991063
0.01737212150401996
-0.0018139259582143341
0.023040705378306835
0.01870967214452795
-0.003415366613323858
-0.016862652384880012
-0.05001393615856626
-0.01710653495504424
-0.01774074096905215
-0.009713064079300057
-0.04319592892465935
-0.014510748720908484
-0.015407783861821178
-0.015268675166269141
-0.029173857615249307
-0.03146099308092458
0.15053512916441084
-0.006878807141725658
-0.029275808691519686
0.013155784820651448
0.035319768827413216
0.002503563268674051
0.011041311566489022
-0.001078554904660768
-0.013246042888599343
-0.023612683686368437
-0.015545501446883788
-0.047594462372999566
0.23325699185142537
0.06747875100396103
-0.093175963621848
0.009369263246605048
-0.0004916905180659198
0.015914160301341497
0.13310583011994784
0.05586939217451826
-0.008733953977521422
0.12487644281313698
0.015482495737208703
-0.04661212983783771
-0.03856174173533072
-0.020646014947902202
-0.022876942279336874
-0.021983711642244427
-0.06057055837988318
-0.027843766791357333
0.005497310305957265
0.03067267141786184
0.02119583165992255
-0.011449341479096237
-0.025015401403885192
-0.010167149456308788
-0.030843582666552818
-0.018989119037490676
-0.0033555810544146705
0.027407410237263133
0.007054060718433682
-0.025689992106276517
-0.008604528510045398
-0.030586231718680853
-0.016268615076038995
-0.10418754265669489
0.00829854657843207
0.03622781802216352
-0.011356081521445707
0.0025386884562849867
-0.015876040175744472
0.042771927921289254
-0.002889708984971479
-0.00936989688564158
-0.0028273448957590445
-0.03372812440614255
-0.001216169880553432
0.02498909296347953
0.0045181447259931805
-0.015003698926184953
-0.018895426024625704
0.011866656953352558
-0.0006319710593992551
0.020673627888878596
-0.009006871478503964
-0.015859640869423767
-0.028931563939245234
0.031084294297290604
0.020239859872730418
-0.020141200891811147
-0.008081540369810285
-0.040397041928076624
0.01133488953954594
0.002621943294765784
-0.005674762145583886
0.03432379640045224
0.024275906312419417
-0.010937157595944475
0.0010878125241465897
-0.02579192793509148
-0.0008549824132079107
-0.026019964057194103
-0.021428771973346143
0.02053154014985397
0.0008322324339307186
-0.12491421325355376
-0.0516391796980852
0.15020209501241805
0.11606744138306421
-0.07516664568824791
-0.0054536448560335415
0.04686045862298958
0.05092612939815227
0.04312847375572449
-0.10743808914752223
-0.02548163736386527
0.04262600123415579
0.00774610264290286
0.05203695729685368
0.05757867940608987
0.035628099924690716
-0.009631549139051686
-0.024150835674604833
0.016155053821636803
0.1513985191291203
0.02891594621536963
-0.03726735361878646
-0.08427654531831723
-0.03247010950381695
0.007139850770911005
-0.006196770502390454
0.01357197258305448
-0.03737550824070727
-0.017496071346509427
0.015371252607125312
0.011177863049719874
-0.03803947846852756
-0.04034449994156266
-0.02792695692565183
-0.04775687273333682
-0.012533797970992543
0.00947208998204599
0.006923244956372432
-0.01191828429482529
0.010926425572165192
0.015189768566067973
0.020677175627398736
-0.007798648684029529
-0.025788419916505125
-0.014652789785067847
-0.03475418580073694
0.027049138259653462
0.09193799103229437
0.010514240626124337
-0.03708164258654539
-0.04799611621387596
-0.03854365551825852
-0.001914620902389205
-0.007609815749843661
-0.0029923948351727203
0.0055989330763403945
0.04703528717169485
-0.022864356445651993
-0.018726612366302495
-0.007671213078667568
-0.01477694010210603
-0.029903616202637717
0.029149510924431028
0.01893587300606043
0.0674496114409393
0.001136098985485013
0.001931111775156302
0.15478482113982575
-0.03464585458304673
-0.0312505697080024
-0.05192368494785059
-0.021765435709307827
-0.03711024435097935
-0.013806939123329106
0.017285889388507513
-0.0037868663564764294
-0.009488180770558546
-0.012314816853528868
0.02199715697417977
0.015388600005551832
0.025201531049344715
0.015370697065231361
-0.009117383852018632
0.02375429953196124
-0.006473441366323885
0.008394316413002628
0.009373002212768803
0.008588948707117301
-0.024442099033895402
-0.004966991050829823
-0.007702046506221811
-0.037625317543435455
0.010275348754820631
-0.010151558419679355
-0.0746805136809015
0.01163258745490551
0.046984919117428005
-0.005153191787509172
-0.0037660463752724176
0.04167201378085003
-0.0360505147171257
-0.02430612613432961
0.04567340156401915
0.042385874574173775
0.029114368253056112
-0.009618934805939935
-0.04859397196281656
-0.019597811990003818
-0.029388225262926185
-0.039832819998322735
0.03377348353706267
0.0927825613295942
0.008495724596965641
-0.00417313764326415
-0.012569235760566936
0.05507511231177171
-0.018712508699492404
0.01750976980457096
0.021463303268943097
-0.005410768097968164
-0.011541824049760578
0.003112889089039661
0.0035295147975634815
-0.0009280536452987771
-0.061669016703083876
-0.04640704785021423
-0.00044711399445751646
0.005435068039444494
0.025140239527896197
-0.007570862842700983
-0.04231154225791284
-0.015228205784810354
-0.0047284541713003446
0.015540529516370652
-0.02579097042203503
0.08143421996125322
0.07362198441351037
0.02610256737812216
-7.943763659059277e-05
-0.01861812411578975
0.004992278802885755
-0.0010230294791558929
0.01634304864932471
0.0012399465177682868
0.006397988616517641
-0.025577080725515986
-0.025051882740806365
-0.007431325408528278
-0.03341726271656478
-0.051251058243260796
0.06545258565565748
0.07080027371093005
-0.004114043572009548
-0.07765582408557177
-0.029558671856885873
-0.0074312680486184925
0.004457215672744392
-0.014674002546912243
-0.017321267824769365
0.01078585000993589
-0.059062056864394086
0.015141213744629749
0.011775231045231852
-0.012604857856678373
0.015192735060697715
-0.004897718594983071
0.0004807882077947041
0.015650516678889025
0.024145129539264707
-0.06581354415009345
-0.00461463571868567
0.012498698720306315
0.0016639337363550017
0.011508537140743624
0.03829029190509391
-0.04231965348899688
-0.15171163266856705
0.010466427193892411
0.052744689579215305
0.04029502685853485
-0.0022480415729124884
-0.004957678503602389
-0.0077330439512435225
0.12494773293323512
0.03425633380936718
0.004254641290778205
0.027125932967607472
-0.0014931909370707013
-0.009340261288579507
-0.0014007170962320756
0.00548272684019613
0.03532882149568907
-0.04032222516113926
-0.06362957857089181
-0.015975164251829543
-0.002197110756397662
0.0019778626848257993
-0.003450798341118193
0.026630125211565315
0.008536100194527241
-0.034911476654448055
-0.011134571408912693
0.00029833064228054545
0.005223665150899483
0.03129190098708379
0.03815033812176577
-0.0129171284582075
0.006153314931690106
-0.0017535229098185555
-0.0025478175058387714
-0.011888059936514905
0.04193332854467341
0.02898830344104903
0.018566933910998937
0.013972267554029801
-0.03385828050178198
0.024269895840505405
0.017368925666999036
-0.03806935671951043
-0.008286923280800973
0.024357893366536154
0.01642251358948564
0.03233488761708375
0.0298385231822288
-0.02706799305085343
-0.038857264559672484
-0.050439074365236085
-0.02364648936612726
0.040443141740198134
-0.008103374905107694
0.0037483735297476374
-0.009090376787260395
0.06667592102851193
0.0001563518314281769
-0.009635342142136672
0.023332602155736844
-0.21587289406062146
-0.08123991705191576
0.0032026437913348165
-0.0070931594086135336
-0.03449225227656797
-0.009731931194239662
0.0033970120288607415
0.008303129001996163
-0.01577897214882168
0.037905092352731234
0.03934582107724483
-0.005117993609823346
0.0018932648010475466
0.0026078084040795386
-0.0008858384438910449
-0.014770058977232579
0.009873556738825841
-0.00042511648945553536
0.0005331997193360894
-0.00939363278286563
-0.011143158129723711
0.029919481168749783
0.09024104184710502
-0.00020899045282097667
0.016554479957370086
-0.0313103833799335
0.001570476384274839
0.022695208102686035
0.11492891785445958
0.137701955243235
-0.03288547801957509
-0.1257815273778401
0.02652981162827223
-0.009930312094774709
-0.06699195742914113
-0.006348561712847776
0.0696800990902592
-0.048681526951061684
-0.021677468066019046
0.04395683600386531
0.041578951109634714
-0.038080963417297525
0.010155048178923086
0.11591013972528998
0.021094437190138194
-0.03695126794402064
-0.010284152617727308
0.01146348429438641
-0.006206675190016181
-0.07799454641073864
-0.0007312379050393154
0.04965687885022673
-0.02580918534070889
-0.005345944306335905
-0.013944635180842806
0.01845646102106817
0.008346885852222645
-0.009800173229197117
-0.12058509222008644
-0.07646867975425171
-0.1134135502792576
-0.015848456824148104
0.0010685144122926018
0.041962404330939444
0.002970444772720849
-0.028781777164797993
0.008067425743241551
0.0018715279947133124
0.010864886496678702
0.03136133738318555
0.0005369992625024124
0.00544024503744853
0.07604089849106245
0.0047804205271299235
0.021375544834803337
0.012307463109361682
0.013544208747038619
-0.013303033102882434
-0.027863723982214764
0.00861439291386013
0.004240916662780429
-0.04028077909709081
-0.0015440160865950714
0.061113331129754596
0.07232284565930087
0.018571219832125285
-0.004086568163907344
-0.01625252602018543
0.03216499392253636
0.001111105863265962
-0.00678828862620708
0.02037848497039769
0.019305796591197293
0.026893603818940518
-0.022003632572929088
-0.01407205608757154
-0.028459294812889547
-0.030683478985117096
0.012003129394787057
0.0008937863046671782
-0.022171063790603122
-0.028536742597929522
0.015296722033891373
-0.02950309666897368
-0.06513699438295038
-0.0117581273615505
-0.021045233041107118
-0.015762349586298824
0.015948177196736874
0.011961183930336529
0.023783104507304437
0.16255492046596756
-0.016448897534208817
-0.012948802616393425
0.061904918131973824
0.01840331770446675
0.04024888156692337
-0.0476914371369186
-0.16356735853800097
0.02927874104310937
0.022258692333917713
-0.017568146686933947
-0.008815728968896241
0.024612830579002952
-0.006499622049624709
-0.011416617323633955
0.006558102794369647
-0.049752293823970666
-0.034344645775581294
-0.05577619152477796
-0.01648461996995993
0.16810289900664607
-0.014769735923535754
-0.009187335155284476
-0.008720393348671153
0.030289565165891857
-0.02304515021023228
-0.028398199472875165
-0.013016267442902086
-0.015587707081043076
-0.03847733774279227
-0.032608015780821516
-0.03541985384869177
0.014110330510360524
0.16830279650736918
0.024162679347550065
-0.001269053698283148
-0.020772432102777093
0.04185501969352989
0.011770437508989285
0.012684417152556688
0.028334991712036985
0.03683200889206911
0.01869302979170943
-0.02068536114628242
-0.028683256454399637
0.0410258672445276
0.01759938246090186
-0.03408860003451497
0.00727234361468184
-0.025404983943510408
-0.04527730424674304
0.032885596384975624
-0.07887170952055811
0.00231734895708734
-0.01918066325158481
-0.04870645717822668
0.013612196956492338
0.0016331480041187033
-0.0014551870551008075
0.014622747940369215
0.0031477933741122345
-0.020996674609139614
0.02336416338976587
0.016206619165608532
0.03112367540589245
0.004375807250318402
-0.008316682087960374
-0.05813390969434238
-0.0039346352002230765
0.030154767335058282
-0.024551984130836674
0.024497796176578653
-0.05213936016240092
-0.09253608149023856
-0.040438593242113616
-0.01424165246183157
0.05044153685778389
-0.0198706216732631
-0.028907482976144063
-0.03990929080878569
-0.026270627817118232
0.015307907737177507
8.189126503358643e-05
0.00868918377563639
0.07615641653831538
0.14585207199382613
0.050958833073437404
-0.04565195660419923
0.015653288387975826
0.029741010978049317
-0.018813382637153063
-0.08363024395312575
0.03491568459345808
0.03738823232278843
-0.00974272997888198
-0.008219484732488942
0.012881732673082928
-0.01062928966011353
0.0050093898858969525
-0.010222651564838722
0.014459643120770343
-0.007046374723163305
-0.004660004284485284
0.03555717313415111
0.024762402868138154
0.015148372795438184
-0.03698072241807392
-0.04510818160149268
-0.006035878941830204
0.1913937797442029
0.02573822681877473
-0.10445629244398104
0.018541635935487126
-0.007017037840210962
-0.000846223437319313
-0.026209294384724687
-0.058812773480708055
-0.12191525420425894
0.026446753075131686
0.029838893102951382
0.013919604451989937
0.004225715624147782
0.003492481652580511
0.030404054183900926
0.10287301882664551
-0.030930149185741832
0.008385847519848194
-0.025262117243846617
-0.05895948319548169
-0.008997373189448182
0.025149826741358964
-0.0059898234303980055
0.046816362492283166
-0.03060590425965853
-0.03350852213181439
-0.030651003162022773
-0.044447163173237436
-0.022525344412117995
-0.036729043338442534
0.020642965933700477
0.07209026740412015
-0.056015708759427164
-0.0887412560439755
-0.031196398074662995
0.04034073921635861
-0.0021913001803760056
0.018729366731649818
-0.030987537411337848
0.11402212401764324
0.12402987004887682
-0.01676633033653968
-0.026985579441386118
0.018283902346167436
0.008117638078698452
-0.017151770540566255
-0.04647883580024892
0.0695185774384957
0.059079484992119936
-0.01819737201259673
0.00720776287934835
-0.04834842981107769
-0.04698948083387712
-0.027624235284408806
-0.018042291691011944
0.02373532332469587
0.001264009873029651
0.030265924499706137
0.019251145010120117
0.013454144776963032
0.019218489105129192
0.04705686838649695
0.02641055090209192
-0.03728031218406356
0.0006222000390181736
-0.02635562689757282
-0.009960071581401438
0.04792058067181211
0.027206606253417556
-0.017867584878644555
-0.011464472232542357
-0.03286726339859551
-0.024745660996591947
-0.02995822030467341
0.045349947894972736
-0.06662955960817031
-0.03723959156010609
0.01232568043188075
-0.00242418701946231
0.02102168087207167
0.056327647119690884
0.030842706512191776
0.008794176492027628
0.03124776374657651
0.016688182592809308
0.030582739852471872
-0.0015889915766890794
-0.02286448233691381
-0.003879164216300334
0.03136188533116055
0.025981898218143878
-0.018366163087767687
-0.06534895666761291
0.010557525336367777
0.03226255583950085
-0.08429922109639808
-0.05691050339553073
0.04296422399705834
-0.00824719013218657
0.03561370418221891
-0.02511965433788176
-0.014373073408866722
0.013374511871071365
0.0018851869802872286
0.02530692627288451
0.025822707500526006
-0.014387180092967664
0.006170821680530904
0.01875248906685792
-0.08966121344394622
-0.014279537548659798
0.00014899448816698947
-0.012288949885648407
-0.02398648461940608
-0.04474078019036834
-0.09279853223018798
0.01317724372078765
-0.009478498849095187
0.006510637288552482
0.043296700959080954
0.03984788130769283
0.0006162979812010469
0.0016931824267088405
0.011744953040945992
0.06763586732859744
0.009991652639541826
-0.03814638960691138
-0.044813668091073997
-0.0028420670323999714
-0.06605189026277497
-0.062476880086565406
0.028569929354286566
0.03193814146335023
0.0068770652896474015
0.02321492358284183
-0.019069301468557936
-0.03125879374547958
0.02001971474344174
0.002110702903387879
0.018358724847952583
0.025612952685068628
0.04403550725789522
-0.013417103384247998
0.03248638927271943
0.009074223823675679
0.03446538714807646
-0.01138046430074921
-0.020892157282545377
-0.013875659288673878
-0.003341215036047567
0.0053157126963056
-0.01982778941048237
0.002098754152794937
0.01586589145720424
0.029768190311697758
0.00774852035061288
-0.05452280837542987
-0.02668895199971482
0.0035909469447766144
-0.054427343097914214
-0.01083767308500976
0.007412553449197451
-0.016744998141726652
0.05555994753160421
0.05535827320663939
-0.03783566534018379
0.103839215504194
0.018336846691357264
0.03849686420223876
-0.04252240734435902
0.013998776545690076
0.03816587389300162
-0.006139765724793406
0.021536624839755898
-0.014485157818807116
0.017566060625580013
-0.005398130040564241
-0.020733751775536564
-0.020165008783170072
0.013544549545560247
-0.04097661754818101
0.0096284976244036
0.038989392924540095
0.01552957612005653
-0.009301125557451103
-0.01250995472297567
-0.026522864980559592
-0.0007522416073072716
0.10147507606410952
0.07307667073129272
-0.027589218663305954
-0.018106671330370413
-0.18730928200989344
-0.09496968039961626
-0.019037098751909804
-0.0961223121462501
0.003691869499081683
0.02623162766888417
-0.008506560895519068
0.03126426502891542
0.02573460540147227
-0.0019434653426813747
0.017595073704534434
-0.012267779687482558
-0.06338907511074961
0.022517458560203513
-0.025518995853894746
0.2412469160248748
0.12924500804436664
-0.047214665958941346
-0.042479676387901
-0.022440114820045633
0.03315651527276481
-0.011339841744891603
-0.011267363254608975
0.024829275176426024
0.054214535944422514
-0.03731527413785199
0.035064454758081065
-0.018822533365728922
-0.08606373560979305
-0.03519348024613798
-0.026655402009256663
0.04789981658310312
0.01385374904551606
0.009321164041179449
0.005502647773180876
-0.016182251799900897
0.019080648026316142
-0.011908471626245793
-0.02256290656031666
0.02660120815826996
0.028936238342896912
0.021151159050680955
0.02756080094449683
-0.04105867261036118
-0.026781121599369784
0.0027261505456289844
0.015945496893369843
0.0018888009617735832
0.017679594895905183
-0.0407566199447076
-0.051702762820936964
0.0023880045929116525
0.015064551561778305
-0.02606413964226338
-0.04564570340220489
-0.021719312853208297
-0.020705547716371956
-0.0225479217169989
0.022798755985514285
-0.007049584872120415
-0.0005074129061791735
-0.00035081179140738887
-0.012899086465757995
0.019186042498639044
0.031083546042799948
-0.002192290788784689
-0.004947622335533408
-0.0035532996165599374
-0.004654019651565651
-0.0217032579729401
0.022099182938473832
0.037553084925853145
-0.043237408427994006
0.006305555745623296
-0.008371618892976666
-0.01534753474191022
0.001017174961475269
-0.010935610052058606
-0.013933363678946745
-0.009669866878332909
0.03193169662591476
0.007506450161370881
0.016025953870979485
0.008822700355930316
-0.013740582778278184
0.02397364476376566
0.022624779479324113
-0.01828856213784983
0.0689779037533833
0.15937407273523993
0.010493982829247508
0.1330303429162571
0.010200813756542594
0.0002773377455656502
-0.005918519184022674
0.014318783684056154
-0.11435933647568507
-0.09845849321134413
-0.039127868076071916
-0.03486455048135864
-0.008258836266194291
-0.033922341475409325
0.028970054827313445
-0.0031629019825292135
0.0577795541807928
0.06372949056431657
-0.03476915084655944
-0.03902835579850209
-0.03959381153890173
-0.005013153551037585
-0.0052297314335999845
-0.006361350308111351
-0.011285402434203683
-0.010527641140859273
0.00809749262850523
0.006626722922335303
0.008595379864040117
-0.026792311267832974
-0.02944475736154178
-0.0168269955412833
-0.020696471156510646
-0.01977412452767882
-0.011019007994970496
-0.06089794771197334
0.004054399806816955
-0.051126452477819426
-0.023221349318987602
0.07217227752272226
-0.027583271321959993
-0.026295404786111566
0.05399749401819256
0.10269094613278683
0.016320956292251214
0.0038442598521419256
-0.029181020493329764
-0.02200600345925296
-0.025868955549785404
0.0073556139036687895
-0.04291180565760144
-0.0751492615609498
-0.05223796851274161
0.004224562977290351
-0.014031998397392827
0.008024705605747346
-0.03145704312718595
0.08086840235879579
0.1425149143021335
0.007022253790849379
-0.007742942176293209
0.003679356556413361
0.062248808809975714
0.1790511250667158
0.10829849548878263
-0.03713066153392748
-0.0901154151160802
-0.014357701283334062
-0.0019343685796419244
-0.004538778130391022
-0.10895938286756418
-0.07322250945712086
0.05183416671086719
-0.01732125551368942
-0.015511816776132885
0.06863431588757261
0.14761812833311022
-0.015236190249779234
0.021765690409442522
-0.007665567687583076
-0.027521875003801533
-0.06371254758666638
-0.06243865370747009
-0.04041512108843411
0.038575914085328386
0.07718939446842626
-0.21323064690390484
-0.07481426737800317
0.08112384863024152
-0.08704306471269192
0.090760116198538
0.2396200095197299
-0.060025966138242515
-0.005770447360579919
-0.013071355080848395
0.013721088565345416
0.11765764897163733
-0.02066286243639812
-0.10665548906219922
0.06508368794612526
-0.04727947806289504
-0.004894530659572391
-0.032424542403024774
-0.019066451024629394
-0.025913193803957842
0.04832894360980354
-0.05581742235917175
-0.018452487040213125
-0.010662921151093633
0.01834793154605928
-0.028953851914181566
0.06299260779498278
0.03395224003374096
-0.0392785084216189
0.033604158835420714
0.01589696597278045
0.012850666896469532
-0.003468937145547647
-0.016709101019892144
0.01920063345522476
-0.0429724523932874
0.03681598825583275
0.02645049717323484
-0.020862250940197963
-0.0411424385389285
0.011169366057326895
0.010541049701339622
-0.08130466156552882
0.00010485640028442194
-0.05173952947442457
-0.006424483625521607
-0.04120784965423003
0.14194699953466836
0.036938597211479914
-0.03787131296545343
0.04867624526644412
-0.024900927284252243
0.017933881643568322
-0.03255803282158683
-0.03571899680574495
-0.05335170970172187
-0.004767703244519362
-0.013990696067561615
-0.008151625128497132
0.044227544500255164
0.008027856625479701
0.0052800990638089546
0.018731009320408686
-0.04844379036550045
0.015628253511553784
0.10404771277800859
0.02163099138744263
-0.009295172518984453
0.002766096730898433
0.06984887247405476
-0.01209533133654077
-0.011939603624208582
0.007234048398642689
-0.030642077995540886
0.04424683311967452
-0.12057810475353599
-0.08335328133783877
0.009816070125222032
-0.03410005828690179
0.009868335194422305
-0.01443230818744386
0.16049559657358245
0.0044583206537502
-0.025218623837144766
-0.03444979014898057
-0.017041891678141238
0.0038380433269450346
-0.01377876969151012
-0.012283900081741113
0.005825822533909913
-0.0065263855029461006
-0.005886423397248945
0.10386966170534133
0.06856547724988729
-0.023182648364301485
-0.01025347856452674
-0.031006329919197443
-0.0009908780441416332
-0.0035116380149001706
0.008956352465148944
-0.06054172795070619
-0.12109703107761535
-0.004972670788369171
-0.01905269606097056
0.1196498655730429
-0.012353513382499293
-0.0096453958041051
-0.03354760317246634
-0.003381047796329944
0.020117478367032034
-0.003099995242130598
-0.013648046067273439
-0.031396118850219285
0.04655555411877573
0.028164150940810626
0.013716797974751019
0.02812171340413095
-0.018336468894341876
-0.06552707241026466
-0.026514262496180215
0.03980057940209379
-0.023133151636534986
0.001288961665796456
-0.021071562377802392
0.004229595358557916
-0.029851861329110742
-0.04642397707798502
-0.023402382787165315
-0.008411595056113361
0.1066063383131649
0.02483160137007732
-0.032304640825328475
0.009463214631224364
-0.012453400633735389
-0.048876196460438406
0.028248432093227388
0.063861238142032
-0.0663998435628577
0.09600006415229981
-0.005211151650409332
0.010017923218482355
-0.015164415998650583
-0.0006556203349384189
0.07128061190520199
0.023837384099064943
-0.09057164416442796
0.1595276098488434
0.05929340599731987
0.02998940974832809
0.035389727917338916
0.0273510798047317
0.01310740655078807
-0.010837887678664573
-0.03230318187917087
-0.007342759408242861
-0.04478159843765782
-0.01636595347874704
-0.06110367244259662
-0.03146640388484282
-0.011270455627414282
0.00047510989805613877
0.07390496901675186
-0.012374692151474749
-0.03461314798132322
-0.0630149703204198
-0.01275898213549776
-0.03145071611739832
-0.01983639901841214
-0.00356593958683567
0.018171703194068016
0.058429781968309474
-0.026589954026613245
0.03096465812376752
0.0918195420175604
-0.0008860321514165109
-0.06988040010760767
-0.04632796650132494
-0.006233107807185118
-0.03550974633087859
-0.007691451590917516
-0.008879081155506799
-0.005945431343352948
-0.024003979320404604
-0.014052173754597351
0.11222190876182139
0.010243534084929111
-0.06706507474305631
-0.014484199990074425
-0.024464117173957536
-0.013377743080224241
0.017850078115272904
0.019504090450746095
0.016094136168734733
-0.0072178552181704925
-0.0007586255779917891
0.030561649977765514
-0.008379577318495661
-0.005088004566026321
-0.014283416104156657
0.0035962363922567445
0.016967075690211074
-0.009589532787121687
-0.01602161043123254
0.04074714394642302
0.02218235505388524
-0.014152142495538712
-0.023656511740582538
-0.003434973001971552
0.03548194900267146
-0.036975007762597045
-0.005319715197276097
0.009499019001583222
-0.021910670345845703
0.008510547891229164
0.020039634689417014
0.02197432302418953
-0.055252141249286936
-0.041059882267551424
0.011362089030295728
0.004134659569112705
0.0019410562527758671
-0.005800161984487679
-0.015545519037510513
-0.001084470588758518
0.019454568699165613
0.01245848883976762
0.00846990268749987
-0.03261805165319686
-0.0010013785298568128
0.0009601055692858779
0.045173414706252274
-0.034490061966998595
-0.0011542004580636807
0.014754280843969896
0.02991931541776823
0.0013403409807306685
-0.010956105467124189
0.0066287278410334105
0.005177891980848237
-0.026838562621549444
0.031708382182696795
0.028752188538778842
0.022445223957297342
0.02972086589547988
-0.014919359475115367
-0.03350737489551632
-0.02813649487925076
0.01548668859575408
0.015731929179451345
-0.03381146427201761
0.02273778875941376
0.0014734720679228375
-0.023205325915833335
0.06377478518176743
0.050836835405457054
-0.17137332732560234
-0.08256626763118319
0.03773081027135203
0.02063801388835025
0.007952862630834365
-0.05371004691247339
0.04890585254343511
0.18996450405190154
0.02643695102185992
-0.05628192161320556
-0.044711352491824764
0.021801155241570017
-0.02556092440098919
0.13687505157300717
0.00677155704624928
-0.017158987917662884
0.03791293208230347
0.03116134814952175
0.010417185370322568
-0.02409644770572288
-0.009324173648303862
-0.041503181210146844
-0.022203898208902728
-0.02069619659235936
-0.023142623582892496
-0.021649572004445172
-0.002959252231523518
0.01509598787508178
0.034437879708257124
-0.0013913924126904935
-0.05883411671108671
-0.039497686308323086
-0.028175912084461484
-0.04366056738156978
-0.0038839377743643023
-0.011019740766886605
0.0018387707750531633
0.04406360592475875
0.022926274363880464
0.003254947684826432
0.02695643191570192
-0.00044804862201410357
0.01723795310547354
-0.016139269450686014
-0.010907401751098438
-0.014003085403750302
-0.013794413262207773
0.00633914559826442
-0.023477865702975654
