0
0.03373599752319257
0.009948446099950882
-0.0239184830913965
0.01277344250246051
0.01663315830719355
0.013732820896456178
0.01910148575476216
0.029989492246427035
-0.023987076185354957
-0.03133523477616029
-0.01251855896186727
-0.020453366646848593
0.0051151933053744545
0.0028681443509503204
0.008707251283796208
0.0016092554088601412
-0.012452235029123042
-0.011913673201322332
0.017519055760709407
-0.008887118129658077
-0.08190768695476196
0.022090181857407982
-0.032752075182025
-0.007063916112076153
-0.015084103002939924
-0.03273067717003798
0.014024498100197413
0.018918798316623096
-0.005171006306229959
0.00819104606969347
0.004700485723893444
0.002683759231288011
-0.008124017188608883
0.005987087332841112
-0.02053644258873781
0.011904031431666457
0.022899853526379788
-0.020506280742638373
-0.10310079202547723
-0.0504632583263485
0.052376233540295844
0.07234866585514112
0.006216001876018616
0.003144726600873201
0.027850980958307025
-0.004163457717458315
0.022453278100132968
-0.059317935482951056
0.0520149315895689
0.06438212687257167
-0.044587206705112674
0.03031777963327114
-0.036664523866246114
-0.03955925194759508
-0.033266718996626914
0.08743204048217047
0.15202364048482653
-0.026979970832870855
-0.01732291601526885
-0.021947842737923932
-0.010984045403132038
0.0012905066207575461
0.024081631652778122
0.045407951833108154
-0.043278386116244426
0.014397670819360817
0.2100735630202239
-0.057895870739736066
-0.03849003886181939
-0.005082026911321032
-0.008353055811183986
-0.03585216870097631
0.014468694688348726
0.004035348012966694
-0.012751026574445011
-0.027290597464654807
-0.011516213908529091
0.007927355661330335
-0.00676536551900961
-0.03783113334809784
-0.00978235558684549
0.034450952611678895
0.05173589996047204
-0.009923128032590881
-0.03819521772828455
0.009711612831816607
0.013334202620219563
-0.029011164212042567
-0.0028702988121756226
-0.017327816716750287
-0.005179379968964165
-0.0014556454884869635
-0.03231266359574648
-0.02362766077423336
-0.07069443243754228
-0.050291973004838314
0.014639014451587103
-0.0071238371809434
-0.011115538007126684
-0.02806628229685088
-0.025726194768739653
-0.006213734593235941
0.019507796436770197
0.012159860990801817
0.019827115831540763
-0.06200648943674022
-0.04147711060681209
0.02706998334630731
0.013677718175298156
0.0853301234604181
0.020530973914799223
0.021070101722094666
-0.00037302502530996525
0.018097412991798928
0.026151933168593156
0.00011910255719314656
0.0031453889949388317
-0.013396672196161337
0.009060903449062853
0.03234380288046077
-0.02827810782250568
-0.032296651293851494
0.03227232965437736
0.00034621939407045144
0.020713778877857608
0.012554012573158559
-0.0025803265863233757
-0.020270301454295567
-0.016378477685881705
-0.1022015246335442
0.008542403530458431
0.03677480297362828
0.015419304940805352
-0.005828816872815922
-0.010723612216549185
0.053253099155659844
0.07492948430662001
0.024866147321625516
-0.0051180514255546585
0.031200268427292344
0.04581076223811908
-0.009654865500569716
0.014238350279303567
-0.00511779234352028
0.03815573711277428
0.03752987447617204
-0.031002081173497256
-0.01532373399230526
-0.014676480992988046
-0.05572901700925459
-0.006134170139167346
-0.01636746299715154
-0.019684699981182597
-0.02391405984459424
-0.03127385075353445
-0.02166271624259255
0.029215717306847026
0.016653258043307438
0.012363014727448865
0.026175865912507066
-0.032885439859255
0.018899390436018095
-0.020615139606993297
-0.026934302224258626
-0.019133950788827216
-0.0011998959786440851
0.0013367172487679154
-0.012133109181675823
0.013221914637786599
0.03280436999158183
-0.0006615389659385303
-3.866288411793012e-05
0.019681246014073592
0.01634192341449983
-0.01932365329726001
0.025483119121770557
0.00112978031855364
-0.027305815350098815
0.00930320418536225
-0.17665940173397304
-0.061491683121324414
0.029874081553022406
-0.03235699445244826
0.018015570459324504
-0.06163277407749773
-0.0197736810273459
0.019682243593787757
0.13832968238857554
0.07156377715967699
-0.04641027995333894
0.024940671978052328
-0.009555314575653832
-0.08058527364748275
0.09387112580947107
0.03027381629154453
0.004303352951812823
-0.0037299926453041752
0.013125910563753998
-0.00586140422202711
-0.06867847588715845
-0.0010199157032947117
-0.005249856309673052
0.02665849400929832
0.04437293611302349
0.022646090051292173
0.03852878185005328
-0.019037475632722553
-0.033420035923146935
-0.009730250905740883
0.03728062691367668
0.02115979041567477
-0.019424299231262994
-0.03358605484530135
-0.031389756144121546
-0.03282236343182022
0.03341800843209182
0.16714067662727344
-0.08812967716505893
-0.014479645580580196
-0.006471566657493938
-0.008400556449520652
0.03622170826351783
0.023153409063501232
-0.020190026168413276
0.01689329043769112
0.05276951337312032
-0.010406096842852859
-0.016479270573051798
-0.03748301569375414
-0.01928812697232273
-0.030658640687929502
0.03136109896075154
-0.004514109112409242
-0.0359844342122866
0.0006386279091500961
0.016847201762549894
-0.03551123533892253
-0.038869655075626064
0.027035054286275804
0.00593400117411443
-0.005213369895799521
0.007764855937425491
0.011280766436108541
-0.030032068062211575
-0.0065296871874831585
0.015311892913261266
0.00808788858071433
0.07500578189997945
0.051670839971285985
-0.03431170281107469
-0.005311518202663819
-0.03206948541015648
-0.005098781187620871
-0.1258000114299503
0.024185068011125622
0.0012497228849693042
-0.010610134755865534
0.006775328293202652
0.024727501006710954
0.011615223815449287
0.031786062225651744
0.12292942420896322
-0.025889215228547015
-0.16007788074196283
0.03775446752701995
0.04581812552838991
-0.009408535107639325
0.02229567366401564
-2.6417989190583924e-05
-0.0019307022048474362
0.0021232479376429667
-0.009154953532558588
-0.0043881421586365165
-0.008520846674835918
0.0033155951283518944
0.0030441700543267173
-0.0014329256419090262
0.020534959505361338
-0.0037839888861143753
-0.018360304641701315
0.024661417241625315
0.045823277916876064
-0.01968926489484054
-0.004815888871656817
0.028172415817699234
0.01001478222230571
-0.0015530574862949373
0.006947002594354855
-0.0036433186449389334
0.007699765059816857
0.011924516247828643
-0.003535325950359581
-0.020726886483296198
-0.0005994050943679073
0.008517146269428443
-0.11258510426438635
-0.03471582625775181
-0.11387992942493119
-0.006546405641366213
0.0380251803016711
0.04305692764262312
-0.014870806699504554
-0.024581486990440892
0.005180477581408588
-0.002478615779723177
-0.011663488214073576
0.03303804913039779
0.02659757526153441
-0.012778695883044288
0.008228647116404598
0.0020523532037618223
0.05486911681002066
0.05154574356477003
0.03725053521436485
0.03336553325767993
-0.15281335151822364
-0.03537297813076056
0.07384885366269818
0.0311380354490665
0.003845816451063736
-0.014991637931290333
0.01050936446818909
0.008749227078767465
-0.013588597759098221
0.03086299267350985
-0.000712745014112156
-0.015390738720701895
-0.006724417887879414
0.016693453050207405
-0.008068033336335448
0.024063290140840715
0.03799785219393641
0.09178293387870537
0.11127110993222035
-0.11569329856442256
-0.23181859267117572
-0.06077031981672305
-0.007114178144078207
0.02315773588800523
0.03585156392291608
0.0566121185544573
-0.0022964899832388624
-0.06351877261400424
-0.0358566133594603
0.027039989339625165
0.021788752419721575
0.05508718994862047
0.03071367086892608
0.031093788268699758
-0.007456869864587031
0.004106642337240134
-0.015254351924397943
0.01051687198022991
0.025975851046317246
0.03066350454696962
0.031095821070921133
-0.005829211326549157
-0.00035065191029161726
0.00695753202118778
-0.024306966610185707
0.0010484703875882422
0.04412289912162723
-0.025998943556987068
-0.018602055785770216
0.03653614324946244
-0.12368927783056011
-0.08682813943971697
0.025318460644669045
0.0024678466069734226
0.010731349113290038
0.016366657548935418
0.016898042035881758
0.012088450103912528
-0.01851432223430452
-0.008620941900023459
0.008063167223141997
-0.02513762658329207
0.053429617032865424
0.0470175996479207
0.016176458804872593
0.012863692402429886
-0.1973141814725942
-0.08463481296370239
0.04272915902908265
-0.039118006320031484
0.048952485883940404
-0.017245318415048096
-0.008891820754538622
0.008261773838728137
0.004520724765081085
0.02642530451854322
0.012088909782099398
0.026301417886748415
0.0268313337460209
-0.011880191597508092
-0.006486774630834568
0.015442055001544464
0.006439480953291729
-0.0018356491098479204
0.06599726543678945
-0.031270898592150244
-0.03008140270278649
0.0031966665635570156
0.013632451591224386
0.021175862963550503
0.026689178639741157
0.021019171807188205
0.046235950661860516
-0.0862212380458325
-0.06998802934832976
0.040729421015134715
0.00486670524839445
0.0407034269098556
-0.044419764420465566
0.04702549794251456
0.02993074278394832
0.01654365282205954
0.02405954046601703
-0.021531188008260326
0.002838454930585949
-0.05842704310458378
-0.029720199742702156
-0.02740252732055957
0.02462666749615155
0.037127274890118994
-0.008679662502692614
0.014637515884975076
-0.0354208040282559
-0.024544367555458975
-0.005217982370695722
-0.01239161897491783
-0.013807044915421693
0.03134322155364982
-0.016944680585684532
-0.008362605942908016
0.017163142227645485
0.016171497952671074
-0.02227596094427023
0.022331095460819003
-0.06754684235919442
0.03077570579746332
0.045925427424543704
-0.08398397817607647
0.022596370063359263
-0.023796629129601857
-0.019755567248255525
0.0022876421638727187
0.02661805142806051
0.16437961289497258
0.08928860253602293
0.007550603197255115
-0.05210751281514202
0.019862397880558772
-0.021177230287456834
0.022537414008377967
0.013218450887787803
-0.02530475081155345
-0.020086528918612002
-0.02342230986710067
-0.002652741394324627
-0.00443563374440691
-0.00015609248824347775
0.02390080431732733
0.0011833874917866452
-0.029344673327570014
-0.05807519533171643
0.09473676661890079
0.10851039135538333
-0.05913424358935646
-0.14443132963090435
-0.08878384287688933
0.0030212845735937905
-0.03339855116539817
-0.009121235075470406
0.04338989680289992
-0.012643264748599767
0.021055907957816148
-0.005982484189314809
-0.005542811150551873
-0.012060433578729159
-0.010185869490898064
0.009137110996039362
0.06606930692044242
0.016558190948554628
0.007227298375121808
0.005665154779916178
0.04081016864799437
0.019258452173571215
0.007316606589765029
-0.006979746074698086
-0.0012589293951576293
0.0014696644069745594
-0.020467105191084765
0.027894702696034012
-0.030641659755982608
0.023963856741378606
-0.0006213013833052998
-0.019250842001609533
-0.019373838258562065
0.026864883624787114
0.021334742505474864
0.02072100099616888
-0.10296983578093276
-0.09027107125057027
0.037832811612641536
0.0141928748646454
-0.010793025539038787
0.0005008264214959215
0.012213608914156444
-0.02012667063865426
0.09442023218636458
0.013503604193415696
0.003509304456677777
-0.007440991757108014
-0.03481878855190938
-0.03988099729761535
0.03347674411209503
-0.04700034229753893
-0.009389587686605702
-0.0015265390909212767
0.008952292272141206
-0.023106383744904993
-0.02049040293471997
-0.024201631511724733
0.012445886531505967
-0.17113383750755742
0.02397355562590974
0.08691748711813499
-0.037842727432635885
-0.0040680484050073865
-0.005855797708229692
0.019748774064916576
0.082223305432966
-0.07577855344005736
0.004875461842234771
0.006084701723258495
-0.005928153426078866
0.06699528001445063
0.022655729144681364
-0.01904702192423232
0.09136876281157795
0.18330482102400955
0.03453997816902645
0.03186675398707935
-0.015926360135076055
-0.03687829617283924
-0.05013177047057412
-0.00866668288609904
-0.018860028149317816
-0.009486251974430447
0.014190955752336082
0.033878352422172825
-0.014151970430080549
-0.0033211851918552382
-0.02809397006314374
-0.025314271229413397
-0.013397632947232833
0.017549810042160052
0.04484059176756163
0.00803316916532336
0.024000302780355295
0.04709237036759744
-0.03579186697769875
-0.0171023150355106
-0.005194387400436881
0.015910627862980083
0.014175234133305115
-0.0007101283451025281
-0.03123625788397929
-0.0012570808469226692
0.018681731985343127
-0.023597285194363108
-0.04599598543542929
-0.03348766492781172
-0.014885358738333616
-0.07369175279388578
-0.015699515907374645
-0.016984592353064598
-0.050288663314660975
-0.030771925083308567
0.004292816123468489
0.07848369214774166
0.004023292833155453
-0.0206492186267071
0.06934368634753221
0.034776944206899224
0.011040579022574102
-0.025202439282858806
-0.023699168481744647
-0.012150052299967023
-0.014142119738655427
-0.008491465334565134
0.05462490555631056
-0.0378475437764189
-0.09145176684304646
0.04068101818457059
0.026781980818938216
0.07411850158377449
0.06708076451071636
-0.11242201149746124
0.036614987697016974
-0.008631064716876873
-0.049509735492197324
0.009990692156679703
0.007799768865885949
0.015339773358256389
0.026424110554086597
-0.008833856671401881
0.01669857001566341
-0.006573358671753716
0.0022345777886110104
-0.010267632482816352
-0.0643374503512253
-0.016509726735145076
-0.007178498585407928
0.013555831175671792
-0.005117006312378408
-0.009371769974968164
-0.019647784867294984
-0.01207167708966039
-0.012084207560585952
-0.021517319896232522
-0.031754242526433704
0.04091980622124204
0.06870130358967219
0.0232084458068831
-0.013237861048790121
-0.04266974623744956
-0.002723761067772157
-0.014247220470552619
-0.007352182219171313
-0.021815045721553815
0.043507290429944265
0.0020356911303910864
0.025233834724861254
0.016045629883695563
0.0014777193832004759
-0.051814003693488965
0.14812063456818148
0.1404383210128807
-0.03149387377879861
0.00030647107960708037
0.00945920540860306
-0.053422147035971874
-0.053149048282726416
-0.02213113591175973
-0.013402471232617964
-0.005649390180777159
-0.03131374900228477
0.0001704604799866233
-0.032226819421226384
0.006482580678058003
0.1509242611686715
0.012683163601362683
0.0074686007906063345
-0.02483873792449396
0.00653407475874246
0.11892297102158243
-0.019159178517512022
-0.06488847671099522
-0.023539315502118758
0.02346189817262137
-0.010539279368026634
-0.007778677001280267
0.02401843769193621
-0.02940284540433597
-0.00566695898164044
-0.0024744981817568803
0.03611168356960711
0.026137289718974676
-0.01955210339516809
-0.03821146287049869
0.010573262303796713
-0.026368100875120058
-0.09630587398201995
-0.01173354209014885
-0.006762419694099488
-0.02178048137609738
0.01852961338026478
-0.0077883009163090475
-0.005685790201697235
0.004104533244820293
0.037700961177633795
0.002873726798375724
0.04242076698068535
-0.015234002426471582
-0.060671746535371385
-0.046294031662972183
-0.11252299986007308
0.07233203471963286
0.08499953899992287
0.02166668485404343
-0.021854833454795868
-0.01756572341539226
-0.014557366731445306
0.01471491982164046
0.025569001667352553
-0.008944974956025888
-0.012341663694820476
-9.65194156270422e-05
0.06436903319290181
-0.010426889822413202
0.03776268626403492
0.027831281467176797
-0.04665376049907397
-0.043318886776237374
0.0043899024574510235
-0.017740384001018333
-0.048081649516984855
-0.020114156007944778
-0.02610645661719686
0.06668878372232917
0.036512724367512774
-0.008554839921234144
-0.11870355300911531
-0.027693629595491764
0.0025258984003975514
-0.0049749317854239595
0.002378655368846959
0.04182539526244394
0.004763813238965258
0.012225923491361512
0.02540750902800972
0.15891001697068902
0.00600046978184488
-0.03988154026920369
-0.023470909645327408
0.038246460243876707
0.06027712015081892
0.006698965864219743
-0.016219708633097445
-0.0013839551514365463
0.034618511578495464
0.0081973258025233
0.017743060436887503
-0.023701147942576658
-0.05191293170492535
-0.00937749825802315
-0.039288583378992895
0.031083913030669957
0.08725142051668279
-0.03321732156953449
-0.10692692082878866
-0.16148493036971795
0.13115647890699708
0.11485658852599899
-0.03508941693280443
0.0028614896648098617
-0.026730159138816614
-0.008879643580685315
0.02770793834903089
0.023336833449664956
0.02709406576490941
-0.048346107794165365
-0.04479254296253848
0.0009221002707314646
-0.01967524111407146
-0.0340966919859462
0.024047311575420467
-0.07621290552692755
-0.05477843302760302
0.044162420948719555
-0.051932837410911085
-0.020470129249114986
-0.007218465981745017
0.03313213172084114
0.062477603862684625
0.01057675894548319
0.007035306028461439
0.021456440984037668
-0.020396639834355315
-0.04113537979284298
-0.016269640172961335
-0.038865977898011016
-0.07831834584271981
0.0663177634987744
0.016668487668997773
0.08739857468305497
0.12443140717505435
0.03224464072808389
0.01178962460203569
0.009007552521160504
0.05766710980364221
-0.005469466858750467
0.01344178313515105
0.005704085414450272
0.0037921780026706213
0.025605771333734453
-0.00672040499609767
-0.06770000999604707
0.022085230397298095
0.030529932049082848
-0.048345035392154595
-0.006464892261158182
0.00441042785339291
-0.004427464841245856
-0.02396977921579055
0.012970583745651368
0.02190622389801227
-0.038293739317286364
-0.00554017710107088
-0.013142203760376921
-0.019796507057422946
-0.030510751775413125
-0.045727483940581265
0.0018314711677150524
0.024507656681618622
0.04989564782106481
-0.007051475773848491
-0.05664471976273616
-0.025123124480040365
-0.05846394770106273
-0.05262192827661258
-0.015243149650300982
-0.01843973865666121
0.01683660727032243
-0.013701529553451183
0.0018461706491736743
0.02905469343972888
-0.0475916022761617
0.00369330857722183
-0.02432772458519118
0.017095895717059603
-0.01813430136616266
-0.004571087906217076
-0.004106495876048705
0.06559643300978744
0.08073792454211731
-0.003052343790648911
-0.030482910788744447
0.038963671080869386
0.046611867637001834
-0.029756588344304634
0.010046145525792532
0.07636004367194843
0.01857813127890769
-0.006606378620048088
-0.010393617610014432
-0.014228457691185834
0.05183587350344585
0.00129396161729621
-0.026423016219915392
-0.006369245918565158
0.0006064927904914221
-0.0855848695594152
-0.02750568017265764
0.043240229598740396
-0.02815860374075565
0.0629664133271582
0.08117533619981193
-0.018497766459705075
0.027960345617383024
-0.04184650982085909
0.0671373111818679
-0.010616861229121524
0.019235314486142182
-0.04794735681004029
-0.021709741153458206
-0.030673791678595873
0.006183858415005488
-0.01678808452234151
0.01165916139593352
-0.06199256758285205
-0.06562833650726803
0.010371212626162953
0.024753387227018656
0.06078561427535623
0.07716857668499036
0.013108283247582155
0.022101884326927716
0.02390916246707978
0.02814580380117331
0.01854715199376547
-0.053590685771841146
-0.06716593990840194
-0.017456531210393863
0.049104173032658745
0.03376628107052847
-0.007479886156383609
0.01596114333137554
-0.0939407627347746
-0.03754733975349047
0.03853471403806185
0.004705453992114127
-0.011559658762867147
-0.027182934893216913
-0.02229164205479508
-0.026421796944456677
-0.010730529752018115
-0.013918821465818573
-0.02201546245424307
-0.0385817650969716
0.014307258052015893
-0.028248119592014103
0.009718730152481186
0.007950538235295426
-0.004845512634848988
0.03868639859218516
-0.01937010747896335
-0.0017595802702482317
0.03425321059574117
0.05050060394606768
-0.040156034831717695
-0.005037200231167847
0.0048040162612031714
-0.010730808922967832
0.05127354625062638
-0.03303087709823437
0.03790179362785566
0.020448404535429027
0.01837140541354583
0.05538432773782772
0.012429041385503785
-0.03634738952414286
0.007944328082241076
-0.023858136258786567
-0.0162094216639709
0.02324165277509711
0.00897609006118175
0.007242711341534291
0.04618691694086989
-0.0015892301231936032
0.07415132167749781
0.032971062126960715
-0.01708214925922113
-0.11480850163197061
-0.08800457622019776
0.05262760132807164
-0.0679244983953724
-0.03781713136676038
-0.022151971301987
-0.022434816916987736
-0.03566501683061312
-0.005207141356228031
0.04801212679747451
0.01963835309399793
-0.001611136450873608
0.05595425802303612
-0.01919440005624761
0.016669406871702035
-0.02330139623559642
-0.032145415157595864
-0.019254662586341103
-0.03788279008058331
-0.042892424742160803
-0.03807096832796953
0.02349357403020668
-0.011286462789633162
0.01741384837269655
0.01314967961504065
-0.046203370821658846
0.004345794179421647
-0.02918839876857962
-0.026104838323443666
-0.006923827510072175
0.08393503479634822
0.1989101556390358
-0.007414343713760446
0.016765569365946604
0.001366643970032992
0.11995423903839611
-0.011000765980069473
-0.004545148751219718
0.01973968391512983
-0.033432733480505177
-0.010134986860114926
-0.04565104092273065
-0.022957609656038415
-0.06907116761763196
0.045845059646677636
0.05836184519404447
0.039430609453521205
-0.008432577937038872
-0.03771558288452624
-0.006321111336337768
-0.05262449289694161
0.00800908660978773
0.020108029258596134
0.03108490843481713
-0.014811237587568903
0.017572009961384343
0.0769935596370485
0.04171768586259479
-0.14635732287851494
0.0083443569974762
0.06108912469026558
0.03055916619056364
0.015148981822167193
-0.017628455609114257
-0.010213508782838391
0.004359933296510456
-0.03255639600023002
-0.02207120416908157
-0.004587015815180468
0.02972550532870773
-0.02996464421787643
-0.048818502691071866
-0.024449729170365905
-0.05444812620314277
-0.12163505224125952
-0.011319446635526278
-0.04937850080274327
-0.027472652518236704
0.11992993116416795
0.11739806268137014
0.15524522956067355
-0.0024786041981485008
0.006289700463195247
0.02344223537419412
-0.00744833925667366
-0.020872293837475964
-0.010180746334091124
-0.0602200864519672
0.01442270648593798
-0.012770387136240312
-0.02039743394767891
-0.012915640592796866
0.00023018868472064632
0.015681953780793907
-0.01887001512493983
-0.005074907673476191
-0.0030567545023857806
-0.02807069126074729
-0.005471211857014113
-0.04531177438115012
0.0012441631712834292
0.004173451734082411
-0.029701582840233616
-0.03656465264160625
0.04385156671445893
0.014343661214489123
0.04200702878899123
-0.008645478357315467
0.007297501659597321
-0.007121863954207903
-0.015586424938682158
0.0016200677792603108
0.010397345574148032
0.023171738168676723
-0.0069311399093436935
-0.10180359769187597
-0.04726202018585936
0.0014784920515829591
-0.010646571672540763
-0.036335648534955994
0.07221295806765105
0.06260768702702692
0.002623169864682596
0.0024410237278552284
-0.010981349997738815
0.048706540084601874
0.0797513836803041
-0.027323134342549377
-0.036245434947226575
0.15940716528070212
0.09628584397122777
-0.11498419238080711
0.032002090851294754
-0.006398706337969374
-0.010099765627810177
0.009471275320331665
0.021072161258307152
-0.0573231719300139
-0.06412297201095153
-0.011133778681774115
0.0024137564367650403
-0.01820790174464837
-0.007366819485954754
-0.013429516748380806
-0.02950281156839293
-0.0027043169302005702
0.025709265249414828
0.022693220821534316
0.030388420179061616
-0.016424115387448597
0.04851685837986577
-0.00010673250634371305
0.05405917510427284
0.03290591246327717
-0.007767755246651161
-0.021471674174633294
-0.04293091593649691
-0.033566972594006546
0.0020685234291550427
0.04261112069766885
0.01640703343781484
-0.015146999373772221
-0.08841972080357643
0.0273747295089707
0.06332890842453819
-0.04822023789667393
0.007131200115841043
0.00866192719786012
0.005414948811951304
-0.042416633716932516
0.13216343815842516
0.068091729521541
-0.009721904524701131
-0.0822453121736684
-0.16334602014882638
0.02473038777780207
-0.03708620489497058
0.01671136039161123
-0.005263516745601164
0.011333131931146496
-0.0004109978091422526
-0.0027371805756897195
0.05276348475456377
-0.0049805018959077785
-0.031248279924795116
0.0205835010460846
0.03333496917195005
-0.040070981807756305
-0.12659300420771538
-0.065680974840716
-0.03876236142002012
0.03194705247833004
-0.037818202074217266
0.042890032192990264
0.046131263469255404
0.028737547431768005
0.0011640864045128112
0.009991687992496376
0.0033849196436756186
0.04257512316834148
-0.03780298977642236
0.01454781337026688
0.03822533650901093
0.008007131524926474
0.08763894405763126
0.037865632768766665
0.012913074478150498
0.013162987794365208
-0.016038366989456505
-0.005024602983660938
-0.014879063738645093
-0.005625018938414652
0.013249547688106222
-0.009498783415694823
-0.08211478686374456
0.0961812261772734
-0.10452532807375166
-0.06105724464032635
-0.017409679814529976
-0.011236116430129683
-0.030749532942527635
0.0121168736948546
-0.02066444216566224
-0.007998371873523882
-0.03036304049165993
0.024309221495962825
0.09684233947187913
0.009782140743843565
0.009582282391140517
0.03470653088303797
0.04643085704713912
0.020827614500245395
-0.02888643609083255
-0.017819923706379474
-0.02084846466869347
0.013482975870129177
0.020214245342502848
-0.021464192407824743
-0.0429280592163203
0.029482946618522177
-0.013008903908374586
-0.02901390605653678
-0.029403880449823002
0.004386899916330347
-0.0053706847772561185
-0.030528174391697676
0.008105266083688566
0.020951518449428896
-0.02997303096823178
0.022859482944644575
-0.02058272768070978
0.01815660381253638
0.0026002752501551657
0.12643615424173424
0.0677553141632987
-0.05982364940560868
0.0213897802522704
-2.9412906142789234e-05
-0.06900764880195066
-0.029556537236423788
-0.023011099707923834
0.007155422255905562
-0.0021429987969189437
-0.0021663233455364037
0.0046575883181255015
-0.03731319829120176
-0.027517156623834953
-0.02999093753842183
0.0033776904171844836
0.1517064105428097
0.08158864225183504
-0.07342434930271025
0.02698767863170735
-0.005366539317985583
0.03237614947158663
-0.02781201008069013
-0.01352651427763757
0.07141031784115441
0.03721080488861135
-0.006173888776811673
-0.03001505018022257
-0.03435644939983027
0.04069420682049979
-0.017823980212182663
-0.005492099396245885
-0.011782282212939237
-0.017857169489424375
-0.04620284972756981
-0.029365350668389485
-0.006952280715677042
-0.12183018502278063
-0.04876740154198833
0.007593284924782671
0.03084554209388457
0.18886877148686765
-0.008139874626477134
-0.07225162877596777
-0.01564813992364368
0.005294005236911194
0.0460492973927669
0.09090352612419954
0.0030543031744423616
0.015216838599100566
-0.008247290813520573
-0.026461187369677137
-0.03187756873829066
-0.04062231353181101
-0.013666248042904502
0.009293333481224722
0.004244312653789875
0.01197818839529949
-0.011265485159340833
-0.0030111926965560474
-0.015321893418164671
-0.00913613644880404
0.05133066445299822
0.01434330008246828
0.10542999607063586
0.07592367224349002
0.00955047438637978
0.041150152898726054
-0.1576287109909639
-0.09073322630278574
0.010599492946669564
-0.013034731949811779
-0.018694423753721587
-0.005542322827848824
-0.05515673030476612
0.0031869276467683103
0.026046814600157057
-0.012073820220665225
-0.007303622626381885
-0.005709856370248919
0.030757872369251312
0.044620304312051724
0.01776562801378601
0.01843306098211564
0.035859300779555
-0.038232636368990665
0.005853948602661559
-0.019857000648472255
0.004221525475965466
0.03514003410821813
0.015006818537421269
-0.01135578223915749
-0.09772113768068061
-0.032046297518426956
0.019303370288657095
-0.011807769075452836
0.012051460398926921
-0.193871462640659
-0.04958736376419238
-0.011174776062672467
-0.01338276377245214
0.03149770191548121
0.004132346735741825
0.005332164867220205
0.00950993429555393
-0.0409173736732148
0.06783013996877096
0.0932330268137089
-0.011251453667598579
0.14027612865468053
0.04544824854822587
-0.03951549783594453
0.034919074216033706
0.02977988745737579
-0.01600098083121021
0.018629063241111958
0.002360114716156062
-0.022146603982726283
-0.004162847918659499
0.0013402877324779267
0.03049306865293896
-0.016593790082544767
-0.012633110350490476
0.058842016276279364
0.0034032965469579504
-0.004342028018412956
0.04321522724947511
0.05988249668495744
-0.012710415587702367
0.014172549412412595
0.008056034791413862
-0.00466076203574346
-0.013886103324363491
0.008151577241152055
0.0005082708850392895
0.01771161454101718
-0.013469378963251613
0.01679604792635495
-0.06775902277298865
-0.08771269625768209
0.013346603362136758
0.0765036390102306
-0.035948646699196334
-0.20820805769592882
0.018434469486909258
-0.01168945242166331
-0.004509222511101729
-0.043276953537604176
0.01868491660023547
-0.019545303845449752
0.013061994276654732
-0.003995499840172882
-0.0028691501765051894
-0.04718991576573674
-0.021443335930570188
0.0459539542720911
0.026170749364142258
0.009928193079589509
-0.09542618663974974
-0.050452125978172814
0.015839802839317563
-0.015509160035262797
0.001794122245139336
0.03793168433669435
0.06310541385263366
0.0476100059800891
0.01233638103177692
-0.012541809489417428
0.01697250481543372
0.03617951903518081
0.050542220575159134
0.05157466844834944
0.03337118353487275
0.017795198814528145
0.0436470278479319
0.01812991488148998
-0.033660515684271926
-0.01114893102590879
-0.07866702622324193
-0.10217961026033062
-0.016323458232692236
0.021737018956019576
-0.05566889075674284
-0.010202750113112438
0.03982252349938256
-0.0021336253696967633
-0.04359791469837874
0.03798455840860046
0.054278875929835706
-0.027813740306542323
-0.027333088558733093
0.0048050398350422295
-0.020146939814024226
0.05144403430946133
0.021733886117654873
-0.027688569895339955
-0.024538864582873462
0.03754917694509622
0.09195258805012363
-0.04312904707726398
0.10322512071712447
0.029263080704779777
0.008304560481732113
-0.009389083929050178
-0.003187612664465115
0.007271669473134111
0.012006961924219345
-0.06213369071262707
0.1558799651497467
-0.018974639650653356
-0.11442281440320475
0.021372520708419523
-0.0454285781062502
-0.01379458259511283
0.02293164812413498
-0.08755211569707755
-0.08743604324959445
-0.009017437049771766
-0.029445092337029927
0.019275562889850745
-0.0072274143327041756
0.040341827502957006
-0.019005990461723722
0.016330390052789856
0.014429404599551365
-0.00025182074739060577
-0.0709859057939454
0.016620583818016958
-0.01346416690503854
-0.005488910134797895
-0.011541304516351108
-0.00604475977263205
-0.02908259848502173
-0.001425194760874771
-0.0273506304095247
-0.012955556584301654
0.011915634098997
-0.0629264448841176
0.07126558164753215
0.2344900630350567
0.006970885840431248
-0.02712146777987744
0.06849442888811941
0.0077892838225015635
-0.05926291691558007
-0.01304489819619836
-0.028902364546236455
0.002448713964195172
-0.012504484056853041
0.019433573401889837
0.01195667140142411
0.0730508314495342
0.03452767737387192
0.06746574867039254
-0.08132443952058233
-0.04531158406188316
-0.004319069289309676
-0.0013471374282733944
0.009947444367519586
-0.013140542671830745
0.031981964034504026
0.044103982175422295
0.004445854354628108
-0.018359861133521876
-0.012141834026738301
-0.014004367277291579
-0.014494064340754662
2.2568495134992595e-05
-0.011578039393157094
0.026364191616749442
-0.031749605537746084
-0.04547615817944576
-0.07153401615529142
-0.06670767468545259
0.04470691131670977
0.027729345472825573
0.008413003207400297
-0.017303133883765625
0.007642821280019967
-0.02189788033410361
0.03630136875247784
0.06859433818918549
0.009923024734155381
-0.01770568258738769
0.007975064878555411
0.006294667298202029
-0.009319569693204396
-0.003379929196056842
-0.015275230365310864
0.03233946721111615
0.011382884563693716
-0.016530473650754763
-0.04901059533233682
-0.08192634304279389
-0.038154123837578845
0.017684499144822736
-0.002795432000782227
-0.019383491335237615
0.01884609153880616
0.0508962494248001
0.0016397704607558677
0.0062264258677719
0.023930649483999124
0.020740108017366927
-0.037622095071468686
-0.030564317730307156
0.0018393313764294966
-0.004512806331005416
-0.013174574254944768
0.0005583603249787424
-0.004349010527203834
0.00787820219422265
0.06717995858132264
0.027059397826826027
-0.034458071316298335
-0.01738465826454533
-0.00940896275455148
0.03938301104626402
-0.043010127020209676
0.033897076049315265
0.04530341421438588
-0.018465660948839543
