0
-0.016439748096482635
-0.018216799523691256
-0.035439520252899946
0.01661382754436785
0.007921283215221871
-0.008118048605455178
-0.018252333113438376
-0.00755414783690095
0.011354181669886044
0.00915266624243019
0.004658825444494003
0.01005562333890506
0.10356090115545781
-0.027501295337622116
0.017947646696584454
-0.0057608057946755675
-0.002687683424327475
-0.0028025370249006136
0.011113678144672165
0.012454636580343978
-0.043427933116438965
-0.00357932608438208
0.02862267234664714
-0.15606345655597134
-0.09114854874288011
0.07244753226273322
-0.12416797375347254
-0.10334161093466279
0.024092425277191763
0.012902341228578303
0.17429381372038674
0.006557265999418847
0.021083513388681828
0.031052652419119326
-0.013115743903789489
0.029656856241733334
0.006958808843654937
0.03452866708061315
0.03706731693700805
-0.0004592410717959377
0.047582410781800207
-0.03280287744203996
0.0021205830545169896
-0.10880591184750434
-0.12291288837885243
0.03796522223235753
-0.020413322133971738
0.029088212970150417
0.011648444206543465
-0.021408023113583544
-0.024938813941217133
-0.07317554182224292
0.06053647589030199
0.018620239815669182
-0.021125834876381845
0.004939876794604343
0.026616780995381343
-0.007492251708234667
-0.009843437732958699
0.045045047286512735
-0.014518653134169581
-0.06117009659792231
0.024859575525967872
0.03620475044637801
-0.0317683594834158
0.002205115921227282
0.038020594193644675
0.080059784058247
-0.017808992937357774
-0.01956450207986918
0.04003034288507469
0.013595063741758286
-0.006373102308384386
-0.0015149419217449257
0.0036487944128731687
0.017493058534436327
-0.04221566938104643
-0.05724732936561308
-0.010985247911945299
-0.015206717732329017
-0.015636275381804614
0.017923094083637413
-0.011841682814083872
-0.024250255720762094
0.02647927040940613
0.051481891606462556
0.018197918422180756
-0.00034303589265651484
0.00937424646787867
0.0690936464218754
0.02135935965577048
-0.125898505477887
0.028685797790339227
0.044988228936876894
0.012849399510813838
0.03725792045986278
-0.019160175047460204
-0.0012154960068375298
-0.04345345043601741
0.0041463354851437925
-0.024463371437788244
0.023633519565349124
-0.0003245877889542911
0.014014230369838654
0.009713310704932296
0.01036727175938758
0.013082019575569518
-0.02770062131284149
-0.01810183021369108
-0.012269478054238718
0.024469966529388973
-0.0137446290647114
-0.039395137400063604
-0.041284643643304204
0.011459164599638744
0.03694155652584468
-0.017726542658473392
-0.01767210474285703
0.03459921790471209
0.06383101740262766
0.019571309479741728
-0.0026835006295696535
0.0018003824495027047
0.04346399247252676
-0.008765356867422391
-0.01416134163362519
-0.02047546494901183
-0.022801699185185133
0.09835515270196216
0.024136899102569845
-0.05003061348980496
0.015478997182327186
0.017294792407292994
-0.0583887934649658
0.0018878755000593884
0.06064249930946163
-0.005432214064060005
-0.0006920499435244056
-0.018202172419942823
0.018113781462045866
-0.05873585643463091
-0.06706285630375354
-0.01670155090973519
-0.03810339456843894
-0.05720381878737328
-0.022832903735664684
0.016798373493924525
-0.02809968328165084
-0.005289663289937557
-0.015983760718705515
0.01903896537679267
0.02815810422052098
0.05407618837300392
-0.038847624495034434
0.006340098524221584
0.002338016326503943
0.019640301951625562
-0.0292248535981466
0.05575090232524157
-0.052652865600082525
-0.0897976327619202
0.012766503231265333
-0.015757717096377234
0.007428250235165681
-0.008559955998076215
0.02938419347839997
0.01654979494435103
0.02005948533739624
0.045002802770479806
0.06826021757406663
0.025151036353412697
-0.04067528393979606
-0.027816250667894928
0.03343918102637859
-0.0009276930183964306
-0.06872152921193644
-0.025810720516367302
-0.03651173041691193
0.011255799863913346
0.013302540291337374
-0.03688572494151568
5.924801810241993e-06
0.038229504045976415
0.015014648662351925
-0.005393413093478759
0.025848559784057087
0.025637316091694624
0.015399912216798274
0.0032632753699371646
0.014530951056403415
0.04204625896936675
0.15751205730363005
-0.07704434566855688
-0.06353994174945898
-0.0174828097733818
0.029250819719115556
-0.0051062510528922436
0.04205133550980474
0.004848030239530674
-0.03157858867165289
-0.017480013762274507
-0.005706646740504489
0.07308846389530452
0.016147941436488997
0.0363329265963686
0.009428552287662102
-0.03650270046844741
-0.01854506086022064
-0.0006127048035611137
0.014993980752641927
-0.038206760934092684
-0.011668391767079156
0.022613713717491466
0.01859372103389798
-0.019497614872562772
-0.11907007122545836
-0.021177044148763764
0.03675501671256652
-0.007595300583927013
0.01933412278306345
-0.019919780158160368
-0.006202819665159168
0.03131786000892957
0.006394029229879427
-0.057904679745141616
0.03545760233296466
0.009093002850943898
0.039528509773193735
0.013203802945160893
-0.01020071050351646
-0.005000025413629144
0.025828242133889564
-0.03574308478306489
0.025509532054227225
-0.013521641635432905
-0.0031460216209435927
-0.0100179149663579
0.021625455212446063
-0.0405168036779286
0.06511366734039191
0.09689011945114906
-0.09346173127466371
-0.09647850155159464
-0.07198826722640995
-0.03590303690712408
0.007300289876180932
0.05291381393165622
-0.013068699129636652
0.006592500227984503
-0.015898529529493447
0.027353449671326347
-0.0022228331266343345
-0.016114947622416886
-0.0049692262910736125
0.018863294670074103
-0.037551007772472805
-0.09516275441314334
0.0024781838336595187
0.040426184795597335
0.07538639703119338
-0.0032853441453718443
0.0642398752073651
-0.07947037154442858
-0.07136832803894076
-0.015563780879659903
0.0693498859217269
0.027531084192001933
-0.03032699844280547
0.04832557260705878
-0.023211969317997624
0.0025021040637226407
-0.012392328123371781
-0.022902700051873368
-0.03037922836341023
-0.03518601300898668
0.0186792061729392
-0.007196440454220238
-0.0016698369493864961
-0.019479521361692804
-0.0005616065476645115
0.044020257885372845
-0.011362320028765102
0.18476319261496268
0.10635943987848173
-0.07799823110311271
0.06283714362009842
0.024181405663664817
-0.03340473938367549
0.011276987744598722
-0.04057301882143937
0.048967058325926904
0.024897116640840114
0.0007748754600689574
-0.022115061094163304
-0.017332472498767702
-0.08690847236818412
-0.040203532513974655
0.020137225650462852
-0.03516494744889807
-0.08679607425117879
0.027959263534961906
0.11194328770625296
0.047292625640854485
0.034260739048301764
-0.050488650802426316
-0.0035645301394634974
-0.051006638833557695
-0.009284073637143219
0.0025514873178373496
0.020163590478667757
-0.026662931113270356
-0.03167301534918207
-0.01615313554231582
0.0704606111900392
0.006053562335868056
-0.006869437476539782
-0.1637471666738202
0.08541641537709074
0.12701372221267826
-0.014672273938167012
-0.0021531020429127285
0.006771683041580349
-0.06173689204638191
-0.017319545583743576
0.01890229479164889
0.009510506348738148
0.030051438799931964
-0.04014368700031761
-0.007691680547340204
-0.00815064703250048
-0.023519039983825284
-0.04762573445806886
0.006256514521547759
-0.035005726565810205
-0.014278110743820334
0.0018048457640617065
0.016785178574076968
-0.008062636643269176
0.05153886529833105
0.027285909317116084
0.14978669917248086
-0.04231208327068121
0.12233472392835666
0.0393948865848828
-0.02060791358040696
-0.03425459086672779
-0.037953806325100314
-0.019983112316306954
-0.08146599347102104
0.011855244402474461
-4.218642588477643e-05
0.026861475669041245
0.025599467851226743
-0.009510764560455201
0.011663739508823349
0.014841922030754889
-0.013226436249425797
-0.00818723391521589
0.007640142912565344
-0.03750704341912099
-0.0016166447414280257
-0.004089511269090513
0.0694050049138364
0.0199596855700971
0.010387679919900455
0.0007517059140995015
-0.04084299392852593
0.0031201038950137835
0.05106894616244308
0.01587086738301262
-0.017295068966051753
-0.028311969520608708
-0.0015954263432935603
-0.04838550988589191
-0.008454813546536568
-0.038127823489879434
-0.051694572961172615
-0.10329589760636024
-0.03533065905223242
0.0015387999637340168
0.03302674400195614
0.09446810135203276
0.05179892287177548
0.004765724207361683
0.014255839810025654
-0.020844294346981408
-0.08694610962335479
-0.0821905737700955
-0.040217160353026894
-0.026104823391323227
0.007675451786526039
0.04953595732970348
0.020643146163840005
-0.016888580762145028
-0.012844907077867453
-0.002924249173135355
0.002042677747977516
0.016319139659695187
-0.04408556656600255
0.018670322216947404
0.004331976542017792
0.020210583743562972
-0.00010086230643251032
0.009763161984073999
0.0014198829685228317
0.012079233458762384
0.052331405761726485
-0.01693557298640607
-0.021627784115032196
0.19498250205123785
-0.004600016553318596
0.00308319572631836
0.009025407530881649
-0.02719924069306332
-0.031241423852853476
0.027161615484675425
0.017413106118115362
0.003168734215225799
-0.06282900540140217
-0.08448526597360494
0.024912362203383033
0.02913670863897569
0.00572026053320131
-0.04717940218358496
-0.02084260668659831
-0.020402079201344358
0.06949715173175058
0.10858874490863772
-0.03556518941697166
-0.01932534898592559
0.01737388953967565
0.005584239496269465
-0.006203895823621869
0.016344686808264185
-0.04661702375419738
-0.02761082300018133
-0.024056865240925197
-0.014915674967585293
0.018202901650124923
-0.0012166526799880237
-0.05363347327547748
0.0026064003586894822
-0.006529848284565644
0.027160259644829626
-0.005697305705050936
-0.030578221209570086
-0.00316938497704236
0.14976383842380944
0.018532018260478747
-0.055554782186927464
0.011575030965564947
-0.05678254047497936
-0.00039780673799724026
0.022635749238182335
0.016591626392654067
-0.026357748399884435
-0.03006019568393009
-0.0017964189969578801
-0.0071260776975995655
-0.02462259867603572
0.0014808448234547432
-0.007621147675328583
0.010125905091763749
0.06152170465103285
0.0025454927574521218
0.04329935120866196
0.04678995965485562
-0.01227363729045888
-0.08742275141850714
0.03387708159137496
0.049809636740926
-0.015505367631100603
-0.013564462778311599
-0.012319452863172554
0.009963410564000566
-0.00039437865409931955
0.00842634313800503
-0.004990739115941159
-0.017963159560455823
-0.004937125361086115
-0.015865734175613502
-0.020285768030255696
-0.03536641150052131
-0.013865411980092154
0.0012898668955402394
-0.0359748771930817
0.010303985026925064
0.030250294419833734
0.003069311913235975
0.14574944507923154
0.1574774836843599
0.06351377354095206
-0.03393276922498664
-0.01178224025464047
-0.06367808822112647
-0.00040070504963223155
0.01281370951519713
0.057388207315846956
0.016630847793022707
0.025251679676662434
-0.01709926755304853
0.017987615791636675
-0.001766845861826462
-0.01802120137483772
-0.05056386536343858
0.032469650939039085
-0.19264136555149192
-0.018624844958713565
-0.03757437032286283
-0.09095286931282147
-0.005837394589755276
-0.05568270366412349
0.09145675774036029
0.03394852636848219
-0.0093106597521653
-0.02932923597711353
-0.07854656600573298
-0.006522615264500422
-0.011493654746027716
0.028294049701597428
0.06068376232313819
-0.03641584635974401
0.0011443361329003246
0.005093936236012002
-0.0039474525653604995
-2.7964938629205802e-05
0.013186660925372747
0.006327420123503792
-0.010763797912376782
-0.017845503001697745
-0.0002663701734539386
-0.020443849583217044
-0.011280992030136085
-0.007215443171384482
-0.0020806115099462133
-0.02256871507604787
0.030314845371536177
0.046955493324224155
0.07909383815682301
0.020310899579596153
-0.00584583570359684
0.016644373150857875
0.010903099134020811
0.03744531547378574
-0.046510353250927436
-0.005270011925888992
-0.016968507435996337
0.010020313973894527
0.04244717130134114
-0.024455553102771817
-0.025946629819013637
0.0032991008318465492
0.00231250154097266
-0.003159048298764892
0.02830162324483177
-0.0004048860264065846
0.016891656611555485
-0.019190026744122332
0.04718732058664328
0.07119789121058684
-0.03791754062233246
0.0009795428122248491
0.0032871377785225826
0.009906411049708637
-0.0034568149319474622
-0.02627383792999035
-0.004797107024646676
-0.13723680045592435
-0.008552161188948196
-0.06310291389606426
-0.06273560845145365
0.03559940649935006
0.011049732964095288
0.05785662534724595
-0.024541236700515355
-0.020600799368698967
-0.006893695669894802
0.0028015927908563265
0.009891145001428741
0.019792778323011132
0.04215953630202596
0.03362967918644486
0.009712054149857648
-0.0005733347674262036
-0.050491191964633766
-0.0245589174155817
0.004594725559214561
0.030040203425138717
-0.06720810080972499
-0.01047516336787245
-0.00075947857304845
0.0069817359020045025
0.011249441529576496
0.034941621742224926
0.05534957942750669
0.012231990536355453
-0.029356027014939615
0.020323450928053027
0.07997374525188407
0.002717221319560636
-0.029696669382609252
-0.03916089515367471
0.007458834054214424
0.22837110310231107
0.032965129803080716
-0.039166011967971245
-0.009367112248851684
0.03559856858083456
-0.09794917124843054
-0.038750380539543564
0.015467550212415618
-0.01712757301842727
-0.009364087931395744
0.010338785457700098
-0.06573475984908445
-0.08905132293911058
0.018417862754511644
-0.0357035578493568
0.007800978434491238
0.017238715461687194
0.034391103132274496
-0.059948754202181785
-0.018478359566227294
-0.033616274458615904
0.041504300740616874
0.033350515121053435
0.012539864367756177
0.029777293544655994
0.006161575071984093
-0.011226493900902988
-0.001958114333301461
-0.033181091373160394
0.03358152366958355
0.00169673512099491
-0.025219915214517434
0.03229207370815849
-0.02127457218467922
0.045094522929939554
0.04016693191316664
0.039069349536842116
-0.024208383353394494
-0.05605608026908574
0.03395608611804932
0.036122021094081094
-0.00025117074944613107
-0.004453626669034521
-0.008180930903663657
-0.009292965616626287
-0.013667413741465734
0.005054577115002464
-0.028849303258688862
0.008909519839108478
-0.027800228915656623
-0.004075191892441539
0.0010334434178765595
-0.013974916321658936
-0.03540749934794186
-0.008355022070685756
0.02013037853297224
-0.0014681584411565095
-0.03731293122710487
-0.0636818884243595
-0.045633949045506286
-0.0030740869596790157
-0.012176997400755167
-0.006008468169824378
-0.021576125159417096
0.05225736670604159
0.044783621022199245
0.055857798572570797
-0.03332722085763983
0.024499468817323337
-0.02885235416331132
-0.005634023326012611
-0.05024569525251167
-0.025877933241860135
-0.04584605323098604
0.044732938444329746
-0.005983691989974502
-0.004954671578213204
0.007628275621555022
0.0337982562046225
-0.04617626153032633
0.10398327975931282
0.06507924913994158
-0.00630994879322607
0.0161599266030716
0.004229199529122612
-0.029316254646483023
0.14701016426634436
0.09879357243410346
-0.03449607345553858
0.00488031191435468
-0.01638404844846413
-0.02135695220287787
0.04322840263505598
0.030418486846421774
-0.029249513935203093
-0.019774252079572084
-0.011098169831324733
-0.023765823105581535
-0.021805244205007693
-0.016287443946875396
-0.0545058089493338
0.04128078174897123
-0.06369977282426605
0.0556096586349082
-0.014041511860679262
-0.03535548565091059
0.0013793183623768395
0.06544951726027044
0.016624313767251427
-0.006579796310646616
-0.023917950393766374
-0.009011106850102374
-0.025992949935761685
0.0039614662125337236
-0.042800408501115425
0.002548044188200225
-0.008418397718436948
0.014844480317567106
-0.04431882971867829
0.017766035823497443
-0.007662618868122307
0.008552373179258098
0.022401912167595295
0.01496020326314114
0.05233176821697945
0.009444174562702032
-0.009171227582248476
0.03410568833967066
-0.007799414742921153
-0.05735172639706222
-0.015954786243156757
0.013368738291070164
0.0371341972028226
-0.02804212912605822
-0.003959915899618799
-0.003127616325979041
-0.008299524849701343
0.025855781540796235
0.005930764669924354
-0.025179671738404623
-0.01297390092615652
0.011317796842610502
-0.013907497778785964
-0.0466677790845263
-0.04763430305050314
-0.017355605218769662
-0.02692651907017267
0.0351350048697285
-0.03667974707411783
-0.0067079157215973175
0.05244962284171013
-0.0020870426184971163
-0.04023351800929345
0.014919012430177238
0.01960086509257536
-0.09037968946270321
-0.027207988162468652
0.018830040997659274
0.09872089909911189
0.07390536392831033
0.032117875977368225
-0.029611097046400567
0.01690933182990247
-0.01127193835341422
-0.027260378630427413
0.025417108792683264
-0.016353125262693235
-0.04811660055873642
0.000984510500359556
-0.014189651014320577
0.005966081081184507
0.11582120519378405
-0.0024530764064107555
-0.04581752685563446
-0.10289532695819474
-0.028828288315048484
0.02493411694703826
-0.056252974584543314
0.03380360727174444
0.022458933993839674
-0.04234175548793289
0.02234331988890208
-0.0431327459165074
0.00805505985065113
-0.011517649752331402
-0.021156238415093398
-0.040802704785774996
0.16040635957232716
0.07553272203904553
-0.009101480487265055
0.02839405886568076
-0.008795567566266406
-0.01003033740381358
0.0652299473536606
0.20067944949999872
0.005290393485908181
-0.03419061715379254
0.006117985987674713
0.07402200302431859
0.0005787710530414636
-0.042439065014776074
0.0019707328258797346
-0.04179571616984172
-0.041371813591435644
-0.014086087066787227
-0.0037067485084879576
0.009087623477481793
-0.08159828020825126
-0.04789034241499476
-0.05038017112554745
-0.018742695451414416
-0.0017607112528865028
-0.014552891590256087
0.03892503642516042
-0.00840876825492626
-0.011406736764878512
-0.027133667298830433
0.00032644330528229103
0.024707191972995972
0.00019875544914222586
-0.017003092505019208
-0.03064563865951424
0.014676206523539265
0.07345830183533492
-0.10108367801622113
-0.04909196654819604
0.027287301612529506
0.12402859021866992
0.0016051629182286342
0.01583568491329715
0.04997842030136961
-0.004986555082266115
-0.07735979490133023
-0.025107379823390986
0.03004063127249981
0.01009681049579697
-0.02227969495821215
-0.16928374645433997
0.004170528293307205
0.0023371395942903645
0.0047992470673613825
-0.027381628189710367
0.02255299694306368
0.08580729767541864
0.015551551561842422
0.006657135514532851
-0.040906655985005744
0.0036491745133282573
0.03753003827867997
0.02359292294177322
0.011782155033124948
0.09096796203999197
-0.07555826845791468
-0.009637793879463806
0.01816299107232737
0.005849473480626409
0.032009127844781216
0.0038829212628612958
0.010751244246048217
-0.03274409949466851
-0.004413998191324919
9.84945718484312e-05
-0.03160392692057207
0.012589687868349
0.029533635590010283
-0.03639871423160614
-0.040906603612412475
-0.03205344895697089
-0.011602674158862443
-0.011580699332116752
-0.013548192381627282
0.002019734961526272
0.1407642029744544
0.08421116706571097
-5.65509618384875e-05
0.005915302236902054
-0.04751466868047286
-0.024472501738746436
-0.03621349636665059
-0.018975712919784844
-0.016731028377824107
0.01883924573578967
-0.021675745796140962
0.01640194369299789
-0.016224479946929788
0.0426613160428067
-0.00958343386555727
-0.09921034071122785
0.024463782269681152
0.051833913679760146
-0.03406239872326119
0.003850497248312959
-0.031020061844290635
0.01865766124535412
0.11961261933811583
0.044760555514039
-0.0471808528480842
-0.025270815106558105
0.044660289004803407
-0.0019040225278323674
0.010693834243790175
-0.008952855240470617
-0.03293450000842882
-0.0022372908716879678
0.003806847349394894
-0.01720579664695211
-0.017105649894828164
-0.013725665548301047
-0.011592160684500407
0.05528372574381276
-0.07233722116230734
-0.06969489435615975
0.036737094754186184
-0.01115611438913558
-0.025013110380470358
0.028185369810028622
-0.002400597487243438
-0.02113356022996347
-0.03831745543384958
0.021172231838190385
0.0302615366927275
-0.02913929054054686
0.03552534855584767
0.02702694348391254
0.031089471322426617
0.022549828608101397
0.0046428657010138055
-0.002281470439850468
-0.005420604448768823
1.6620452315585746e-05
0.02898100579411895
0.09242682745361079
-0.10212230003755308
-0.033414860172737613
-0.0005055379189385807
0.10136669870309695
0.03265174993678453
-0.003925085816468768
-0.004262143044424667
0.041094425464664366
-0.049442711889240015
-0.10053735703694529
-0.025236003948561073
-0.007768748112560107
0.0016023326691532963
0.04441606729237479
-0.019280605342054263
-0.16816862438493022
-0.03233129373203611
0.003975273510129904
0.0247581849387126
0.03958622326184823
-0.001038644661002552
0.05174908606417851
0.02759441539132065
-0.01709995836907805
0.02219401552994616
0.01878470356565765
-0.004712983782007145
0.08472066907948762
0.003959387864878693
0.009039621173769524
-0.012135935213644684
0.07305749480000508
0.041841000176853355
0.03586362155237676
-0.04422526708795964
-0.038527559965357644
0.04612711467888545
0.0049094353484016515
-0.11859834114664487
-0.10015725047747875
0.08428067497540681
-0.00820889549340954
0.007046905860238275
0.06719202440864314
0.045641586936888794
0.02349471277819902
0.009711993558011105
0.004057178746340759
-0.032549329622034745
-0.0043658156228310475
-0.0011131436244643856
-0.0036847546620450877
-0.0860896409836763
-0.06493148419828436
0.057081037689841324
0.0026349922306027197
-0.03784841610264105
-0.012024993108356866
-0.029925902600242336
0.007458342788623753
-0.039976624757045574
0.02309363857100953
-0.0901896905417178
-0.11864061456765002
0.05792833922473606
-0.019835001027801433
0.030792453109098415
0.010371751846834903
0.02406735567273413
-0.01040529266082402
0.06215689679061217
0.025915398925908033
0.10133877562770635
0.07733656999013908
0.031512355441548616
-0.014877707535975124
0.02290089406431676
0.009677318640602
-0.05362072538707986
-0.2776052017373384
-0.00953874731013868
0.024694309704071327
-0.07123900998306436
0.0452286838936961
0.04107302794673631
0.03595528780281416
0.012605551189322531
-0.015901791925221214
0.00582430381405989
0.056384946442399476
0.03767449505817743
0.000960516301002668
0.007326295227178773
0.04652509106579526
0.031858983602960314
-0.026158096836344645
0.0614126709619925
-0.024792721474820152
0.0045048464278348065
-0.024063018424985236
0.03610936769101734
-0.050123480430137465
0.06526127242578762
0.004401160237291863
-0.03284966469662629
0.033721906511302635
0.02479399806651285
-0.07097201451953351
-0.13422835828129195
0.00811719849350628
-0.08820604026527033
-0.04203595018269202
-0.04034846726646696
0.01192860651717274
0.013415893061016652
0.07053658942665952
0.025920503516258544
0.037955601399330255
-0.06514681047674031
0.05055777074704133
0.026691586358079816
-0.00601273812669707
-0.0032818564456723737
-0.019810289189205677
0.04614355060093078
0.002535210338192006
-0.005793237272484754
0.003108117817240805
0.008545978508871574
-0.06113555497834822
0.0023053571341597394
0.01038302140163404
-0.01828835510837026
0.025224360981384347
0.016083988941034844
0.017752155691596633
-0.016565284657142108
-0.014920601368202304
0.046388482604732675
0.05031849916074164
0.0013884539809987198
0.00846103572886001
0.014122624760626423
0.01021363745666331
-0.041955797917798486
-0.027983675946304874
0.006702195540470947
0.027778760130779793
-0.02269993078557502
-0.010304890367975165
-0.022124739859074077
0.056657184651887925
0.050369634511834474
0.007244875347821115
0.019735462351327563
0.07158258135982334
0.059879645624163605
0.007245501568132217
-0.04887732246019965
0.01809192260355434
-0.04806564713699191
-0.10190035686523433
0.00634170820381083
-0.006265376781525864
-0.053300435906430715
-0.0411412350779471
0.0226915163303197
-0.009926062673845009
0.02018836640150542
0.0062991557430019185
-0.001869979122090102
0.016011375476068693
-0.0012329167172767104
-0.03568026329048556
0.03529285742638386
-0.06637897031100473
-0.07209643584230686
0.019193533687095057
0.02750011322240748
-0.03076175180704938
0.12857826598014363
0.10331464120344543
-0.027933322500601123
-0.03249123753995346
-0.07146484336579434
-0.006255592140590017
-0.014688824680180913
-0.01597533406968364
0.015296215587818867
0.04549468170014708
0.01729657052404074
0.0032083908330812227
-0.009375010709805228
0.028569863229796794
-0.06938779768734057
-0.10494249713492845
-0.010736669409369862
0.015639916543210935
0.008488587382604695
-0.019019423589189302
-0.008306952119239425
-0.008178450904925904
0.0016176875995491348
0.022352471128588812
-0.001299332437641157
-0.011991918782938146
0.018739088556733334
-0.039387369123492465
-0.03331627634341344
0.0005383281793224764
-0.020530087238918845
0.004334969477653699
-0.0020272312120852183
0.011808074850113544
-0.054297850155058766
0.004604155168287709
0.0821867745682085
0.001241058046954424
-0.046425530124247175
0.036526001034218075
0.09894329688981723
0.045748466897732126
-0.025001943523731678
-0.03162079071389948
0.02104953245998531
0.024443474781769836
-0.024608631564738248
-0.031042341360849685
-0.038808635986504796
0.03612830886559305
0.002646155985391111
0.05896002826189866
0.06154458771457406
-0.05332713430505655
0.021359955149445362
-0.010572705384096293
0.03969787933474669
-0.0335851662657814
0.002888411369810076
-0.00030386646333545363
0.058753328871753246
0.0656709752578709
0.025836541323137587
0.08920519925240461
-0.016333957838685447
-0.007636170452442288
-0.0057550379961768495
-0.009490795556295138
-0.01934856959377032
-0.03883914210512179
-0.001065072955080214
0.01734199630554602
-0.013503371985371371
-0.04667623886861222
-0.004729262241489768
-0.02423392659470915
0.01077810502893067
-0.03308409190448347
-0.013647997442232919
-0.005003658372964354
-0.004063794978519513
-0.025282649049865814
-0.005081435478113591
-0.005067678268161358
0.013901611072772163
-0.04432422977997246
-0.02336649541074068
-0.04619239917337524
0.0351116400922779
-0.020559811359638983
-0.06816161457016151
-0.001263402423370474
0.16212163861928233
0.05293006316482381
-0.104164712551814
-0.17068475670949762
0.19159746876927183
0.011923820885261614
0.03221104373599812
0.07761526621888051
0.04389333251486201
-0.025176650703855313
-0.1642008305787579
0.08887838157980227
0.003881278085932893
-0.0011158038970859863
-0.0471933722639161
0.0008691307609508821
0.006904696790002638
0.05067662070333663
0.04310669853058763
0.0046939703457363645
-0.0492825208948185
-0.030383387757917633
-0.06204321897634551
-0.031580089471925685
-0.009549202787323062
0.003912915057776698
-0.00442902482146614
0.04758757537296508
-0.028261969018770823
-0.006995189458839143
-0.04322517944346394
-0.03298265853988737
-0.0289186500217531
-0.003221696962586789
0.02109918214778436
0.05423709434169611
0.024322846302005104
-0.052200040552579104
-0.004288167569444764
0.016422418308718417
0.011378721449516665
-0.005151370118595176
0.19241744332952046
0.05042087919397474
-0.04818378319785182
0.06113222319403145
-0.004261868727516236
0.016556589309697813
-0.05047688303571606
-0.06535449579724914
-0.08132692699896611
0.005751481242318338
0.013515951895091777
-0.030941506895353275
-0.003963453642508012
0.05183774061100958
0.02298366446275179
-0.0056818700472770715
-0.020797527623353962
-0.0024958013261715106
0.01033065073969489
0.02491182838832026
0.006785450069631051
-0.027929760431513354
0.019651889673998498
0.00816747694808312
0.0019100836196693893
-0.02086202241789781
0.049048334904957684
0.03254422379729174
0.0025979836280331996
-0.012111378378327473
0.006966227597140059
-0.04155964314251686
-0.10260107847018346
0.039633639701883994
-0.028557567173376187
-0.09989352265343861
0.06297888471263367
0.09640900937613263
-0.03751545236063398
-0.026056451873938694
-0.0622718147669266
0.07873905019215757
0.010324566914547714
-0.012547014259779698
0.048185379960934624
0.04757616048142422
0.033844038244135094
-0.04295098290008728
-0.053645694497643
0.0011648035912162882
0.0329863402468004
0.05057542921026658
-0.036076727768490045
-0.030194755690945208
-0.0278927920153988
-0.004106505381213174
-0.0021149758569292865
0.06127185156285525
0.016737971669981123
-0.0010529041487799375
0.002999388085188013
-0.002974247321018108
-0.021912352791543133
-0.07156048511869556
-0.06675914147671516
-0.0018733188871685096
-0.019350935859024778
0.021774466175551038
0.008664132812552716
0.015614001230000169
-0.003126375645364821
0.017324537989166236
0.0001766284669582168
0.016995596101175278
0.0055405001621790856
0.03843907927462647
0.04018923971621336
0.019554582689475297
-0.015860905869022283
-0.0020854041452771964
-0.010397842057897138
-0.019414843752869292
0.008327203441253043
0.012003185485857111
0.008961546780837399
-0.00637224405490049
-0.04156027339019157
-0.05155539976418097
-0.03097917994615426
-0.006642131216141367
-0.029020295015836403
-0.018661597426261816
-0.010877512506484744
0.008777128010059317
-0.006259438026655138
0.011377018946202678
-0.03956466107102258
-0.02506316082244995
-0.04313326244197697
-0.01986346912792232
-0.006886948078215881
0.09114098002986148
-0.006786861469985456
-0.026979598137191817
0.0004085981504711815
-0.014164399474179443
-0.021026734884359466
-0.006589166268933982
0.18247976362373777
0.12787964672799831
0.05792853742272606
-0.030942334621207962
-0.02708780991784896
0.03725506990794479
-0.025437130745724575
-0.09126526548276248
-0.06992177522371514
0.015613840467418571
-0.010119673991658813
0.023189924424307493
0.16441199094013603
-0.015342521406294454
0.014159739052917831
0.04040574643379231
-0.02879376643952053
0.036254325224825676
0.039329910613055616
-0.07632545507765726
-0.0004586260443624749
0.02610608891938437
0.05959181505643486
-0.0358552872709045
-0.03500475518651829
0.00354482096982661
-0.014059414514479665
0.01147357676537051
-0.013128415760360975
-0.010812117106328506
0.04173116828326924
0.0006862618548544473
-0.03381440990613359
-0.018203272170932386
-0.0386362507754834
-0.018508981443453
-0.016463860737821603
0.014918435725419895
-0.018801983670168033
0.06732658723684028
-0.09019593464758546
-0.022798222165895863
0.02960692457755862
-0.033262353136896676
-5.495555556287506e-05
0.006476674426280456
0.004582823013636926
-0.05184647951033239
-0.03229732069330642
-0.006928426097822414
0.00966418552795013
0.001456465346329056
0.048139366828310146
0.05125852375467148
-0.01384864552830744
0.012622639291748864
-0.009509609784052537
-0.015164263344442933
-0.012296586515598699
-0.012373777370268587
-0.02657660551701596
-0.015187811176236113
0.010647759061041276
0.03744328417446056
0.06697720159120525
-0.01789414016613042
-0.04560502603956403
0.033879401302515946
0.06340760869701541
0.022731670448817416
-0.027724463975370126
0.0036732471587358944
-0.006526937218541422
0.05113354828109469
0.0487685070437602
-0.05239306867921261
0.025952069107550213
-0.025190020885931277
-0.008263792036153553
-0.002196516003508726
0.0003416270456819631
-0.007526567081493147
0.030768475693666284
-0.011225601298473931
0.015521649825836117
-0.05120241383751454
0.011410645153217292
-0.01858652003592412
-0.06406196578527089
0.007184453552831277
-0.01035193316164116
-0.018566833693212107
-0.0451732792455759
0.017255019996964487
0.01684076115250936
0.02596926649356382
-0.026558587331389636
-0.06276726767501026
0.015161478728968683
-0.026089179250016383
-0.0220920151264312
-0.010761253363602402
0.040337776218943605
0.015456526012089623
0.03247675146613168
0.04089916207831773
0.003746485527264566
-0.06227832901785854
-0.04399642716615244
-0.011973326542564163
0.013037731241599142
-0.011987320967742979
0.017893335224103493
0.06193968147243002
0.06407863131195746
0.005739894069064071
0.022422484012240992
0.02686590361960949
-0.0030304610294734553
0.0015870725739195143
0.03213930632310215
-0.005775384889788762
-0.014648798900369568
0.01109471059483736
-0.03658624555985377
0.008958492434310203
0.014530914382652443
-0.058283813735491505
-0.0034250058756225233
0.0035692016997437275
0.029156230208511148
-0.014067480286604775
-0.000887461447018953
-0.02307061242997284
-0.011947196855030784
0.03777464756216886
0.026273187876335393
-0.0329258282289463
0.005964171011070999
0.0038564438824055334
-0.10009220279735236
-0.06073683344594625
-0.02205967147959337
