0
-0.027098296077042065
0.10734022746894943
0.0978080029465937
-0.07303060833160369
0.058984427462762015
0.03670074325709724
-0.001948036939867888
0.010672624107404601
-0.03282940266294042
-0.005582704850379758
-0.009931397623217606
0.05868560536115163
-0.08406508216036555
-0.1258110718036006
0.015055881854699082
0.0033322268517469037
0.008138856538667789
0.015756816905280868
0.017391634481645095
-0.01912391541223614
0.09360974413519935
0.015464060698215609
-0.017592261062487412
0.0028293217421641636
0.032442440211160745
0.009751300557272611
0.03477725767012404
-0.008822664378550836
0.004187296183377221
-0.007812894188714125
-0.0013771625512754083
-0.009867652217284405
-0.024836810623744522
0.03797589360099992
-0.01938392422406558
0.07525509479080404
-0.01245635287275793
-0.028006582413745238
-0.0723136902691871
-0.06097994376641547
-0.041552449068225465
-0.007572724273353762
0.0315212104103588
-0.01115037934354699
-0.006946451908380603
-0.0021994329947092593
0.026519665276150576
0.07890985009066652
0.009602521608381315
-0.011606372993570343
-0.06920732136385606
-0.02176040433443477
-0.01984057399940292
0.028158965035508972
-0.005883230982896014
0.1595268914404803
0.06220465879052274
-0.024841343693497123
-0.02186092335119816
-0.08089107804095241
-0.008131011876574511
0.0006690652197804737
-0.014762426489673897
0.040029711709724386
0.014797073237057772
-0.02910028672466325
-0.005941655126206859
-0.031052748657348125
0.006193093987192852
-0.00023210516479390706
-0.011170796186005192
0.0005584479640065717
0.04035322489554793
0.04656873954287231
0.030706579692111633
0.01813912442522812
-0.015231567826298836
-0.04195748659964837
0.014234188253370769
-0.011576592080139666
-0.0027621742718308482
-0.009366367787296784
-0.1009230309927743
-0.017061827550767933
0.003828984653856449
-0.027411306549886508
0.03153975808085674
-0.00693214747957488
-0.001369311274123102
0.002127903027695428
-0.13845473332402278
-0.03829057406308386
0.01038668208939629
-0.0038093809420451917
-0.015493326520421393
0.06484797255475479
-0.005453263628617289
0.09696932146978904
0.07226327262108143
-0.01952249150057662
0.026615708964177698
-0.053362105420155216
0.012152075494807683
-0.02415736192464602
0.057980028398433976
-0.035259725948413485
-0.038585960575663956
0.02080423790061188
-0.0002837775234113034
-0.028328207022725274
0.0013788669852515954
-0.028810446657763857
0.007254001848650837
0.06630750819416953
0.19451031075484426
0.04300849911194822
0.036974757641319925
-0.014197812191704805
0.027124198329546757
-0.1281500867164006
-0.15551979181700373
0.009825793926527895
-0.0015227936489057268
-0.009520632819762245
0.01612199903779081
0.00488226695939709
-0.03570187380633316
-0.000971310895316133
-0.015002529496166844
-0.027753852407594537
-0.009446608085534821
0.013379716858124077
0.06922364360414211
0.04930275252587292
0.14714134934550915
0.014577073072735341
-0.07011040299546913
0.09388785215230243
0.012841705406491322
0.0015519597301639682
0.002266966022775018
-0.009461954891855646
-0.017863971944765106
0.025351911726447164
-0.17601144947151137
-0.07570405380654775
0.019035559498836976
0.02095323931795198
-0.003711379764656345
-0.02681841856063233
-0.007850579127044495
0.016268609482687667
0.01929756397092285
-0.04220815305636503
-0.03287976774496687
0.01805136172119715
-0.11423094057418179
-0.061535142684500416
0.01762842031959
0.059969073623624414
0.1544973051021994
0.013958751626027558
0.03241165296561594
0.004574034329064717
-0.08631171577917096
-0.014937860644009648
0.010220361835421072
0.03275425409863671
-0.0007367782482465763
-0.05586873776617604
0.005680227212217398
0.036634800154290124
0.015389572230575193
0.014890636292428221
-0.012954884911023963
-0.0008395701816124693
-0.000634782590836101
0.00756349716555402
-0.010224902965613302
-0.025960313254420404
0.0016701395138891371
-0.005506014414088539
0.0022939858466218066
0.01741731526755825
0.008647916008287775
-0.059072700539912114
-0.059078211798342
0.04670418652551366
-0.005936765244610975
-0.057565776642448566
0.030186178314883173
0.02885803317096444
0.07399627231748795
-0.0397422691261031
0.028337499129251136
0.0038375685314904428
0.01306014277600088
0.0026303721217484895
0.01024523212981598
-0.0020621884984214226
-0.012834415078431369
0.1316642927965117
0.046501860532845676
-0.008856673886816218
-0.010939858315896426
0.0034650953096715727
0.038038402633500695
-0.011710146159570074
0.02621643855683989
-0.13778424714026608
-0.039309900427666085
0.0074165457942442035
0.009595101151880565
0.02278774042583944
-0.024962161832457395
-0.02541135778446213
-0.018369398623740582
-0.014033042499066605
-0.031178195111841764
-0.06962712919598922
-0.02155117721116533
-0.044349382715260635
-0.027592442514435028
0.01904239376142445
-0.017129727022086757
-0.017738330959825445
0.006982229188828616
0.038749243938104146
-0.0019855562093152885
0.0062063126215937
-0.01576972468536407
0.004617074266404113
0.04271542764167137
0.07410702622087555
0.04787396864467661
-0.025795744851171237
-0.06288371856458978
-0.01349039466295994
0.08122367127908586
-0.001530407248154567
-0.007391852238587229
0.10523154016553372
0.10097009966436837
-0.02221803394890483
0.008042604398525563
-0.04373392704146038
0.026022982607482557
-0.07259991646133501
-0.03195138946356082
-0.04336289461819526
0.14708041972735938
0.08561638889353243
-0.04936908921904762
-0.02736016911303481
-0.005222446352261233
-0.0246976645455432
-0.030653886625408504
-0.025629213290109233
-0.022475789788385138
0.011215187365564308
0.08279287696188217
-0.04101871194678004
-0.11628629950790784
0.016097255723327614
0.07647697336237891
-0.037308543820036844
-0.13159985236302044
-0.005323767701422265
0.03438706862177591
0.02383119676359321
0.028580876505438505
0.005827255562916711
-0.04279311399131494
-0.009716456467243045
-0.010192058963924099
0.050284525980862096
-0.0034024148758660983
-0.008754159415225483
-0.006147270229900471
-0.06409310317265675
0.011607878176657142
-0.017563920729581527
0.009327957175733577
0.08997140821388198
0.07246177802803293
0.02615498634899591
-0.02805098285838054
-0.0027823875906142917
0.05967081175804752
0.04176493181424692
-0.020348795383439533
0.023700929216206663
0.00832562167518164
0.0007580247661605344
0.05563481967575671
-0.15109525189756534
-0.08702740589704674
0.04038359399448496
-0.010292625382271632
0.01997654517189093
0.005954033085143004
0.0096866300277125
-0.011135799236889121
-0.021865437873931984
-0.010262064519447925
0.028668202472045313
-0.0017273822194717073
-0.0011363990990974765
0.015491468819212671
0.00763634432486049
-0.00190903872026777
0.044758998115911
-0.011539945311754804
0.0025904531335493868
0.009888854688391385
-0.02219103090990117
-0.012704289360232934
0.033481286252870474
-0.06222974328255344
-0.0663676408112675
0.015150823219356365
-0.05763041722849166
0.031186117598640692
0.011752019018754853
-0.026701828128148968
-0.025496891103060464
0.02365983743453736
0.029244207814197253
-0.029905836869520763
0.012002633123027896
-0.006095801507207918
0.029842970145357813
-0.04358368854662706
-0.07794772376739266
-0.006874151650558697
-0.010493716022563165
-0.019451555288655463
-0.0007369327734439464
-0.01945035842976216
0.01624107321821912
0.010525856617470786
-0.020346086448019603
0.02369966950845168
0.03717262661097815
0.04167106016789367
0.0029273601710356344
-0.016351489877382285
0.01150601312818005
0.029617102965311774
-0.000744267334176189
-0.03510007347155111
0.017021911580486448
0.05336154222732937
0.03482888804057918
0.025290373321070994
0.027563601289240486
0.018151803635969906
-0.008785689369984811
-0.013405557594116366
-0.0193997538460422
0.017192924487723055
-0.03349355974122575
0.021859916999716237
0.0583748933722475
0.08367808806338035
0.02817373979390578
-0.012346235143700436
-0.022842759580136995
-0.01174681675490241
0.007439795288286621
0.020007976919992905
-0.015585186641804232
-0.03613274970578508
0.008401763876944296
0.008258422191347705
-0.04101056639371659
0.034684221840019326
0.007154826506145307
-0.008865466730113044
0.0004342629141786755
-0.05974029268860748
0.08986521802126468
0.056470187943818986
-0.0022041750973451485
-0.019738124301059642
-0.07815639759453519
0.0329151286469438
-0.020247463136354345
0.014543310981900684
-0.03325289827306711
0.014850510965095775
-0.1873675833552861
-0.08273311217593753
0.03882545324254466
-0.00036756963027182284
-0.027144965075866466
0.02419064022380674
-0.07956221932358185
-0.12440946719264974
0.018565477956664172
-0.018270062012229686
0.05617769831914178
0.0042115052029433764
0.026426967627689105
0.02508158074988842
0.0100120300765945
0.0963645433982824
0.12388416347526589
-0.01618685301585826
-0.0023560843158043168
-0.01430711370436366
0.08846532370295834
-0.12027725704500623
-0.15714173593945607
0.07344807500084065
-0.02920750973206746
-0.012041083589608105
-0.024823159704902037
0.04875147488363537
0.01394650047913431
0.015897369631307185
0.0613198126336115
0.012317209633019088
0.010589007410680114
0.010273735092622995
-0.014289428753424458
0.02122177224077471
0.010825296417559738
-0.02206143585769118
0.0033735420627695246
0.09076677214155444
-0.055295835628929854
-0.0014121843774302003
0.00850108710061196
0.003005562607966613
0.026710361499853237
0.0025514070985292302
0.014062872666648695
-0.024140742142397954
0.003084247901002236
0.017699237334656958
0.08386990163836829
-0.017542302303603482
-0.0903616928337604
-0.013555609582484526
0.0054159577909887735
0.0005241446058974794
-0.010147085702222535
-0.05430073019822624
-0.023981063927991146
-0.038405573189095654
0.001320477898416322
0.04629237241525731
-0.0004594520956640442
-0.03774528425199589
-0.0004966567809933147
0.014324987823369295
0.11315308752002093
0.04216058842549453
-0.04422457098664309
0.03423092840301954
-0.05598378101883097
-0.15494074660067916
0.11984169510385016
0.08900441977944515
0.06465422281027475
-0.0665594073953125
-0.06282804990766744
-0.10840057195819577
-0.044954039869359884
-0.05860807645767192
0.021773223252035467
-0.04446245653530639
-0.0009108039094258794
-0.045070734959419614
0.04147567392209136
0.1286508225635162
0.10512507477340313
0.04534249996425892
0.012458360285480294
-0.0010415284730987437
-0.03259295338587424
-0.02453661826652402
-0.01899310801723382
-0.009450538321288103
-0.012842238135294391
-0.003170153707861431
-0.03959136485490347
-0.003293814015132835
-0.0010687727343719885
0.006562908687345273
0.06886987331680751
0.06430263494160181
0.008484371168151117
-0.01997356329880348
-0.04732901925807469
0.026106202532161678
-0.02496222997728551
-0.0023167856343129876
-0.0032740523244826577
-0.010084696957250377
0.08424923040241432
0.06880075215142148
-0.05440286569771667
0.009104440648466142
0.031879788695952975
-0.018610848090093026
-0.02627116635305982
-0.01903924351366154
-0.004864342023271159
-0.02836232817692653
-0.015123592750626316
-0.011223778545205934
-0.02167568938485022
0.003958736720357121
0.035916875723545835
0.015637149712962595
0.008991747880052418
0.01755753205296143
0.014184694746882599
0.043688273123921414
0.04177845014506411
-0.08920460628390044
-0.07380572070021872
0.036446950119517346
-0.004421341227499715
0.0360619767245522
-0.04597386728330452
0.01448688278707807
-0.041751696131912486
-0.17434306598357938
0.05497781040709669
0.07397229056004088
0.061702817943462114
-0.026304012574282908
0.0015192132238022996
0.026617756143995523
0.04859751848852467
-0.009597046720290938
-0.0031033523518896864
-0.004128172511221948
0.02040479372029545
-0.08507266046941428
-0.09418095612988624
0.030241192309580733
0.06150723047786976
0.06696492857051828
-0.010191152312508325
0.01167027122894039
-0.01587653363586678
-0.005124895840023793
0.021964862179866266
0.005808832089957147
-0.009125411073220667
0.008492617210066217
0.011076473395168433
-0.017832541030742454
0.006004950646707953
-0.041354245134069365
-1.0403164542304498e-05
-0.0559073898004159
-0.14814747750054075
-0.014966198685168958
-0.01461435419422331
0.0016369938598833986
0.019218158584715102
0.013295744215239243
0.02378033036485603
0.02629636358761672
-0.007042877953748171
-0.028756941650206137
0.06441667852835821
0.04193209703931187
-0.011589371756129476
0.0131285420154483
-0.014741424624183545
0.0036593887848550997
0.03241797825597392
-0.030790389705082064
0.04680531143436977
0.08487452588219979
0.009711903023461763
0.06661311593964733
-0.011818177180664571
0.003538809166921933
-0.020467374345155782
-0.00805544203595663
-0.05877056556436307
0.008002594990923323
0.1362962229498109
0.03864752555825703
-0.0201440518396895
-0.1826704749800007
-0.007826219797613025
-0.014150849701839318
-0.04842877634550526
-0.01752957890005862
-0.04146806645743456
0.007845186989821569
-0.0020219953925567414
-0.01804845136574478
-0.0027521736868174416
0.00845592856805008
-0.016427734410003524
0.010760550628817533
-0.02440173733492008
-0.030733041386344265
-0.041239247110185395
0.014791758497390234
-0.017060595352185636
0.059530874726541144
0.0005814255024691792
-0.0007818933133965813
0.008861787026781755
0.0526495465658711
0.018052649025994908
0.009962760192780466
-0.017251919499066022
0.0028214931513630176
-0.03526430615449418
0.13863885411400598
0.029359511077598884
-0.03821068962815256
-0.015839737448262746
-0.002070393690253513
0.009984719373472652
0.012030413299800884
-0.033258799877258965
0.036623329931225544
0.02233688474796481
-0.01535138677458074
-0.04063339682734791
0.15732636652647927
-0.004770660905507905
-0.018613792028753042
-0.011639599794234092
0.011743574779324629
-0.006106004170156931
0.1871692468790829
0.059637561300705126
-0.01119958322359633
-0.06439343440037663
-0.1609289705915181
0.022704128854131228
0.005078257065168689
-0.05775512446334145
-0.02879069533438975
-0.005454822412421318
-0.016163905749776983
0.0004820836964138369
-0.012089651020285936
-0.1490341998492943
0.0009894336414284042
0.011858350471606438
-0.06468288039167071
0.05867179155931014
0.035746946566725
-0.0033436123259097793
0.018831525698262665
0.025678653431235952
0.012298947841702445
-0.008296877096129833
-0.016123559479866295
-0.010497586258755074
0.009862886683273911
0.04417662398936771
0.06049114142404374
0.03816472434239228
0.008348690257340606
-0.023326726875352928
-0.015956532983299205
-0.02196715556015717
0.09188433896572706
0.0029237986413819155
-0.045635595876308506
-0.023486884834015124
-0.022127666124618958
0.008804811751010378
0.034569333227284255
-0.007892962999575157
-0.0006470995502324153
-0.040604729556389496
-0.12911930624649004
0.00021875065642145618
-0.031923935913050816
0.02400672532159869
-0.02185279585936684
-0.017742844045303408
-0.007959963095810409
-0.005689797696787003
0.026110624950517854
0.08306356117992561
0.0027457544587192496
0.04526876550492026
0.03230622090990465
0.009734654228532978
0.053024741074381716
0.004008365845720101
0.019628867060777676
0.021886387822590926
-0.14189912156208254
-0.08614480644013467
0.07270693697893804
0.0351870697807141
-0.0031054552148461457
-0.02543397802649389
-0.10068476919691782
-0.016689798975546188
0.05409435949447359
-0.04125416863354335
0.01057339592258657
-0.0841430099583296
-0.005649382698212665
0.020903319549285676
-0.017499173591604408
-0.016508403617436957
0.022853015813680596
-0.002188408952390345
0.02531746073263775
0.0034544841209932582
0.01189104737193409
0.04655495302334636
-0.05363764280707708
0.008836326509672865
0.022397819857833654
-0.024256648418993366
0.1587386461750544
0.07535774161829273
-0.08216450184920256
0.02727457058506462
-0.03338530227930111
0.015708421222846717
0.04154488650987681
-0.0017299110128439319
-0.02150673996125711
0.012705949357571935
0.014555449545802696
0.002693481943407902
-0.003622534546921468
0.005375194549514284
-0.055911867822991214
0.007392920655144498
0.06363220945223953
0.02573844892987662
0.08458358938918091
0.09643042340005918
-0.03241769470944549
-0.05063490696399492
-0.049914563815591256
-0.003943804152918292
0.03176756457996704
0.01264024981384485
0.013558124730093712
-0.1315636518959253
-0.02937384182781414
-0.07708247664911724
-0.09034359210875885
0.051417944576328804
-0.027909867451840174
0.005853436467046234
0.06392156889190335
0.14860088846213756
-0.033857496104998906
-0.0425715156168678
0.02403976218102816
-0.07359478646086362
0.004399135045068887
0.03529373366142791
-0.032002367420731925
-0.02095415303913389
0.01766538551386054
0.035082783592604846
-0.03006232705436366
-0.07196707155288307
0.015376360366671102
-0.00654299128195522
0.04249834965553219
-0.005698829088863742
0.026508066152674196
0.011525456317200857
0.02452725438177302
-0.14299009610184057
-0.0860853458857546
0.0015962377260024755
-0.13305489583482924
-0.026714922068880945
0.04004783305624159
0.029245481651107845
-0.013320665620860586
0.020311697675004205
0.16616414458365092
0.028222682744707624
0.014873091451532826
-0.013488095206756735
0.000627180101488808
-0.0002836212556566378
-0.0030630211291502313
0.0050221044619497245
0.0809594641628258
0.02933206073406207
-0.0439407191889882
0.035641247376247395
0.013346259875756194
-0.01712994896555687
-0.09492654791926924
-0.035846251317992725
0.004314143933896762
0.04346885459330938
0.04491047986692059
-0.0036951892579565222
0.00022662086503715502
-0.05473009906633471
0.01999478585267352
0.1026457942392988
-0.01670721901575311
0.06638773321008684
0.028960210912765714
-0.006932629808781065
-0.013422688580778486
-0.005016528040737905
-0.04784147984209951
-0.020822599416159174
-0.029181260702233043
0.02082807888080678
-0.005815995054817948
-0.0187437740834691
0.011208477696425332
-0.01847589475228386
-0.06006886781738477
0.050429841085739106
-0.01900379290997772
-0.01704566894880713
0.0013228624312245257
-0.0033588925637012164
-0.03759162889748685
-0.017111365723319363
0.011077581856418528
0.1268111206452435
-0.018614245739145472
0.02045019855666201
-0.01794918319160734
0.01774727522831629
-0.009992440889528172
0.02869640031724479
-0.03717352038461243
-0.04219323802529678
0.024510786516767014
-0.016944489079024933
-0.008262147839652562
0.0003750521509779107
-0.005589881013168823
-0.0004528646987450174
-0.001677873717830569
0.024741655927017426
0.017312336033610865
-0.01992527660362754
-0.0015761384577364884
-0.04375118615985199
-0.009526507695925241
-0.014266987751353238
-0.009890877518868536
0.048494236565267086
-0.007499143396850659
-0.006120375918840807
0.0674603252438857
0.00585949954422263
-0.04743131265325845
-0.006164008295700619
-0.047723277862782375
0.06968579189103068
0.009945405617807365
-0.048650241131747145
0.00042191952351896785
-0.009385030764815328
0.01522631820127544
0.022672037590697938
0.11416466959656155
-0.0015223200815238029
0.026441400036699196
-0.029283012155032023
-0.02585984420257394
0.01173636946979361
-0.003533015360441908
-0.05334961033974144
-0.0021167525248102902
0.0177751617103095
0.005755038944539437
-0.04259537439981555
-0.02161677814118277
0.013295985364571862
0.0127186074572303
0.018148164687312434
-0.04856185449965073
0.009466938200353898
-0.0024919114790972223
-0.014214959666348746
-0.0320462384368311
-0.009323499769798812
0.03274587763483029
-0.08920109736696286
0.02825653090916136
0.03501281271353668
0.07758020293689624
0.06730283404540924
-0.005438881341927299
-0.021665407578148093
-0.04800813283813901
-0.006985242832358581
-0.024060543148178182
0.011333165717994155
0.024891582686906152
0.015435789940596826
-0.0022455883912041764
0.0377280279023776
-0.023041350097613784
0.006379108568128421
-0.06137494850843174
-0.06781304354503453
0.02926410300246431
0.04805741584558838
0.006699069349681216
-0.00722575936138636
0.009736507474753997
0.009187921211494005
0.02560678343853887
0.0013172028783115363
-0.02710792749796864
-0.029602043899590348
-0.021924880356456955
-0.01164948052571558
0.03130648841134058
0.02338662604018711
0.009815260176006129
0.014917514704473297
-0.00573187242757867
-0.014333977711139844
0.014027863136416368
-0.023895503840396005
0.015826113410695702
0.04106490358796368
-0.008500486379972702
0.0014757799385131652
-0.010223641827664191
-0.06398146663433933
-0.011628464137654082
0.0039688812705606525
-0.01991841352568022
0.06644427874396085
0.018779226063542348
-0.0006207899060073489
-0.004743589518262411
0.010886129079302356
-0.00873547491130414
0.0030325167708133835
0.0455070909610663
-0.037481362459159874
0.0012259108319798138
0.005308226728628286
0.008333059608966605
-0.036711608313046803
-0.047122276481375396
-0.009832460552504724
0.006639428296939304
0.0487137590223351
0.03011796578525453
0.011534764365587187
-0.003146029880841644
0.016888160044542248
-0.048442608761183586
-0.10802630525336104
-0.014759901525343183
0.019157368211786662
0.009312526373166086
0.008279965988235148
0.03031410280031128
0.010279114783818339
-0.0037753544014881815
-0.03253108010071763
0.006882054976361169
0.015076041178340913
-0.03114902399202635
0.013568847327301159
0.03952578875898043
0.02724074010943636
0.026952189944049208
0.0420666390760757
-0.10816141799810522
-0.11615730281391862
0.10389576384444758
-0.020933689592186364
-0.010660812873934725
-0.01782868193275546
0.003194923119895276
-0.019898623294802784
0.018444276405479708
0.07609346600239641
0.018227506031650634
0.011893961053748849
0.056542705837219334
-0.03355226795566437
-0.012556761426945558
-0.04001243527906698
0.03483203737189278
-0.04045374338216059
-0.14121962709566072
-0.005063485474145529
0.04839987209330142
0.032289417472994984
0.0278866124510741
0.10400867396696556
0.02284311328156368
-0.00020375493730991157
-0.02536093320567891
-0.039714239000965726
-0.012723853006390225
0.010842983908907443
0.008421989146780093
-0.007208599855610029
-0.01627221247055836
-0.009646127461882814
-0.03334925840102978
-0.020573878484025015
0.003672032564198374
-0.004963703431552643
0.010106553334783323
0.014773124769627655
-0.013673349103988259
0.02610937227729311
0.016220822631104102
0.007514149750997941
0.005574255947898197
0.02561078526735052
-0.004276015584957959
-0.010738794875139948
0.010746036492160018
0.011499214830824722
-0.05919104844013553
-0.07253198809844577
0.07888257892438028
0.02069416340531603
0.05838841969602028
-0.014452865207123522
-0.053200711277444294
-0.00510343102343141
0.008250586422887373
0.0035562760313215076
-0.019038184552454995
-0.025192662641315058
-0.006377514359587466
0.0029230425137987555
-0.015491201860799202
0.0033779944811971737
0.004391527017096261
-0.04716238028363625
0.030580731809578127
0.1262262466014758
-0.10614390053949006
0.14179800417095212
0.06643646992179977
0.013952766971401201
0.04222344772806348
-0.03785726194134931
0.011624436318892485
0.008565824222202251
-0.0883484242722
-0.08025178895394665
-0.010012849879236356
0.006729286896341354
-0.03049444127572258
-0.02954636957510096
-0.060508113752318834
0.07589078809503655
0.01929248718913287
-0.018599395585200518
-0.013215920423431626
-0.05278278504975086
0.03984653608823702
0.05244657899794252
0.017773310487703607
0.001958977103406319
0.004024490639825457
0.11252309577344974
-0.013781243942392973
-0.025613235745538945
-0.01973767330055222
-0.027639412083968674
-0.005291727898411674
-0.03784128439724549
-0.03178813534321423
0.07784503333888494
-0.022433806890507304
0.010677229931901597
-0.021552253220948867
-0.0013655884659993876
0.04528366564954768
-0.05226874448227606
-0.017402549438816202
-0.015012941558577146
0.019032465598441475
0.038593983742885404
-0.002140634002966183
0.027080466436647743
0.02464452881884444
0.019058970773272725
-0.05527688348686698
0.05290876968757011
0.012939898592173168
0.004829334401193061
-0.03167923473387166
-0.022483472392565197
-0.06725930110018206
-0.015398777552217762
0.025735247279877686
-0.04219439995569693
-0.05381484591495995
-0.0062605926083323
-0.02032942351758063
0.007099351487055528
-0.011738653769474805
0.11526562355261465
0.10457650751540339
-0.20696185933888606
-0.05622480218244502
-0.02588467696694923
0.007411991136051009
-0.01907370672855939
0.00747066089204973
-0.006789643895015814
-0.01743865600429903
-0.00403468678874403
-0.01869133858720417
0.01714097564737277
0.018828394382263244
-0.018463510730013215
0.017139076438516008
0.04427821763285938
-0.028531351778604153
0.061158187093130804
0.11277523797464706
0.05392935798178299
-0.00887359529823658
7.580619216936797e-05
0.05812126577281912
0.09140870651139966
0.05215836956978892
-0.038411482851534506
0.022395529456870077
-0.024101699348965056
-0.05945747500170145
-0.03018791165133716
0.05287354276060072
0.015127600693191103
-0.017967797051083867
-0.013219020158588893
-0.003963122379153242
0.021815897368658587
0.02669172577698509
-0.035537223058690684
-0.0003327621304618052
-0.05304071601701285
-0.08412889968895682
0.003337666265627947
0.0708270490313918
0.02153247863748117
0.02934904088526871
-0.059228447314466644
-0.05699754772236673
-0.044885092580504556
0.02648574790647031
-0.012490393717679968
0.004274884848842239
-0.023440866487336637
0.04249643899002837
0.019580442352753785
0.012640380491926593
0.02415097614961903
-0.05896565253029697
0.004692621768163846
0.011056783706188964
-0.002138197760824431
-0.011730907495967864
0.001894723292906449
-0.024107415266989392
-0.03442734505133117
0.02143648018446423
-0.0026073671811507847
-0.10203017644239078
-0.11119884975028972
0.06466518011157285
-0.030640438128839643
-0.08329696957736454
-0.008629865658458968
0.1483254857136076
0.049544327839524525
-0.007898316346975643
0.008544015429461151
-0.04048736325978294
0.019609532842419234
0.03778742086681389
0.015826599791184868
-0.09266207447592086
0.052804218088397595
0.11665167949892521
0.020266930743081717
-0.006177550519569323
-0.09776746135780535
0.02563144498325821
0.030774845339673108
-0.01605014089840422
-0.011037898229711879
-0.02949274543083276
0.10803054620910388
0.12063375343654824
-0.016037680822194336
0.02868834752523098
-0.030837527711007204
0.026982668070391187
-0.06167370623719881
-0.01585595249729913
-0.03527580835635849
-0.003793242716234705
-0.022953608535836365
-0.013631462174476252
0.017527818814408583
-0.011989123423479141
-0.0069815298059602154
-0.006505482477134177
-0.0396358031217059
0.0013899621039862116
-0.017961877087399623
0.007597661524607408
0.00593893793313004
0.02430082262698547
0.030810600843393012
0.017956730099451715
0.02049427402704728
0.05852052394199981
-0.011483791080921056
-0.006211351799463462
-0.037629348279794916
0.018505060717535576
0.030208734962085527
0.0001106531614983948
0.0013179953922345963
0.01791300272503301
-0.030129237434116874
-0.0058651031538297285
-0.1614168651191031
-0.10794321760669143
0.015916389588318484
0.021017283274271794
-0.05407231229477119
-0.01855841979589096
0.04943936275117813
0.14701080915163028
0.07739804588051821
-0.011541727551457784
0.009117725995047359
0.008472582444751707
-0.013581639787401494
-0.06790586810862903
0.04058354063182007
0.01074012553635659
-0.023835497133909075
-0.05493053820355125
-0.0388482934681206
0.022746258078799726
0.028778371756102258
-0.007867599302380592
-0.015166229200141672
0.05885003489724029
0.02673604944541295
0.0028949248502930965
0.014597739253845958
-0.018066020416069188
-0.00621928794686287
-0.005789942350665858
-0.009333029970741053
0.015071850788517758
0.01948220324411499
-0.01184821566657935
-0.016788500431732346
-0.049762512495198176
-0.007577551943923114
0.005637483694739427
-0.019176737449253158
-0.04402012715760508
-0.007639145655376675
0.10526996969195603
0.030955131066855393
-0.032001343410010784
-0.023873965731490168
0.015044939727647689
0.07677842264881346
0.0009335444600871847
0.009882049259839295
0.003751736951704868
0.07049415135332296
0.008981016941063954
-0.019441466582729487
-0.016136835695881185
-0.025952559265139844
0.010779420879499381
0.0220518396648176
-0.021399310032919422
-0.021762722616895186
0.0468349803999858
-0.06113092732086133
-0.05638696454294559
-0.021156682420591818
0.005811907970363361
0.011659737437762557
-0.025664847242401423
-0.06791984586984752
0.051949743039808004
-0.12595512935807654
-0.11435246233150091
0.028050387991051477
-0.008048090179909921
0.054089598096981946
0.04821500309274248
0.04583891471768747
0.07252023910262699
0.0018706185604095184
0.004509115098579664
0.04371192758348975
-0.016689338877291383
-0.014448454874481763
-0.004597908873878767
0.08225263749647152
0.07299906530753608
-0.05247795231297011
-0.10461511637210204
-0.039544630036648404
0.032940641767493214
0.01106554478279803
-0.032843822960587396
0.015091126426589099
-0.028620698009350732
0.0017467052752867455
-0.006877424264067081
0.08831488676618712
0.06939556297584927
-0.03501453666596106
-0.019489450936409917
-0.058461037830202074
0.0763164257149374
-0.01647664585875366
-0.05472389524378329
0.007925872731520778
0.013357378821529027
-0.033059717678478207
0.005021052285549938
-0.0228398936197316
-0.05426945760362694
0.013654489273609422
0.07099388315367823
0.026102239283839698
0.00788436282631972
0.00036418862226026425
0.07799369735105638
-0.0427570000589602
-0.012676147054331755
0.020120768443478876
0.0074771120436017535
-0.012863824884635089
0.0043639110532286
0.010816961175755925
-0.018127890518669
-0.016102946094682772
-0.020597525814579947
-0.04623177501269028
-0.005933033511178086
-0.007148927581781591
-0.02910953993924021
-0.005267952233238366
0.03379034169654301
0.07861230320661192
0.015301996883544604
-0.006976952692913973
0.03102421443509409
-0.04632387804905143
-0.014621063403168662
0.015425789166220975
-0.0012547063358894738
-0.17506492301168958
-0.05388500914450657
0.038547365460693706
0.002262788140845081
0.01612961930378704
0.018688905978748428
0.03880089061135734
-0.034782090264128276
0.15640260674583706
0.047469031123092184
-0.050911898448381496
0.10823382833012664
-0.017755536828810977
0.02276917947392527
0.011164091906392287
-0.00348591816269987
0.010752631784078053
0.0006751294277059903
-0.00876623280403274
-0.002536194560279923
0.020848151787885495
-0.019301682864789154
-0.010972875076102463
0.03412545624453104
-0.038055388065006295
-0.0022773754700511554
0.03978402296860415
-0.043689928424482584
0.011784156961438218
-0.14279696067763148
-0.14178615548399978
-0.18152914434199133
-0.013963083237140732
0.014782884730472371
-0.004474768564719798
0.005751152112171122
0.006544046017004619
0.08124494662701195
0.03833313290981722
0.0016944467451243176
-0.004615631887636761
-0.00972451215260506
0.015967651639818874
0.04577574393777123
0.04986701626068436
0.0026617181945911097
-0.018608191872618744
0.005626830893534775
0.021466056970503845
0.011180409538110808
0.07350688873223651
0.022505988247029835
-0.002769474081445862
-0.022379760293229606
-0.014992200742664783
0.01257686604708078
0.006312878468436038
0.14581452478211906
0.07626896357947928
-0.10959733954306773
0.06128355802814635
-0.00405325429730453
-0.04522492009439517
-0.021947410224553262
-0.004347577734498806
0.0375866971699927
-0.0075583564153111045
-0.02959829375762351
-0.005265119403304908
0.009045405502444228
-0.008011954377294404
-0.030872820838487462
-0.04658018945929439
-0.023868809827141756
-0.003291648179890845
0.01666371786252551
-0.013319830318286244
-0.018296015443468427
-0.01401583672086098
0.027375469281526274
-0.03890627606874116
0.04124004200302852
0.008760208317684887
0.08661694514388854
-0.11810570621514144
-0.08785074502524486
0.0456882680159926
-0.031619402281143176
0.02407827419322159
0.07704958807329941
-0.006442027547148373
-0.025696192943698466
0.024255376323610564
0.03259236467731115
0.0020233110127936427
-0.009189613917310392
0.027962541441979263
0.01406230457624065
5.8367461879946005e-05
0.008888834229606849
0.021581382450246187
0.001814587023659982
0.030285989807697138
-0.027346833632173582
-0.004984240253875619
-0.11388078490140399
-0.03217628518811952
-0.020224740334501008
-0.015063013033440228
-0.025714647999349537
-0.014777273597269071
-0.025072144174413873
0.008882280948243119
0.005171383526650442
0.015562698333785104
