0
0.001740980513376731
0.025159002002867654
0.01638807589725986
2.267322079889859e-06
0.03388440575765359
0.03190216966707014
0.02162402667302727
0.006406206437597093
-0.03617093463408682
-0.00014108588341453718
0.02355822885257029
-0.010915957537979599
0.015182613459514703
0.17321117800431313
0.04057954252060091
0.017212093109054954
-0.018619439050088893
0.00269001630828842
-0.03996434820405423
-0.020300130476754604
0.0035694566456319693
-0.027596414594615096
-0.004625589349152278
0.005542164779792567
0.0005319050560846605
-0.015186400770049386
0.001513970677702709
-0.006858104209220966
-0.01613058205789407
0.027599604689129364
-0.013221043535784677
0.028333126886134454
0.06527992879826834
-0.029329282371362033
-0.017391619066638088
-0.09975760912809965
-0.04365983877314067
0.012679837536821314
0.012750245796641628
-0.0049400085956774874
0.016754965341890585
0.025324010782246865
0.011926422275229125
-0.03592509579699226
-0.024455357937856526
0.004674555217948976
-0.06791270188239215
0.014830404594713626
0.0036497478140315
-0.02787035474579272
0.020824018134488358
0.04226195758085581
-0.01295973755253174
-0.047368636630350916
0.036592664277277545
-0.012170461282550933
-0.05898382919981284
-0.019640031363187663
-0.003147637077919579
0.007375587273060984
0.027787591059010523
0.06695500168968009
-0.006494246537387532
-0.013844267208997287
0.06716254502022231
0.0559128144950164
-0.0054719524185586335
-0.017523061052764757
0.12186158119890678
0.12795277186839146
-0.08927988566757156
-0.09223230698598077
-0.024337955525525267
-0.010757861378876132
0.007744434883859607
0.0038498368294731227
-0.023205392801660805
0.012605481081516176
-0.007350981765273104
0.0021073939129028774
-0.04330050720427072
-0.00627328814781197
0.07324791865374282
0.004106246882548733
-0.011601143577568201
-0.02107582811480195
0.0010738368201063848
-0.011582804903280518
-0.15191886855419115
-0.002635222100141895
0.017801187964580974
-0.012740801457222553
-0.06962349073632705
-0.02149346452456472
-0.06672215601196503
0.15038978950220708
0.07693059739922746
-0.02951009257222793
0.021136920645860483
0.0017859270094771245
0.011346662701848727
0.0057457859048787455
-0.030529476981663525
-0.01215957546742779
-0.06375002832375108
0.04676395252863286
0.05693880268370326
-0.02251165633911007
0.023032912472085457
-0.00939515417062263
0.007695416436868196
-0.020517868578705724
0.017822114392396178
0.006083537676062156
-0.018109132804439976
-0.014230426083126442
-0.0014252481872864841
-0.028361557208023653
0.03559842093523995
-8.550587175178896e-05
0.01977047079565525
0.02291420395684206
-0.031175860709710835
-0.0379839444977795
0.031994199751241674
0.009795217776336846
-0.0305299467208863
-0.034077052025321845
0.015073603688381567
0.03382057930416033
-0.0034762338098635946
0.029730874784508938
-0.05288555272967669
-0.03064151491379745
-0.03412248832182285
0.030248480638128232
0.036015272625451004
0.0646356309540442
0.03926018233522828
0.03113575544676436
0.06831286983683216
-0.04232943474966504
0.016987785632145754
0.00010577616857877777
-0.015065249007905525
-0.054907705350301365
0.009849544957344235
0.006288890287856016
-0.0306989087422399
-0.008065040684824182
0.018892913109335836
-0.0012996606369988963
-0.005693052693931662
0.001040087535811945
0.004679861656451822
0.015699864856631
0.034306943641976034
-0.03551048538845864
-0.02669491387803187
-0.017850966330614636
0.04278049918492949
0.02780028658574092
-0.0007729730368692538
-0.029951660241908148
0.055451327708339375
0.07243697472816937
-0.019845381009214628
0.015267487398260194
0.02531942614618612
-0.0055549500649314945
-0.002480675095983594
-0.0022910131229085
-0.0325494077099312
-0.05556680657698138
0.06081164464846298
-0.009187830912749195
-0.08945604451832627
0.028257834488513416
-0.017486240651279863
-0.018475285907350487
0.0023926428985656892
-0.010090459805842162
0.011631581844018501
-0.006731620443499942
0.00020193370509105301
-0.03332685569186771
-0.012633867439906086
0.010370605377690611
0.06680214186555987
0.03218196419820299
0.004941552279245512
0.03434671591866191
0.0062557927771770775
-0.008930195639621042
0.019941767784954677
-0.09957406433150455
-0.02225883628409125
0.009190738934262093
0.03370802697466101
-0.09032926304970916
-0.17546377603583874
-0.03971856552886758
-0.006039037916322947
-0.002757383219575875
0.0142572603384087
0.0012216774204784273
-0.028799266321879024
0.02827876099218399
-0.026353359495561626
0.033495565884244356
0.07329068131302448
0.010145031168872191
0.02123017811272789
0.0061194926670337935
0.02080372045518587
-0.004362788547612512
-0.047214455141555506
0.016690817259625058
-0.0031793285817633948
0.030560553353483365
0.017202478977111687
0.00715695162351758
0.010460861715431051
0.007235564052872946
0.02835889372895841
-0.019261595269052446
-0.014589168549851827
0.002835685952834594
0.002291887524580723
0.0009936934355487795
-0.18691184957744966
0.006246236711871434
-0.0060146278252276785
0.1378436084928651
0.10095178623446552
0.09699913678909648
0.06516490639604076
-0.030277330085684086
-0.0029144379969838425
-0.011379450961217263
-0.03692435536872967
0.005343680076835322
-0.002796796120190536
-0.007791419653959769
-0.06870274720476306
-0.09374869827412509
0.08476010361146456
-0.015430791485382261
0.032390097348442
-0.010535119444310058
0.00945131458304833
0.005056681799656485
0.048364090638694006
-0.009713967858783742
-0.03714529552876687
-0.009633350115815236
-0.014767815151662936
0.007907029809592804
0.0033701225383019145
-0.049659288518428275
-0.015316804006407973
-0.020695358489886285
-0.01962150736107717
0.019317126006880226
0.03262545745598189
0.037842963943608726
-0.01937624643065026
0.013081142361217575
0.05144872627968415
0.025964750261772234
0.12326037888633394
0.04203234877883655
-0.01871312257764229
0.05789891314056432
-0.017123815911777876
0.016062185454927817
-0.03929758818634084
-0.024402400218939257
-0.029904104529259103
-0.0711690562814405
-0.02259441015191144
0.008541117155586479
-0.00861961317917679
-0.02047812788798155
-0.015132623852177887
0.008964241834064404
-0.0027785459062272784
-0.008995214088457744
-0.031691894356535875
-0.010330102365532128
-0.021380584433466843
-0.018057953543046016
-0.0759388611745652
-0.08102937585072824
-0.01523690231867979
-0.0065247773403898195
0.031121720701279405
0.0038864629475358963
-0.0084009080307248
-0.004195917244344661
0.00942366632559253
0.08957227070278333
0.05467459138966532
-0.024737561139801793
0.045207808799956575
-0.06581021076294995
-0.05534116680944868
0.041398665520383744
0.013044158764008202
-0.006681719455519891
-0.030608741739439584
-0.037152466804546765
0.01856956803852567
0.022948097668309735
-0.0006798771220739862
-0.02055651338761611
-0.0586675858023645
-0.026020044115031633
0.01540072815356836
-0.029721650537134322
0.06984206008203492
0.05229107959923787
0.1675759255731402
-0.016456504590487846
-0.022866845976259008
-0.06150810017540768
0.03774556068754488
0.08856417369194557
-0.00728126667505983
-0.039291758519281114
0.11643354455091717
0.14967240918760163
0.018172768661090685
-0.04920706075658734
-0.03254233684540499
-0.08728521306111124
-0.13045264305185014
-0.027496519131309727
-0.018257375371996273
-0.021488739006443113
0.07572862727699213
-0.035252916517401936
-0.08611295024242453
-0.005981564313564966
-0.026095547470401794
0.02478316358430873
0.1694422808799102
0.008235324106559729
-0.015440717734111308
0.014208242467331336
-0.01974975076621435
0.024264811400871188
-0.004900235788094608
-0.02975573525436001
-0.027792165316485807
0.1188314954521485
0.034990522174256536
-0.009737502035222492
-0.01684760960075592
0.007759815921803645
-0.01048188433364318
-0.048791944723824796
-0.06999699422429576
-0.005220103449866094
-0.03027556798340577
-0.03402111290027764
0.0236642922213526
0.0679591996641453
-0.06034326960746507
-0.1382062903212365
-0.002869480431022263
0.04162855900067641
0.0006186792512739537
-0.03143189547191852
-0.03075502163671638
0.06752310688458456
0.11730479939932603
-0.024681379733233165
-0.01886059586282717
0.010215072269914126
-0.02107832768866045
-0.053576509783679026
0.029745321999719777
0.014510414259183996
0.06085151984128778
0.025911864944424358
-0.04111833617456018
0.034989263916419475
0.06576145567087081
-0.007212357910411214
0.06624011129059396
0.005130642545862369
-0.007499278136673284
-0.0438179411608054
-0.02777812671872561
-0.02753283103023379
0.014068983039344455
-0.04910096984648107
-0.02863124414769431
-0.010785926371232121
0.01375243484908162
-0.0438174794394443
-0.013261591160057458
-0.028644694484808147
0.020413338746101076
0.07638466336765568
-0.04011394817211787
0.01729220161645622
0.03538600848130681
0.013624701892435118
0.05280711200866807
0.030937828668694295
-0.11010022475700684
-0.08421801735274227
0.08994067744357909
-0.0023938598060966624
-0.00310434542385677
-0.00017843486772334705
0.012789863088602247
-0.004566975939071506
-0.011472035320812528
0.005587907654004402
-0.0005582477539659804
0.007372590149188989
0.020068321852140518
-0.006245008315657718
0.0162886681574853
-0.02422248423158937
0.023946870907217907
-0.014127853399331959
-0.014615717436644238
-0.0062833169797162
0.08018985448035973
0.01946281680437388
-0.043548010747823315
-0.03293873534873586
-0.05447093123012179
0.014295558030749276
0.02254888327591682
-0.04573870166913605
0.010188014215023238
-0.007816082241075405
-0.011636423762880056
0.010345620108187743
0.04816668534890982
-0.003657676347699895
-0.07476871844014497
-0.04522303543495431
-0.024733840703779212
-0.02608472722848921
-0.016213048915243774
-0.00020006500567873117
-0.009346337179767848
0.04174275511889253
0.14731557811826207
0.045680328700585915
-0.0324188335553024
-0.04438368172939649
-0.025789192603689247
0.04872548287256075
0.09553326193710396
0.007257157464299536
-0.000925932426638151
-0.018977105175345663
-0.030907774148034806
0.01637404806278888
-0.019606430973457326
-0.03825809025881677
-0.020790013191478267
0.0047278672073751676
-0.02762740152571973
0.03769068959245682
0.035451719514424086
0.009433192359474497
0.02491745357834605
0.03675939831219467
0.03944985419644744
-0.007184871140032836
0.00679817446540953
0.039496720326043816
-0.04325819877771656
-0.1320148353163954
-0.059038005626329014
0.03057236783536451
0.020942918988580007
-0.01596024241108102
-0.03799541559593818
0.022661104274259207
0.013055308575956777
0.002007863263517605
0.01889306233588352
0.003949253353588159
-0.035983279218044804
0.0021730173917675153
0.03623567997152138
0.021304792783884554
-0.014086371170621677
0.010872769121714136
-0.014163886935655477
-0.08491154000639657
-0.022316023415815723
-0.049097746097265145
-0.018696299511855915
-0.007632894918687609
0.024229494452187875
0.07780461713048543
0.018848792024029136
-0.04095158217809367
0.012305002483504092
-0.041554514358704754
-0.01376909243562706
0.004579587898513509
0.014728778672896303
0.09048143847640563
-0.008564172235249062
0.01603837159924158
0.046893023481692345
0.013327281505540798
0.050387550189288574
0.026992899331326054
-0.023806199799244143
-0.03168046564180385
0.007790139609281814
0.016123943945096215
-0.022928109713903834
0.02199284192125005
-0.021539035137581878
0.016516919181190824
-0.012410480305447709
-0.018162237595788177
0.007027460730144764
-0.018356378074466176
-0.054511874056478136
-0.012777552004996447
-0.03650524457550888
0.005546144085349765
-0.01142910840175644
0.03543033226301725
0.008779395316431644
0.07168965100279313
-0.01993136123255282
0.018358453939139464
0.0016759984463719868
-0.000725630581904932
0.0723702476399269
-0.011632457506306986
0.02878017164824422
0.08169887828542317
-0.018075456262028913
-0.18892202075433556
0.001856272287818519
-0.0015002907771883576
-0.02326463264752879
0.005550325202581822
0.02516885110044786
0.0012731686845505476
-0.03337219110867187
-0.06586263673092352
-0.05418694629555042
-0.024314031197838773
0.054896033107076136
0.04851497887951313
0.009484218003556638
0.004814680076835228
0.03984433152570407
0.03859664008893854
-0.0259145457179131
0.06113680007025761
0.05843722290862567
-0.0035873537253947054
-0.02323306133482965
0.02117822622991579
-0.024461303347313338
-0.17923196574376268
-0.0288478084763455
-0.029921439201094142
0.01098210858002599
0.005818441287918402
-0.011301969606680744
-0.02249677699705718
-0.016876361777967936
0.00982587928277882
-0.04307263454453679
-0.05147591366623474
0.03160347359917541
0.0038730398861343018
0.04513514446185201
0.12461531442347566
0.08333347593851338
-0.02523693060845194
-0.00522145598156694
0.0024340939788366953
0.0015441524430776978
-0.013100933172739684
0.020834080476576658
-0.020348010621249815
0.006662536356667219
0.01683369557705805
0.018503426999741505
0.0027769871185535557
0.023678093477962698
0.012390109764734132
-0.02259019797219202
0.013729467896703412
0.02277346358592728
0.03706597646691114
0.020254832096140915
0.033401436080892015
-0.0739806840484319
-0.04992053132366053
0.00034371591907765163
-0.012159591980423856
-0.015844390073860747
-0.016102445099746992
-0.014554339606004133
0.009978749113856643
0.13234297242148746
0.01207953515228123
-0.004690553248053235
0.007595386472943649
0.0066297123003414135
0.057617862238050356
-0.020526686757376098
-0.013283298577851434
-0.02943632638173322
0.005387295353345086
-0.02160366391974083
0.05110513733532119
-0.07879674500993189
-0.09181419169954179
-0.08813518249324072
-0.12781939126268094
0.0008376779079820563
-0.022719610919868377
0.042331170651392795
0.026800388161185244
-0.05484073509913655
-0.0005534073181921922
0.042538966123815344
0.040597230445984844
-0.01063603521793107
-0.027037099167538402
-0.10799177063301542
-0.00785100234737044
0.048245822568476
0.009605667535015712
0.0556171211745875
0.0055781805685202746
-0.006751834193544975
-0.04224506619224772
-0.014728912617831599
0.031625988425357236
0.1502287929634184
0.06364505399443804
-0.04714496389838345
0.1394767115199727
0.10420883314782609
-0.036238755145088265
0.03070824120113624
-0.033098867973035725
0.016198378215615535
-0.03417325138766906
0.08507776025984196
-0.02312157848289822
0.020577011209792922
-0.03362275681603783
-0.11366086961513708
-0.008462105564437935
0.02226053595828267
0.019952477116409257
-0.010270291950969391
-0.011735838714535055
-0.06294884222974727
-0.13352652067655357
0.0700585522225463
0.024558749378218166
-0.01381873003646481
0.018286393276870327
0.027406607459844162
-0.02635899085368394
-0.038147749428933876
-0.08478138423576007
-0.009455209971008238
0.02938326319566841
-0.014993413306945513
-0.025676206887543043
-0.011214302373990103
0.017615911166401866
-0.000397247411933602
-0.04998697441155892
0.00894239090932037
-0.022063226317672817
0.024866292077374296
-0.015106873033370284
-0.006467352942095931
-0.030626870803069372
-0.0008256567257133551
0.00367431570361009
-0.02965810833699352
-0.012555399769341726
0.016521963321333242
0.040982529133194945
0.03851197135618335
0.05811105629649232
0.14966086267309497
0.012285329276493413
0.025019376553599197
0.06189837702290918
0.008458085688687911
0.0034209451921945353
-0.0066697644817153515
-0.015688906646495773
-0.026513773395553133
-0.004663838990072176
0.03191619211530464
0.05178313862593697
-0.015585118104135218
-0.03599594662509177
-0.01144050975041075
-0.02581428009042321
0.009391024652966635
0.054185552557355
-0.09222317959355816
-0.1460767479799515
0.04102726641633133
-0.02414947683211871
-0.0050529516565145614
0.04762967991874406
0.006145606830527717
-0.026614215085318343
0.010884652784434568
-0.045692540768142935
-0.05339930531951521
-0.02611230746784138
0.01531351459209824
0.050967592367117134
0.036239877006402674
-0.003984733114506516
0.08974928647341344
0.04575871375911346
-0.02023965441680045
-0.022246175147665866
0.008095306494281368
0.003432211256766381
-0.011092353812311804
-0.006897471941547045
0.020950424310797477
-0.016651457553730594
0.09508180098418106
0.06336885786443314
-0.007258194839445274
-0.008758694795411663
0.05141090968523349
-0.06598329262669593
-0.07515921101888559
-0.025977325632483637
-0.04828247670631994
0.003701888335818733
-0.009767727731270843
-0.011353358575073148
0.03584501298830532
-0.07697022126486902
-0.053067700454841056
0.053143914332619946
0.022085646119965233
0.022978633411120542
-0.022517797166110055
0.024666497442584867
0.005224019976922676
0.010561161596385881
0.000877543296753786
-0.010585532281293877
0.0371497886936157
0.02222499783182814
0.008442285770419918
0.07127045804706829
-0.02811522920952249
-0.004687084878945008
-0.0015511203881644904
-0.09394360534789517
-0.07302372767271327
0.050670684034924515
0.02521288563797852
0.029167266066415547
-0.13814307808890403
-0.06748108213215372
0.028026408690432762
-0.007705522100809401
0.017890599662568337
-0.03142542297502329
-0.00490838495947702
0.0071645225339870226
0.04144796794201244
0.0348746864704158
0.011909369740708392
0.007409842703578739
0.009516513778277905
-0.02780030299512019
0.00940013968556965
-0.13318409521417104
-0.07352486989849258
0.016415635920829653
0.009782029705602213
0.04546939305786469
-0.003957691343068523
-0.008838125369119354
-0.022022726026740422
0.023505114406531063
0.043630877989339865
0.031906131410881534
0.007019241874718202
-0.0004511458250695606
0.0065623878019041735
-0.005719973511062762
-0.008151878129122858
-0.005565281498880954
0.1378938422258405
0.014561953181211592
-0.03829440594690885
0.02057757664089295
0.010405994143460457
0.04943682626080881
0.007880909322139877
0.022431042544755492
0.007402974171009486
-0.02859590533609452
0.023002179437963285
-0.01206384775947006
-0.016804073017842057
-0.00498218422862867
-0.0060173847144925465
-0.005633680933783275
-0.004429647885522082
-0.009706500207814533
-0.02682392835214708
-0.01332564729690986
-0.005047340889801771
-0.015809498174281348
-0.05204716754272207
0.0782468764886227
0.10839600219749158
0.027219968543811833
0.0037373033373871048
-0.015448732782374245
-0.008455755844363167
-0.020333165149750077
-0.012721862493694018
-0.020404658454127148
0.012013767227931224
-0.0012578423247899579
-0.005369047210823465
-0.005335379804073084
0.005753062331177046
-0.013665521752677472
0.057562431450142414
-0.005473590401632974
-0.11033631385459122
-0.014916513700588862
0.012700801391474148
-0.007295996391056809
-0.006233725356884306
-0.05488704067133488
0.0054170324065164885
0.0024156274421396184
0.020546344855930453
0.03454882942282634
0.0016372382193464551
0.03748045422637143
0.005921793443226686
-0.020333007569222412
0.03902326299880002
-0.009321743693427666
-0.009593603113777412
-0.011212412756502777
-0.019374024051139874
0.0005722329399090522
0.0012992899318175848
0.021177568305104005
-0.046145607054357975
-0.042740570532474646
0.05235963528995235
-0.002462963917573786
-0.0012705883326653968
0.02593213697558372
0.004662021319455339
0.01131392291202095
-0.01928671094410806
-0.028565379113640633
-0.006775984422328965
-0.02432712999909581
-0.00020001029908554878
0.036472414358903193
0.020744610176274637
0.002968268456977359
0.02091944889903598
-0.06970019920240479
0.002209366783504329
0.01356483525654595
-0.03527620733238612
-0.007624808874362668
0.004213375646581617
0.06658564299996594
0.027364034611370745
0.02191067785321684
0.00522708367478522
0.04270212675636055
0.028533645091783827
0.006462580335847279
-0.05112659195535851
-0.0010437254250956522
-0.013742650220750238
0.02387446892913466
-0.06031770977582964
-0.14165776351958217
-0.03475285456881336
-0.009079516166142575
0.005717386423844718
-0.02367942978140771
-0.003162370077470636
0.008365235842997875
0.017406891744654183
0.011083239311377724
-0.01661338206649649
0.018181123030335637
-0.006700846996955161
-0.015271620944590199
0.006177329056790931
-0.03319257871989514
-0.03355670178096903
-0.012777222240906305
-0.016732648345287232
0.01459099073890055
0.04689990754024692
-0.009087762504921163
0.0335160091430702
-0.0033876028636390895
0.04219478000266121
0.020563372268960968
-0.0016649576657796733
0.062265914042827115
0.13520500310055153
0.04063420599045369
0.03822267045866356
0.00148477016452794
-0.0031496166448298263
0.0191829655331746
0.04029607742657588
0.0095699547284961
0.0019247322501313466
0.0005290337724459699
-0.023383114717524175
-0.05794636656809724
-0.024939857608411366
-0.011069530770794733
0.033865552925844616
0.00281908178949486
0.018606535452227096
-0.0054593062516488855
-0.05869900412672643
-0.022967462276458073
-0.011249845132161235
-0.027328774288028594
-0.05495957262188214
-0.003954113945058951
0.015408365936466809
0.008304874534763222
0.011554764473940769
0.011768720311183008
0.0013852667572437991
0.015311455281652122
0.012122276456980649
0.01884648036144483
-0.023043425064273614
-0.0023334151052406367
-0.060850338338468084
-0.06677490533494211
0.00039906412121302386
0.01552263123659222
-0.006506912206016256
-0.007594494284457644
-0.11124285121053551
-0.014664897123207942
0.009301731415563891
0.03278122252962561
0.01135354409462313
0.005182720285427234
-0.03072695905559379
0.09110018483628478
0.14781691826902027
-0.02059114123779834
0.013420981482120576
0.021130308961625238
-0.019459335031344102
-0.14920809662951434
-0.06711391461096643
0.005709991076938319
0.010087657560335415
-0.05713304723059048
0.004710425599765296
0.028010527277210574
0.01122144812519501
0.022253544098575443
0.01501905566647113
0.05142512518663061
0.02799857564820551
-0.01288034875395266
0.0058050895433149246
0.029598750504861545
-0.0024527095956964405
-0.022657435154038286
0.013363313964774673
-0.043619608265188195
0.028588167469351587
0.13348859708230335
-0.042498956059687634
-0.00782801622857005
-0.06943435317606814
0.018315084204394604
-0.0022592768487107555
-0.021927958556309034
-0.06302966479143059
-0.012611646528249261
0.05388231490984575
0.04417935633123815
-0.027066888471560552
-0.008676631230134256
0.0842987324356721
0.03321333885145518
-0.11681927817215759
0.006250147022775241
0.042727966200258684
-0.02118829426639168
0.04847781035076088
-0.016939410834971327
-0.002645945715973686
0.01131271764977984
0.01408388903871717
-0.004099447413598796
0.00657913070414794
-0.003746251871842337
-0.005554083148002061
0.003636865650609253
0.0182098412830993
0.0034966698565559967
-0.08024371432227141
-0.06301819489150472
0.0024727254449457077
0.009061777483607132
0.027379590313851784
0.02339310844910425
-0.01194076944405422
-0.031408676990006136
0.04546254957123273
0.041884111485077306
0.04513746740380063
0.0007151029365241895
0.04194800427371404
-0.022976101294495226
-0.01573802658223816
-0.023352383135115447
-0.02992701452039153
0.017277485182711026
-0.015276572484025783
-0.17746714403920605
-0.022047134231029702
0.04498925027204388
0.019369784956490943
0.06772379744790241
0.00763904367067548
-0.02702547710596472
-0.015531875789926626
0.05534024986227818
0.08626973848264677
-0.004943322014054036
-0.01287220502456438
-0.04951357088747848
-0.014821603643540304
-0.007258786201936623
0.0005787984378725022
0.014771086771399891
0.003952652885516395
-0.03385012640817598
0.008226626426879772
0.02912928067352252
-0.005249494819304713
-0.016562676721424866
-0.0060819799591603045
-0.027243720508332982
-0.040201403761194285
-0.034653095133530425
-0.05068599235448363
-0.0290328471714982
0.017913112260928694
0.11837560721887884
0.00289414454480096
-0.013859585847981984
0.0188908302822226
0.04083674422302089
0.029621037637980845
-0.008326936110379459
0.027110522039282298
0.002888557195573228
-0.02727738091959406
-0.06021024774118192
-0.007385055432500137
0.023443582010835063
-0.001914572018159494
0.044492770660413954
0.08030045715513139
0.023952464954488037
-0.0054574954397103624
0.008407720066349971
0.03598078291903721
-0.0405151520729892
-0.00443801645567493
-0.12554936708193526
-0.04097328804878843
0.01360461911176834
0.04169227341601688
-0.007716418789589676
0.03542842965828873
0.022543763386312192
-0.013261813856575846
-0.014314000612129011
0.021351082434308423
-0.006063230794136595
0.0017404137940066889
0.00026639994564530404
0.02030495207883745
0.02675220879999632
-0.018280919239968815
0.00038543754090331295
-0.023288140895997192
-0.01914076517216785
-0.028762142027545366
-0.029342928954936683
0.011760415036702259
-0.008114943160136499
-0.008379195821624047
-0.03996362024177448
0.004694804367956464
-0.01837556376708846
0.029212216448207647
0.005856760484650539
0.0030315711133694825
0.015052284098896446
0.02905109296188509
-0.008841575617124573
0.00691873067253109
-0.0064663161920478305
0.03018930737018183
0.06734147836097366
-0.03200009486611967
-0.046502867174098364
-0.027609696696758834
-0.021742774971745083
-0.009688551842407528
0.02303770531338492
0.011944151728738158
0.014234548184047456
0.012516953581657818
-0.006545160959166181
0.0019460090416653472
0.03006439474482794
-0.03815503341722495
-0.004706288678035333
0.05039540058484335
-0.009113655936055723
0.005018376777574985
-0.030036529337894937
0.02097465613121282
0.0020352976259725365
-0.018813654983409225
-0.025030532151362833
-0.010043731474817798
0.03495246204643945
0.0660978703563321
0.057697916990746535
-0.001664702207165022
0.02053781405080427
0.023359112873206387
-0.12624230576599263
-0.06237926750971997
0.013980746458144266
0.027157940524562624
0.05300597055567524
0.016514607616809954
-0.0033889153508483033
-0.00712434628827776
-0.04554318116188279
-0.009359624543092792
-0.014991081087731433
0.04531548722926337
0.04102277950905244
-0.02065235811591737
-0.049564444014619645
-0.020452569768640426
-0.0034280806712313357
0.008794625609709623
0.06562032881187886
0.007624997682288154
-0.011763888192831673
-0.0801128286360338
-0.02818442104516269
-0.051918348442871166
0.0072540300394985276
0.014046032287401066
0.032090176478884486
-0.021457319308420594
-0.014976503876787508
0.024683569935427023
-0.002373215759594379
0.00792443848506578
-0.0774916712912226
-0.049618256719849305
0.03211108957008759
-0.042734091253962776
0.012863215132358587
-0.014337391099901542
0.01838498008644585
0.003665463554891401
0.044191432915366875
0.02110380719059737
0.0992238227105945
0.04507614481412448
0.011515804226461208
0.00031881896596506484
0.06543701405847023
-0.007382135331288463
-0.02240782229855056
-0.03993351703170925
0.0016589887563813529
-0.019164308364403086
0.011112076281213976
0.029580398005817944
-0.016563820853381164
0.03722061669121991
-0.0197312322272665
-0.1426695543503813
0.02743072302857226
-0.001634858105517454
-0.008635888468464003
-0.02346757475661808
0.009969901174842082
0.021399330249186336
0.03537908420162138
0.01980627479750636
-0.0006403860417288984
0.0009742050933547965
0.0022626813838969484
0.012165397266316949
-0.024850787773664673
-0.031788413988591495
0.02008528700920845
0.013124979552823178
-0.04473809783416016
0.005452852216954705
0.002910376233922315
-0.031019582279458408
-0.033930128731263075
-0.03104853662236672
-0.0474319281856694
0.03126874359421303
0.02746516991230371
-0.00764739914079859
0.015866869893780257
0.00866199387717676
0.060259304633313644
-0.02961307198070472
-0.007130821742088902
0.0007388545733938712
0.0026408163301930685
-0.04430082306852575
-0.018354220378205104
-0.00160970087219955
0.05151436708788477
-0.021217286253751376
-0.0003671877419954884
-0.025896250021819316
0.030464763215923535
0.11182894846349661
0.018860610012746724
0.04260659791478921
-0.004661172744492291
0.0019478354589228936
-0.04635408633220505
0.06160842464220944
0.03804884248716555
0.021714559827160237
-5.3294846050027456e-05
-0.009621874492091724
-0.006994621011713052
0.013225056550881568
0.01877364965355195
0.0031068924644366944
-0.026852139548150127
-0.033490698014219195
-0.0024660971730914227
-0.039938003583427986
0.08424932384845517
0.0703469556827149
-0.016196452536059842
0.0695591858751833
-0.0718086068329731
-0.08737271644869748
0.002296331193387681
-0.026335594100777536
0.001969775534607747
0.02792003665859956
-0.010194373506403825
-0.011449868540656438
0.04400192905091085
-0.011486636901962975
-0.1196523980075937
0.030518768176685265
-0.059577875490087154
-0.08158984745184436
0.030922784031901185
-0.006172778779456265
0.012036339205282966
-0.04451602760224743
0.005515449185140142
-0.10436946153272227
-0.09020689449874884
0.0517406282809982
0.000216844176258621
0.0011444974192802576
0.005299021307534982
0.028116632813406883
-0.011892589276927056
0.02781719878745261
-0.013275945362293333
0.00013211356624775856
-0.01439328926871696
0.043350586781961784
0.06260793308514397
0.017869947928943055
-0.005163696563623563
0.00644015991007404
0.03340491917299477
0.017692646305424175
0.03573223516987686
-0.006402426640674019
0.05308683697913119
0.025450059843770915
-0.028734510760008578
0.02339385009189851
-0.014928739217419908
-0.018406190351870064
0.006249450317524381
-0.017856818243542405
0.00041425096920079846
0.011198795167447548
0.031811401066712666
0.002791102586646271
-0.05415146857875049
-0.025597991091981843
0.06944445661101085
0.0035838672699168087
-0.005537548214063581
0.03960727025446334
0.0042051353642151785
-0.026000603289490637
-0.006959178511941983
0.018508792412351555
-0.008402821177770973
-0.04101208477942354
-0.04148837796288095
0.06298445311401349
0.009842822454194823
0.009958874609968846
0.012365528377085225
-0.009909340788262652
0.010579085612094552
0.02539984551313071
-0.06433049804094859
-0.01480001506357814
0.04614842146163339
-0.01571084206261331
-0.003727924436146604
0.0072794888100197585
-0.03825229715120194
-0.027810101066082747
-0.042242583796232906
-0.0008121734364161569
-0.043247790092960925
0.004373554723853522
0.002372602168544057
-0.0024798267976716168
0.05561021073788013
-0.036698919532484005
0.10798553510135675
0.08700657652982557
-0.0506834414735676
-0.022875217472999705
-0.020835404395090934
0.01182675337429211
-0.015435206539369702
-0.017489788541369705
-0.015450022130272342
-0.012229138137758451
-0.011378373906425493
-0.004301051172274759
-0.01040278711913609
-0.013870772140552693
-0.004211812224093743
-0.020587515480493288
0.004793212415844286
-0.00226950863297264
-0.016136665442660028
-0.014542943018001445
-0.0008150929563641866
0.02082064222664283
0.13764477101252062
0.14620926825084538
-0.010971746472306499
0.01410041448701626
-0.04390460301213715
-0.004182393679807183
-0.03386725415752969
-0.017008635408005523
-0.03528882668362274
-0.05507883210011253
-0.059206272234852524
-0.07609178577269825
0.022097263203923304
-0.022470488097268013
0.005638253872526331
-0.009568604802470404
0.07154901931650552
-0.04247415860028506
0.03712870152178313
0.07155184340642083
-0.04704426682628103
0.0021026366885388927
-0.03227354678407458
0.009005751036041901
-0.003130751138459384
-0.056594946845410256
0.008434096788569363
-0.00031072707927272376
-0.047940465207698776
0.027874022957776294
0.061653401766422554
-0.034259735553019845
-0.02449652239090376
0.014385050781252311
0.003896042547944319
-0.057454923733700744
0.01069344100798126
0.10901285689338976
0.036992661914222624
0.005981202481211033
0.0028378862807181718
0.023371711921602988
0.002390333809977148
0.0323364104664933
-0.005840205119779603
0.0030001841864675887
-0.008886120406089455
0.016268164748053062
-0.018827552267735845
0.00287960819233053
-0.028477018071353662
-0.02093172086684723
0.03433460366381538
0.10794551454792502
0.07029579306315972
0.017476066876129303
0.008078003664474628
0.009471654792054399
0.014223649814766178
0.01504703257224259
-0.010770831517740548
-0.043637801207800565
-0.05261329247062305
-0.021881696016097782
-0.06029333681884576
-0.02766470191703047
0.006494928414714761
-0.009437247613761374
-0.018390812725446768
0.0014633010424795923
-0.03424128536593816
-0.018380502353881195
0.017172004402709745
0.0012741237109905542
-0.027131862539857513
-0.007789091626285713
-0.07989911207462122
-0.024923537141148495
0.016291485608514962
-0.03251207048770496
0.04166135296601727
0.03370731536837771
0.008754805175831215
0.00601966719658461
-0.008378696878438417
0.03526948143095148
-0.002325347205096951
