0
0.01560464439657009
-0.0062104097271795024
-0.0036252301836223817
-0.04124336201968987
0.002659613587976126
0.004271105828443894
0.009753471872162887
0.0031434801886246547
0.009125743850262926
0.0326552088584016
0.012420593799407157
-0.01525167789380493
0.006048341427145126
0.006306371380119694
0.01639655874262942
0.0032457948199378158
-0.029887000915547173
0.045338768541842524
-0.05857407765707634
-0.037847353691223516
0.003161342926188614
-0.021921860287720644
-0.05018687884295151
-0.009605471349368807
0.006223199264032455
0.022328921268073742
0.06961619951212922
0.00859677145250222
0.03923131645923144
-0.0022303027579659417
0.030072466530740614
-0.017376435518115074
0.013696810088676705
0.02399792518145349
-0.026776486624149325
-0.04031560682897707
-0.033411278181845964
0.011281248140201991
-0.007302021562872141
0.004350028065211228
0.03625008921923068
0.012578737862465161
-0.024830195210784445
0.006840218732135004
-0.054789630952560064
-0.03723873571133927
0.015057258323204968
0.015566447596030457
0.001719913457567545
0.0004822788924477611
-0.012915205584219054
0.05673595523793406
0.03201315967412529
0.008625212388460805
0.037016662270482975
-0.003920123702844546
0.004784387700033008
-0.016539905746328836
0.010224592792719712
0.02614479604213261
-0.11212467609352707
-0.08096672474678082
0.006144344115145943
0.027301159959975438
0.0572441673347312
0.005329274855419771
0.01284984535753667
0.009734532605065198
-0.03056639513246645
0.004183263450513231
0.005514692394336837
-0.021222506516837315
0.006012676205257001
0.007255964648205136
-0.015526367761384717
-0.023830037179935575
-0.03494978422327503
-0.011484695430455256
-0.01307711787101471
0.04731787773509677
0.005429330106684411
-0.014923483930480172
-0.021730789819463404
-0.009449120752544116
0.022794780947859174
0.04898484266451144
-0.031432569929839324
0.11564475559239512
0.09202318534390846
-0.020710105139811006
-0.008573318336803831
0.00929843756376906
0.010994501226375828
-0.003200492984909328
-0.016308788026034218
-0.03375936986130094
0.008449269091905314
-0.00528267578340954
-0.05398717400244033
0.0020363895993452193
0.032038705550584926
-0.02188796336282408
-0.028599099079921843
0.04899519869512658
-0.002200124846965234
0.005643206614470658
-0.0012496812734040731
-0.037443623642321254
-0.01585235926485103
0.007974419030554285
-0.017575435100635778
-0.01562720129886148
-0.013571398016858482
0.005723272689815387
0.017488812373988846
0.05712279871895592
0.044641188386401284
-0.07076162268164961
0.020754570541165755
0.02420619101013264
0.05289134660309084
-0.00791967841152392
0.05541513889658152
0.04199493510366899
-0.047742235873739894
-0.11958143100425245
-0.004164505752541811
0.03941486562422336
0.014613844549250998
0.0007911650957486574
-0.04284130269555052
-0.021843278135567492
-0.019106541655808943
-0.009252640376533713
9.564384733558476e-08
-0.01090329759346933
-0.04377014335477817
0.003578155481078211
0.05243464399515823
-0.009253096707326864
-0.02788342786818074
-0.0062927257297239764
-0.00449116881780302
0.04362767818203071
0.013844206605212798
0.017565872737813834
-0.06240302469140605
-0.004152504268847551
-0.05997500119069305
-0.04974083786388824
-0.004890727941453994
0.00757410216042915
0.03661328880657848
0.11670796624004107
0.002921049042470514
0.01906649188103462
-0.011856053965891896
-0.013428410526323124
-0.06501157810655053
-0.06616439288193783
-0.008376715401190156
-0.008108675966748196
0.051405840949739615
-0.0002738816117267096
0.013802612572516557
0.03427642522307838
-0.03232431216497253
0.014768749312562172
0.025126488637848807
-0.0211828562423174
0.0045449411930774
0.0333143367275895
0.022370119052252918
-0.019170759485646196
-0.007271336979237451
0.02458983551480693
0.07229450603268882
-0.0021718522323310122
0.0005981672180656486
-0.005753728483096719
0.06915442160817144
-0.0414426123945131
-0.04491710149157253
-0.0068142097688852505
-0.02077127797613261
-0.00496749983215871
0.03211872568908578
0.0011061650844444984
0.05838334163571843
0.06688743860151224
-0.0062308073813307045
0.013222119150641027
0.01786498024082396
0.02203742451267587
-0.016613253361336667
-0.06252224006769912
-0.05655737619541988
-0.14529383836727566
-0.002888421846087538
0.03527376515659208
0.018595694869687505
0.09731953823398763
-0.08906223111746647
-0.05732740177176449
0.0836519920108356
-0.02966735068866845
-0.10346908911763636
-0.01566414660330809
0.015260009666622854
0.021167554223771173
0.00038853940568898666
0.0489249623220339
0.008786438562925342
-0.018869106041142808
0.022076574650054213
0.015125255680591688
0.04357590941948761
-0.010950133940948919
-0.012676414626390561
-0.02097254737638436
0.03831425606124109
0.07717417829317692
-0.0035877359407227583
-0.08915302910149177
-0.03768791862263548
-0.04391167544926945
-0.01363200235364094
0.06636043741939635
0.015774555296135417
0.06767754643113624
0.051973942186033684
0.011896866551598074
0.050147978511132195
0.00942112513622636
-0.025911673959496565
-0.04759256451784622
0.023961358053338024
-0.029454962720320138
-0.012845602140391533
-0.0019874340756632454
-0.01189204188779053
-0.04190701639242369
-0.015340923782747387
-0.08174384988745868
-0.02804484928028796
0.03554380152294759
0.012089853937733154
0.01745377634940344
0.0037139201628254913
0.04222666957898808
-0.03091462741685099
-0.04079639247234876
-0.08002466992076472
0.0072619421119785085
-0.03227274049883458
-0.01755972724763133
-0.036457081685576556
-0.025930436689942042
-0.004629030007631783
0.052002269748830376
0.034516200377936
-0.0064793202512307075
-0.0178475660059189
0.012539118387831102
-0.0018068349655703682
-0.03029122708709929
0.14680699262859798
0.08572725856082511
0.04524493953778993
0.015944430832706604
0.006636171835776538
0.004498014484363668
0.02698000376468133
-0.037175023357253326
-0.037458228445532524
-0.03490051751602029
-0.013474950552848112
0.01670794446239487
-0.010952187255771071
-0.03303146567820961
-0.026070757592343428
-0.020362413140445217
-0.02568820140713417
-0.05345229856593375
-0.002560993918949017
-0.019274271051547054
0.18812405374114416
-0.006186590428381404
0.11382174906716502
0.06219320282623867
-0.08446045236870312
-0.08894939914909454
-0.05114672093855145
0.07470657267043623
0.05990114693165429
-0.0018307705993619572
-0.025443568244051706
0.00010698724900133669
-0.014369853701686025
-0.013115423077871936
-0.04387833149367352
-0.02627534743532609
-0.00154720308062914
-0.0009679857508380402
-0.014722241433157262
-0.012684022160168005
0.006120994967080316
-0.0042625384773211485
0.015003135027492433
-0.023399035298919894
0.011469961754388466
0.005657545012057074
-0.022705438250824092
0.01226620526419953
0.01421591567742776
0.03211808873403299
-0.012858107259586353
-0.02608430486555387
-0.025461833503512298
-0.017127069524874264
-0.029511439461900497
-0.010458424788373806
-0.01957244152816629
0.012239993984147981
0.11001107888245283
-0.03880723191541517
-0.011420575042510367
0.13639303796947255
-0.01203879391079796
-0.05320293478051313
0.008261639014413612
0.02501337539832278
-0.05325348374274765
0.04886207626240551
0.1205550112131208
0.004991991805238392
0.02055597608521005
-0.03142445121883888
0.010912561222062352
-0.13161925848279146
-0.13095857495467375
0.03176137586968497
-0.01834049905436308
0.13733228429912392
0.06085111877451284
-0.035589948534150706
-0.008269185361257233
0.009450992579723896
0.0028064794524569545
-0.03084905134856961
-0.05199291803095768
0.013992704707763272
0.026284587714135728
-0.03410416862192469
0.018041050865265033
0.06808630001613085
0.016986441588130875
-0.022265407528209748
0.04955860510386266
0.03820548032278388
0.02264182797115515
0.007396548121509912
-0.0843128886154273
-0.03513348823985833
0.006595058028407603
-0.007315052553169154
0.009861071112506694
0.002066304809719796
0.0061710990024452525
-0.05944433150760691
-0.0007901644252297548
0.005336348621061078
-0.050491347337982
-0.026269820789560833
-0.0029200922429739166
0.04872871507643884
0.003240542929904549
-0.022958110716376323
-0.008387074390343962
0.006141047389307697
-0.010913674985912418
-0.03721161378161226
0.002156077293737358
0.013926580152896908
-0.011835066882777669
0.03803946763599919
-0.02805995827658934
-0.01378633383820968
0.02081659380157563
-0.018873951028541325
0.015138460194985015
-0.01403362509511942
0.026787826567539363
-0.019806658139265607
-0.015420444851348527
0.018314253953058947
0.005560700059285746
-0.006860352270813606
0.04482010016750972
0.012674509610902916
-0.004481500512314499
-0.039010243337960944
-0.02530051217858614
-0.014044323099661386
-0.020615750902161705
0.03034698514299708
-0.005098957902307455
-0.00585602945320114
-0.016243620080988664
0.03244720806055528
-0.001320253154483842
0.02176585823999981
-0.04853656409977321
0.013034552662308702
0.007807032702339113
-0.024157491442990533
0.02304170087495366
-0.0007375926458624511
-0.05530570351786137
-0.015859449101046804
-0.038027943732395805
-0.02959140421965865
0.07650553062402285
0.06243321944265767
0.15860979941550873
0.07243220840932063
0.02484235644367869
-0.012174476754583424
-0.019100501299118063
0.0004091539664250265
-0.04150247881826203
-0.013857980249200269
-0.020429267988347724
0.008094872464915723
-0.022318204731231295
-0.01062986652355503
0.021407764314575868
0.02959360998156389
-0.010560328650887546
0.0019184021986100909
0.004797059206966729
-0.07069549270922976
0.023475320054997126
0.027227344606287222
0.006347264024821037
0.012370560936908559
0.04326182304242323
0.031664272386780996
0.021833329020127277
-0.023040586067590418
0.053490356176843556
-0.12629928207037022
-0.19079376706389403
0.012404112487979626
0.001412138510020594
0.014720336248168405
-0.010212757112612781
0.013714530588445042
0.01285022213178741
0.09481188460560801
0.004867550848420778
-0.007908545405228168
0.0024702997357010097
0.010937404101289022
-0.0022926946580200365
0.05637678627174702
0.007105288982416803
-0.012883052177668365
-0.019640700431250498
0.00674927426654245
-0.15477309930716
-0.1170837404276523
0.03474060726311078
-0.015430379369851128
0.01707411673312796
-0.0033242089293883306
-0.03136654430907389
0.020823282156143277
0.03016834885932674
0.005330031414861459
0.05803651858646989
0.013767895290765357
0.03157823255810262
-0.005664962295751578
-0.005041526964415771
-0.014039842630369436
-0.0011890404769163113
0.03938045738825322
-0.005146564445559151
-0.013293129629521764
0.0036537151420870844
-0.003583833024117502
-0.0007838386213241827
-0.036014338294244205
-0.032621184644278385
0.021589528268455654
0.016068736751718018
0.008928183513987985
-0.025484879768163007
-0.02341425580753289
-0.05838667365372536
0.05088967663843844
0.16261249373370515
-0.06998971688481036
-0.005591151816266564
0.007959849001723036
0.014474199828662505
-0.01732542130322733
-0.004761702075797357
0.010620692452061618
-0.12998466748842777
-0.03834492411106832
-0.06495009524733533
0.00802072040329615
0.04581736693413286
0.03284513821713025
-0.031278213063327176
0.05179183887327829
-0.03385086497903994
0.08380756157758808
0.09379388871979909
-0.08639691285746898
-0.007582507769021169
-0.006353613676495599
0.0429669002290228
0.027717040137396048
0.10392873849299195
-0.0008087801267008981
-0.0017714315175178172
-0.04808879599395968
0.0070153935359809185
0.03733484164211902
0.07222827700106453
0.011241001010294327
-0.014427700279902552
-0.02589377900486897
0.022122337215960103
-0.00037786239288658115
0.04565975105697301
0.13952167810053762
-0.12033697173941355
-0.08741079992441576
-0.024477429675286502
-0.004528131023599306
-0.034828269628284954
-0.03437132883877772
-0.04467461989895391
0.04121669259843923
-0.049432154758235695
0.12061220666790706
0.09427978891237893
-0.07709144667756353
0.012591225740248457
0.06063002413724084
-0.022615239429607973
-0.017282930978070724
0.029978714383838496
0.009737105741494846
-0.002758814199109903
0.024067513149284965
-0.05563524804993961
-0.06383096927367184
-0.03964262426180916
-0.014606656102957078
-0.0013502337005037522
-0.001582813089870545
0.002835964103182685
-0.015186417313255107
-0.013017388848061416
-0.01431698180772993
0.011891582834793949
-0.022460971780301067
-0.10651232492682593
-0.052480051078750034
-0.004195944534021258
-0.004795831812341022
0.0070701885241782406
0.006070848010257387
0.03287289764779673
0.017338689078194133
-0.008544408827793861
-0.0026327123641558853
-0.00029811316503717416
-0.0016137804446967514
-0.012010850057941825
-0.024258391116327754
0.01889138603231474
0.011875438874799964
0.005014684902302395
-0.04175320550721781
-0.03836072828077457
0.015303515092166311
0.015554062281529222
0.009134007159141996
0.03021177791324261
0.16544206666772532
0.059572730756552394
-0.05883197821622303
0.04547028339985701
-0.014572671092316233
-0.0034803197651218573
0.023071742184614955
0.002614252706599321
0.005445383338234528
-0.001475755909155091
0.03596088457110808
-0.03995129664178783
-0.03544384936916513
-0.009740043986796492
-0.018732541423260602
0.0017280755097298997
0.03434182707340762
0.027163903259051426
-0.029524137342850556
-0.006814368066925795
-0.03488896370060334
0.019739044581465214
0.053029506304115764
0.011488457575381542
0.01926318982709241
0.025553245064193455
-0.01991474887839455
-0.002709367888246175
0.006992882254795573
-0.010399555847588601
0.01836102746185348
-0.025987654085063202
-0.04435207605473865
-0.006623203897037568
-0.02672194732870611
-0.046217360732183355
-0.018525067102782757
0.06619008230809788
0.016060145094905328
-0.05111486413931951
-0.009780933298023037
-0.020680411449114592
0.014148139104875135
-0.0010090469941865254
0.0497096080960968
0.0037522807107071544
-0.048228121938104475
-0.006363087842680784
0.023270937187113278
0.024279695071375555
0.012260819395069032
0.010800361603687143
0.0038231237661252126
-0.014401795535417922
0.13787043786835604
0.03682938942618433
-0.029118144073742448
-0.16841923510088175
-0.0691124497279822
0.06029058078053555
0.009149641905730296
-0.01142254660444823
-0.003402609687001411
-0.04988851242519539
-0.041231650373763966
0.0005981707467414973
-0.006916494206033821
0.040702179778273784
0.0222576271948849
-0.02869871945397958
0.01106998869392753
-0.034013343197454984
-0.04736363631771187
-0.02086471582180836
-0.03366311584304394
0.02265385252735807
0.03661216339994604
-0.015953951227097342
0.012206258647645416
-0.010369074230269629
0.018581180708380208
-0.023280093535870062
0.08797503213721347
0.19042985075397012
-0.03350900749629514
0.011469137965008954
-0.0379234403671117
0.023351333129414575
-0.023401757229170934
0.017026886974003338
0.011894547010374991
-0.014235007195576448
-0.017106690836741916
0.012718280136977723
-0.05064396087771288
-0.003028963589141515
-0.04200071985843194
-0.002676957495284124
0.023435322013438658
0.005049089282015367
0.000572171343254649
0.00608986678806324
0.044395417522449125
-0.015439958249540054
-0.032195881734215705
0.0859090490138979
0.09322992384199154
-0.0061996229084795695
0.02764424964799316
-0.001245108298924907
-0.006931671763751291
-0.11553822924361927
-0.012108440251758184
0.037951134920147615
0.03246582026959015
-0.004362709591833746
0.004789486051423994
-0.03641175291876346
-0.1055238164059607
0.006025176308901143
0.028101019218959314
0.004641451227780342
-0.03005231275041642
-0.02057638521698355
-0.003531437094433675
-0.008031653806048235
-0.022583662101469615
-0.009597461173904403
-0.004168542470710549
0.026268494154463518
-0.03265627083334822
-0.03819146516386934
0.016586154167160538
0.025683040974920676
0.010358430575777863
-0.02575982808755439
-0.01443944556216733
-0.0015662592592800885
0.03413828088074352
0.014075711499466311
0.021664856258756717
-0.07638543034682473
-0.03859596605684147
0.0167457854832741
0.031584105654811435
0.06917202883526169
-0.023776952828524957
0.006577782846308655
0.008793721361257693
-0.008529414816438303
-0.014981310410659757
-0.008454469491657008
0.027450925395531407
0.05532672272710301
-0.028146388237801814
0.030957802916683916
0.0417981693451723
-0.039919938589198255
-0.10280071443248547
-0.027916784717682216
0.0037042986762843722
-0.017379463437974883
0.06395378025646702
0.039564291894645866
-0.023023347461536465
-0.03160700734409892
0.08466647833182465
0.09299881656443576
-0.03281723414486258
0.005019360618477414
-0.031961745251475104
-0.015024695450254056
-0.016539532791010843
0.008818889599745866
-0.022559778508726563
-0.025375957615963844
-0.010276557941091771
0.016811388204732835
-0.02545075240457336
-0.02596785930833507
-0.013359186086205769
-0.0029580015532694745
0.005090858897334043
-0.03498612132798071
0.011959504758613512
0.015211664591285489
-0.028333729442793838
0.0984109972896395
0.14780438453629965
0.02362386750576902
-0.029029274447546473
-0.007077531707571123
0.006091479202684538
-0.03641566741215919
-0.014908875132274749
-0.0035611196635021995
-0.0031800122247636867
-0.0122139259160785
-0.025916251332352133
0.021532142300508192
0.0013974619663194641
-0.04591201423330375
-0.0027029373714149117
0.008749217593920776
-0.03309731029313094
0.06325717810038217
0.02015675544023601
-0.02325637157272373
-0.02039713881464556
0.00499050862590083
0.06050986586840053
-0.015083956445422497
0.04079498019447885
0.12852666979145047
0.02395891080790997
-0.015463911175626104
-0.00712655801011859
-0.007024771763129751
-0.041988597171840315
-0.001549610790662141
-0.011148303215792134
0.04550846519268069
0.008763936714516907
-0.0298714464431293
-0.0012456435273005132
0.003855244699908251
-0.03161304072827823
-0.07328090205163053
-0.11279632090460127
-0.12181469272726407
0.001297092440371408
-0.005345759219551966
-0.0053606259859080505
0.020284243908558458
0.02733911918410963
-0.01741287628213615
0.003232485833122556
-0.031094398160336857
-0.0263515483600619
-0.04903060602123271
-0.04465916861409421
-0.0052577751175437275
0.002742400598831331
0.007773342876969158
0.040429775897883914
0.05006767899248528
0.02270218823258196
0.14036140605003927
0.07344911852008018
-0.07182816453545028
-0.015137388462343679
-0.013432123999832015
-0.0006064224813574413
-0.018098195309822488
-0.011754682800358917
-0.00514784194865346
-0.0593314699112131
-0.022920854657768455
-0.025128164053587067
0.03638387180251673
-0.012332609870118659
0.014973446120276368
-0.00685147056355865
0.028251882226759485
0.02357863027999691
-0.042862691219291794
0.002699435082882282
0.08734348442597804
0.012763888481435543
-0.016989155336758974
0.016291481801723007
0.04273668329265216
-0.007182019293869923
0.017044901057101363
0.0877853005226035
-0.013819164787431688
-0.018691899134735252
0.029461426782692295
-0.013691865616579929
0.0073776874802571335
0.1498049085833698
0.03540744198057926
-0.012459263417335338
-0.02536905744475831
-0.0035230692581022
-0.017278872788245206
-0.013130418551498128
0.00751945742688105
-0.009196015182170704
-0.0038281723213166394
-0.011631780526916007
0.015815205047440887
0.008436793251111947
-0.025143387791318847
-0.02982688188707535
0.002835698777684453
-0.00206312156804242
0.00027893026483998603
-0.10746612528109069
-0.17986026078798031
0.031048431702523503
-0.05412135101726856
-0.01751202203575462
-0.014621301010954612
0.034365065687655884
-0.00460911706978895
-0.05779671146343208
-0.03354124773349428
0.02163316132468134
0.004451858556658549
0.01679554793664186
-0.022410926056070472
0.04172456189429176
0.004087216319345867
-0.020712100546253585
0.010151934691351377
0.002924398246011808
-0.015469299159802245
-0.013203834902509905
0.01593575733120231
0.06271025373505687
0.013947446180282227
-0.02054110682030668
0.01135949218784762
0.00875434788975022
0.003474004162726369
0.03662115451947544
0.010558658230409652
0.02554509548563906
0.010034938851926653
-0.012918867291527983
-0.013582970055750997
0.13698780220272003
0.04867535011955781
-0.011932224143428913
-0.014341369383404834
-0.001989196243130329
-0.010479049660193338
0.1181196306622109
0.018442252919754463
-0.04146644684918438
-0.04012704787500239
-0.012681384434610745
-0.004790737727897911
0.0010288433255076178
0.00013639405708062335
-0.02361186755361034
0.03221404661934299
0.0036510016650500403
-0.02047499312592581
0.08729009460722009
0.01750960477558803
-0.03813922719367145
0.001761584579194253
-0.05496699273259643
-0.05030521033299188
-0.013484991310282012
-0.0020616623175136704
-0.04477375370771683
-0.03740696729530373
0.023285303333560138
0.006039754786777647
0.038905947056237976
-0.01003556719712895
-0.009723821356167171
0.013125852736974105
-0.0011373262301394341
-0.04031166934041403
-0.05244070167190011
0.0357584941044615
-0.0029232679235605213
-0.007681390810195589
-0.01641341996296099
-0.05342598234344129
0.022609610607023996
-0.008112255249342793
-0.007979514628904345
-0.01545495370592727
0.02281396442769261
0.018234522287089803
-0.008318256088846567
-0.010834975462011112
0.021680370539828547
0.02255562385588857
-0.005030429325159715
0.007722360112377189
0.027672147914579996
0.0024620983044313914
-0.021402880697426345
-0.05074292070355646
0.05429087282997641
0.026661139924076996
0.011883896287844314
0.016486209207717917
-0.02537583066822817
-0.0070355999625831755
-0.01114081470021772
-0.028677504340721575
0.008875443070994403
-0.017757550895492785
-0.024677342792326626
-0.02874789184873082
-0.0021870352342692268
-0.02603157649562988
0.034978052935752124
0.045037288848192095
0.0031222500488854487
0.022000056571233127
0.04797600176237003
0.025872253424721853
0.03719226342472875
0.03405108247913469
-0.007503493403305669
6.789190333891332e-05
-0.009388527453710108
-0.030940312564698248
0.01861728017646578
-0.05947575439865444
-0.06601836754144198
0.11347636861864141
0.010182509715902064
-0.06519585037068945
-0.004415818850101848
0.08813635764629438
-0.05712838669849003
0.007938642039441711
-0.024970642489150333
0.002304128021152006
-0.07937302024889939
-0.0005531882226062487
0.029754261388329872
-0.02865099349580426
0.0005264112602049573
0.009723630395168738
0.009488208215575446
0.01329419441444187
0.03175994366182262
-0.07764052265774128
-0.04569738276463883
0.012321003947474643
-0.010853750503471512
-0.023445429279424307
-0.002134892652863339
-0.021538136697481308
-0.06850522345146878
0.058913621618853135
0.024765373087910544
0.03414089264558259
0.03376258954122967
-0.010966200162534148
0.008270683113627915
0.013522686735874739
0.027004343465884297
0.008466120827570025
-0.0007552788225105733
-0.0072746588299601326
0.04845977792823502
0.011180851273298383
-0.012215295667076418
-0.0003544742277670759
0.003884118751829786
0.023616101631694603
-0.021713032615151975
-0.0033037227447796375
-0.007721128483892935
-0.0036900569774242376
-0.000990982848343759
0.00665251885007844
-0.027814671141355253
0.07083712879731625
0.001255705759332981
-0.08189048818225352
-0.012394316831197526
-0.022977061312131092
-0.012928656671004275
-0.036563931311077734
-0.03292327506051393
-0.017426424219828842
0.1117937403276068
0.08173377040821292
-0.039782066165974315
0.03819258786048088
-0.009106784759873181
0.006935140556133214
-0.03427726626831775
-0.01811895646488137
0.0295874755428334
-0.005336936401514988
-0.017342169855242295
-0.02177303913785898
0.0002484416068752956
-0.027472993949530664
-0.024575804307068665
0.0368166902329964
0.06796303266957983
-0.018865005160596995
0.1760227665206613
0.05767215216459057
-0.022867594463701377
-0.01382377285634637
-0.04794886488541894
-0.024846678538889656
0.008998838005150021
0.006205243804807849
-0.09857464249975596
-0.07648290525230043
0.009714459223387184
0.0023567654613045864
0.01090739853102361
0.03149710269446248
-0.006562071203593487
-0.008097419549555554
-0.0008933244822864829
-0.008633185822608492
0.04956735043314104
0.015151098405243282
0.010897393084415783
-0.011995643471549565
0.007118494409480454
-0.03457694597846276
-0.01273261964572969
-0.0006733819783467924
-0.011715196643402426
-0.028051079320970715
-0.006478082497571455
0.019995223277874664
0.027506968273219235
0.014299844601434566
0.021166445303334506
-0.006468167918755937
-0.00020153788098026848
-0.019457801441232846
0.020129414725125135
-0.030389616421138396
-0.041549851800870376
0.011125438709499584
-0.016662001055120636
-0.002233237125795207
0.00026913787291401236
0.025421633827472444
0.010137049354352575
-0.015519934041598685
-0.0010016705880902229
-0.0024817930977848223
-0.014339706465441424
0.06913112735545025
0.04213035331864437
0.031170604094956585
0.021215146346588668
-0.11258674278762258
-0.07167386609243265
0.06041159639871039
-0.019009046177655822
0.009780573801128328
-0.04891135614493032
0.02997298108546499
-0.03264365587599282
-0.15039224679252958
-0.02794846625301268
-0.007904708230868163
0.03772324802383644
-0.032052005375420835
-0.017063849836804174
-0.03043348602652605
0.06113897344031933
0.012752335899118127
0.12726614516854676
0.086566336650982
0.000823848569170016
0.01678291013247472
0.001043819100837545
0.03275037572149568
0.12861999188317266
0.09438124448126534
-0.018518086970057024
-0.03272652062137085
-0.023320486032775718
-0.02120575844996454
-0.035937414728031074
-0.11615663734137618
-0.06592749786142353
0.0307002417270477
-0.056282759951713744
-0.020449183034572358
-0.011725809859092499
0.03264219848661452
-0.04027600063544468
-0.0012892659433214216
0.0014943379850566444
-0.03230437306299431
0.025005031457106155
-0.10792552996396722
-0.0085229455017601
0.013527511497107505
-0.011690332168526154
0.08079873388514554
0.16361067619655256
-0.0195239263251844
-0.01082946806720224
-0.046219083108705074
0.00676156546958227
-0.047746938773107525
0.01245746876951359
0.12526286560916639
0.012597526329063186
-0.006002718712444861
-0.008588306561797411
-0.00872067044795839
-0.0013159930783190154
-0.025009952315582923
-0.04008970897360833
0.061310943164986975
0.03133074925717613
0.015521084674690188
-0.007944236457832139
-0.003344923722512773
0.006677399044202965
-0.012947039770363222
-0.04909637312202864
0.020614988150342583
0.011524543663300316
0.007474290250266764
-0.017332920685742263
0.006455251816965783
-0.022939661362951762
-0.0214375282664042
-0.009287384068339836
-0.005322365348255419
0.0009964867708324703
0.00242439327812962
-0.014356212676386867
-0.009044822873734896
-0.0271745431718948
-0.015559193224686938
0.015516199105093526
0.005579271086041655
-0.02151731983668644
0.008456537422312525
-0.004513671582914821
0.03480638859599702
-0.011971613946289386
0.034606672372480864
-0.024629660797940007
-0.00991816170910736
0.04597832710591012
0.03474172442046276
-0.012516112236671015
-0.03720229277826915
0.024893093278900876
0.13246732222958174
0.08239273815764946
-0.010951526638229585
-0.03631699447949296
-0.0011464052104406342
-0.056469931616490596
-0.11751355432295756
0.010468936750278768
-0.007037252109444822
0.014763883530148993
0.018835402076906926
0.05114378864592032
0.03509705385804225
-0.005009005763657949
-0.04202260266250961
-0.050842976414291786
-0.008718613299308559
0.019306948432537538
-0.002501679826713185
0.00698798047577768
-0.015047453145931889
-0.0027761446631201637
-0.0036762741466381046
-0.00317813796402471
0.004688226576395878
0.022613639518787684
-0.0317737222780937
-0.007131113914247867
0.007914850711071567
0.04577445422048522
0.002725921176815159
0.015030377394752752
-0.016621537578788894
-0.056961840964488274
-0.055466432599071795
0.0009203913494816064
-0.027399010262447128
0.08085023846701768
0.05116802287719798
-0.00813397427970371
0.006081366903463247
-0.0512631855010961
-0.002832015958719793
0.00242987255889005
-0.008922873992785154
-0.015786626362443514
-0.017180160424795022
-0.026614894989163425
-0.016032501775431533
0.03854590730081365
-0.011166037794249507
-0.02739103974551168
0.002684581412583475
0.01678267470640823
0.020703125763591866
0.05264296703200779
0.003617028628847181
-0.0197506330461406
-0.07072490212819209
-0.07110988525757522
-0.03761060243557764
-0.09307489683745591
0.0019815746717214283
-0.02677150048082052
0.08193379420549626
0.2015158038795052
0.03810266229376469
0.013840662624742952
-0.033871994991366186
-0.0022889697501987387
-0.03746611003111037
0.013784725119403839
0.02064840289492742
-0.0673360217206684
0.11358395279323172
0.0180450090647421
-0.011625922450973077
0.03122443747064209
-0.028905519291131082
-0.07528643306286535
-0.020979920739982883
-0.024397121143446235
0.053469614890887904
0.14557547713556468
-0.03184027448336142
0.018731268981881287
0.00953744034766442
0.06111760394966533
0.054800471555455296
-0.002195588826433066
-0.05543689539943197
-0.0226121024839039
-0.020444078471482212
-0.05242561008267995
-0.08123302114761036
-0.025282292686267704
0.007284164595660018
-0.012864749601803657
-0.03963919517015544
-0.029968258974920753
0.014417773215945779
0.016827725758414926
-0.027294404420679576
-0.025598287450448214
-6.3690944671344e-05
-0.013804943948775279
-0.017465707854585174
-0.0036546865251255826
0.012490336269615048
0.0042803684040913234
0.058073274536068274
0.07090136706662667
0.08385304680963336
-0.004515702348222569
-0.026657168796767786
-0.016175515296397627
0.14975470625956586
0.049946609247375345
-0.008348128473807278
-0.03517216467767505
-0.02982884036023943
0.02910663073616731
-0.022235879207514117
0.0009908167527827845
-0.010254084279186016
0.00618552533364113
-0.04017777112219269
-0.005586316974226213
-0.11029008631550448
-0.06591300764497716
0.0077874163432170365
-0.050368354333666626
-0.0034479315480763126
-0.009201428476167882
-0.03134030730636496
-0.01271457665813901
0.01931187914966472
-0.0038704487270625598
0.023343897904972
-0.022017566335137916
0.06521479069801572
0.01685411308539108
0.07867580314543426
-0.0765022113014716
-0.07859208076781055
0.18499628384777772
0.04767053512910311
0.023070636144854727
0.041198665311551516
0.041439254203694216
-0.02173677882376277
-0.019085946780415284
0.02502050824996315
-0.07641889787156605
-0.09895502038585773
0.028554254819951802
-0.05174100456921386
-0.0922028921120058
-0.04926087158526033
0.0007747338581788029
-0.06333073964310511
0.011611799694425719
0.022593482098686703
0.023347158864963174
0.007682702594891584
0.270891978383806
0.10529014891633595
-0.007870722998585631
-0.00016111900505024962
-0.04392839751403803
-0.022672276716640623
0.003479773716934421
-0.020644552481953665
0.0020344865451986057
-0.02805186351835026
-0.003695973177382768
-0.025212243198095476
-0.008327868047375247
0.06014854449534108
-0.032340829872259155
-0.01993571510942137
0.0034895084240059264
-0.014672183566879646
-0.01162465509005285
-0.03348674652163101
-0.034794552630762296
-0.05668880399770181
-0.016486818457912333
0.020933890472921393
0.025767547373616806
-0.18538899565054237
0.035493203695883366
0.019276072326645678
0.008399610397152956
-0.015776165999553428
0.07190088716542715
0.012094131970641494
-0.0007153636552616202
-0.03287891036103118
0.053874492826505076
0.015814580795339258
0.06108459195516456
0.07566153607764203
0.0056413166077815095
-0.11408027107910353
-0.10691492965500717
0.0032723641807236997
-0.041555275948198786
0.02290104738329369
0.004284368607108742
-0.005376181649110571
0.015029461923086131
0.03917532646508217
0.03762087617602975
0.0035016287814787143
0.1423187135995402
0.1364937721421319
-0.030609309945091947
-0.0001440973881248321
-0.07051983519288604
-0.024922956228522752
0.12162423447803719
0.06112200280002195
0.014352396494924003
-0.09263231210680786
-0.06757438503250629
0.018280171603245507
0.013107097058349188
0.0003103676768418313
-0.012891368398569787
-0.05524350697082841
-0.007713623253129364
-0.009258299628081328
-0.043919209532264664
0.0013743049758837883
-0.029635071687946275
-0.03171092122523225
0.010502248395738333
-0.02548783461624452
-0.11024487902192613
0.04989591628261998
0.05475676274237167
0.023896850955458043
0.003905577263678157
0.005873321872149831
0.026413178705060453
0.01560993289130875
-0.02404662596632787
-0.031006336185875186
-0.0026360163875322803
-0.03607752981911913
-0.04248916371591036
-0.0014798531063685853
-0.040154252020587575
0.025702004723214805
-0.0034631205028439627
