0
0.011185238808791145
0.020324916586146744
-0.02138661069332785
-0.02249918135447181
-0.022472851352351497
0.015248970503308508
0.03407302338656883
-0.006844210818425303
-0.07319431585520988
0.10118386643434756
0.09057383124060535
-0.07736110833926377
-0.00987018059057832
0.04493551446329651
0.033236394086131986
0.0010321170444564103
7.524840194876363e-05
0.020073586102953282
-0.22828385997642017
-0.15189156720405342
0.02238778180073231
-0.02923660084611029
0.003907318053264204
-0.02478834454327295
0.005606803132414424
-0.017847976630288673
-0.03820755233170063
0.050766655992992404
-0.0014418348226270452
0.008060142211731468
0.013735830098884407
-0.020706647995385023
-0.013776341820553473
-0.013788294069134246
0.043516894897445486
0.0066129109568079224
0.05941557869690617
0.07620981021114075
-0.014308567744408538
0.14192788859779873
0.10907210916755412
0.03067093120580944
0.009688856776628606
-0.03139730519876968
-0.019636023545942977
-0.01615414933493564
-0.0030333405957443014
-0.04849992853323487
-0.09917433980617177
0.04369503783501184
-0.032843723798167926
0.0065071944067124
0.01274982031745275
-0.03292786491132792
0.005295995101285724
0.002007153228622307
-0.011365992566029133
0.01680104818138154
-0.006513569452131815
0.007292913841034155
0.039499052550019
-0.03158045050321773
0.031447258468002115
0.08926786642013952
-0.018489200838877184
-0.029316042915779515
-0.07759870042579517
-0.011522544162596855
0.025168364761884277
0.0035560551917833334
-0.01495154031767518
0.012526071430412757
0.050534002556825254
0.05442539688586703
-0.039637806262699415
0.01913339824679285
-0.020375476920629895
0.0337018089642346
0.042270278175424204
-0.07771189489905099
-0.037934099219842275
-0.01535922242687988
0.00019098326390947003
-0.03189731946966449
-0.04884341848700002
0.017599744439509124
-0.04709517052916201
0.01601362201356319
-0.008213070463858552
0.013818707336312705
0.012002869604470865
0.004070116366270887
-0.013667760083953217
-0.005752347580920809
-0.018745141935012626
-0.011354651461173617
0.046468037811570904
0.10005862494261143
0.09911884885075412
-0.05248409056666493
-0.027382862222475882
-0.030871441340914667
0.0012301309438473393
0.024802533159657438
0.04408917267045084
-0.0075009091660567205
-0.018802068171633317
0.002871631509128778
0.05591811535502713
0.018195311086648024
-0.03469795404425724
-0.024761672807033248
-0.03729365111445251
0.03697018665257709
0.01355450583365993
0.0023188297593872667
-0.012926315807592402
-0.006563703495240879
-0.13207659388365592
-0.06951343083119471
0.05285866078123376
-0.03684185933007825
-0.05265373588616881
-0.05594071445482229
-0.031479070123074666
0.017673068657941646
0.022454557915250053
0.03715639320128911
-0.03153320030753456
0.02302598379072979
0.06164549870697707
-0.010107307148557194
0.07273146838716048
0.03728812112099025
-0.0219182598208883
-0.02515779218152022
0.0033984306449046744
0.013644335193051686
-0.009627542531788094
0.0039846597327860295
-0.03289520913665401
-0.004872051973873898
0.002348373920680728
0.07763943188728886
0.10411223819725704
0.07800531353619407
-0.035841947576841296
0.009826613650341392
-0.016040518164767783
0.10274591786062516
0.009811421743160898
-0.027367844387495666
-0.042716797378705165
-0.021101890393614733
-0.007099398257540342
-0.005504221875036639
-0.10014105119680534
-0.05884942359805511
0.012168628434619615
0.07168146522361538
-0.008026980889258585
0.052652391677927436
-0.07346222461523494
-0.06607567004754102
-0.05460062812605612
-0.0719007175682326
0.016010923314739526
-0.03852155808634106
0.059790288513857245
0.01974040851969885
0.009302498535866755
0.016458485592816364
-0.033672262570878596
0.05219565540174752
0.037122904444261466
0.00218258712165259
0.02979130678870214
0.0025273566691053125
0.0009446208855649564
-0.0642400565186896
0.0011190210414298459
-0.043271770057663465
0.16466618171663364
0.02735538809840283
-0.03359715056145423
-0.0026009347728114395
-0.04425840348557813
0.012215538266631774
0.03425091912023579
0.001219684759597588
0.0022356162390105593
-0.0036311928847407955
-0.002560054806438885
-0.0026202129261283973
0.011522816174832534
0.009537090934469066
-0.019895397617628145
-0.09989755457221519
-0.06079433263944369
-0.0006408375614942217
-0.01627145788834695
0.01844598455850508
0.0020901174561523185
0.04019319414239357
0.020594552366727272
0.04246340736580945
0.05674340229440395
-0.018586529903004682
-0.01153518838330969
-0.02236902644621668
-0.008415493880076286
0.03564336255137012
0.012141543038301943
-0.07586771371362354
0.006252729275712301
-0.02721350468635064
0.030261106508593517
-0.03849062621456227
-0.05248791232082695
-0.06767538871871967
-0.006416129477325701
0.023438386634903552
0.0031807500339359213
-0.0351044334557538
0.08414829819527467
0.07068748582423022
0.017902890607191992
0.04415248139462104
0.012794018229545744
0.0074398163602737355
-0.026976147026739825
0.025191154816638327
-0.14969956954123942
-0.022930701744316842
0.03203200321652363
-0.006931396802013758
-0.0296696139502583
-0.0058224103130513774
-0.021418295476190223
-0.04715662688580999
-0.005734040764235762
0.045619115528640994
0.15266597014891523
0.005043773108337206
-0.015048652170510761
0.03630491631519816
-0.011971205919679392
-0.01803543021985113
-0.007511863293752137
-0.00570796443994521
-0.011287181054967106
-0.037397691785015584
0.007130788030579951
0.003997122605175767
-0.020611230398572718
0.0005072843406903633
0.06031459010672955
0.04390763479826412
0.009864810949968434
0.016558557894679197
0.008404531544891214
0.001980577182746613
0.016724224284033338
0.05036370750654283
-0.002634786498721765
-0.03187858488615725
0.010188140984712659
0.002433050905360428
-0.0068817160240502995
-0.015214802470322968
0.01565419799309044
0.06125176457380722
-0.010995866060648904
-0.010524103998731278
0.012703867334800157
-0.04403683441318047
-0.09040683877930691
0.007179460000106387
0.008275080214280129
0.04143857240311261
0.010346969017392625
0.03331340911744692
0.028962684495775073
-0.019141520151795786
-0.02001440567075836
0.012733410240380858
0.0528390540932166
0.011236996967070909
0.05688315088616921
-0.0771478097940361
-0.037155608736756614
0.021338643288075852
0.03091979475524299
-0.009161831466806925
-0.05106550820127307
0.020403506663092853
-0.005155445650185138
-0.04174262333966526
-0.041777540223280146
-0.13527369657452748
-0.03427551888924864
0.0008105211831691756
-0.03058940622217771
-0.005919288464710452
-0.021380387131959108
-0.007341397801383136
0.04668025479320991
0.034596013326687984
0.004366837967365717
-0.00031172305736607746
-0.014804026407853287
0.004331581807307622
-0.026875148649475395
-0.013522558585152299
0.036497460390759115
-0.0779944116045474
-0.0065648247190618625
0.03625320275162398
-0.06480896323948163
0.024872840323438283
-0.006215335290859768
-0.023493994185972426
-0.008548815367423962
-0.02027841225097307
0.03646622009943478
0.03181548772129695
0.003727713822605071
0.025555639027751275
0.005902910485966378
-0.05484751859368385
-0.029794777132438954
0.015482018758223894
-0.003655542639046697
0.14964657047177882
0.12218553895386769
0.02968285117256725
0.03521128044854282
0.0007010397098996022
-0.0013835153552254206
-0.007642247257581716
0.002375292786996109
-0.037901599430040754
-0.0196842109764561
-0.011135680465312074
-0.012284202815491847
-0.001955481127232188
-0.007377202511176957
0.016745171648175246
0.03619930679568818
0.006228329246024972
0.04541961915796531
0.033567204852754357
-0.02214067667722208
0.009156796597298688
-0.0014675779458007186
0.04734717528858956
0.0559164357857351
-0.006087182791764684
-0.006143651568908304
-0.03305940246242513
0.041655274892058045
-0.000988553266983542
-0.2108435505170393
-0.029088047062125748
0.037601339880941366
-0.01728161169120793
-0.007590282013848548
-0.005756183443225672
0.017427189643329514
-0.0025370187243003127
0.018152489842481016
0.007974853675030326
-0.019811462549032308
-0.04388129058704886
-0.029517463626112704
-0.017591745689885637
0.0003756359780553199
0.006054854728715328
-0.016155511754619527
0.019395080536087912
-0.003628533224538728
0.016610811486153815
0.04312413904694925
0.03252066990483439
0.0033491070225386125
-0.043049610993195604
-0.010706356580741594
-0.024340732282344815
-0.05359768007765181
-0.050812219501894657
-0.005996574092780087
0.024467377618820126
0.000524965117927716
0.02026593356735439
0.18817341445026145
0.028145560736166114
-0.05058019207498516
-0.05437753313218712
-0.06715459915872474
0.009836877599459911
0.027390698260645264
0.017866027357720426
-0.011017735238396609
0.0016443256543702564
-0.08117765804982899
-9.065357038885178e-05
0.009764808789676534
-0.020701157697182
-0.0026562103249094895
-0.00640282430763262
0.08028006431573642
0.025013027197726405
0.002529177531081664
0.040716191258530175
-0.003039774194891445
0.0053611391657005444
-0.02055410112753979
0.006675058592391936
0.011532760929178484
0.027675812403972343
-0.02896063293601481
0.03314019264119102
0.03684305226156992
-0.0638538452405165
-0.018656210036025304
-0.014259737158727455
0.010121670751903691
0.05599116200836916
0.02411740595715294
0.026556030372679975
-0.024021935488651835
0.04798592578069993
-0.07469346326987789
-0.041410687886569784
-0.014894384976506511
-0.02478009731678318
-0.00743586686902831
0.07425441328393995
0.0033958177090378234
-0.009972543911945957
-0.013614470144494635
0.013823094268758926
0.029339957966687372
-0.011355706627146802
0.014076972160252017
0.02309430378653731
-0.134585668783665
-0.040688956635145664
0.048344945623610275
0.008016285520459696
-0.008746214195830734
0.015951468242932865
0.022588304959710863
-0.017174112325751095
-0.05322842873795251
0.013120348974519944
0.013129714265433412
-0.0025139278421589606
-0.019899386863172913
-0.02060469172834998
0.013359606481703177
-0.008004710266214222
0.017999298772359104
0.009436621812880564
-0.0116831329383893
0.0010532049830665878
0.01877034612489562
-0.01689403997452986
0.004124657124919395
-0.001727845061723557
0.052316166857419834
0.022526693511246584
-0.03233060210058161
-0.032993513129669624
0.005135745762474604
-0.02099799948370838
0.037255931299852336
0.013156373579961486
-0.015504061293148056
-0.03177789447809837
-0.029196627424909492
-0.0016593516911780637
0.009145214595567955
-0.01933713269515057
-0.02553423003354383
-0.007167285312324265
0.028162283064909654
0.04145495636965241
-0.01350004819561308
-0.01046242333422095
0.023212094373154676
0.03675723674098739
0.04167846185158795
0.03143807448476304
0.030504940924452214
-0.008630320567579518
-0.025339691265079036
-0.028874895827613562
0.0006718734565951969
-0.0037221652288125582
-0.017240472674009834
-0.0038572567244443442
0.02629782620186085
0.01462733049647131
-0.008994216151848032
0.050420105020216745
0.029330457906012006
0.01167226597652444
-0.020456139668048635
-0.01316752178971431
0.031049596628329852
0.03258747917219937
-0.014483036672813962
-0.02678900723305893
0.04470502218445018
-0.1448303832308133
-0.11166691128262499
-0.014751252916183
-0.014594953401659182
0.0845942585920565
0.032756890861439104
0.03923198828904783
-0.02294351256547977
-0.012982797683689195
0.013570506314079684
0.021032388507659115
-0.023672753498633563
0.025959559853156844
0.0974681006448208
-0.007057725567626533
-0.020402597732698688
-0.01782610473865504
-0.009794167110222933
-0.0477674223804463
-0.06183478571570518
-0.02317994822911902
-0.009262128493989566
0.002896984713479679
-0.022587528548507207
-0.00426711606344899
0.05018541422579137
0.08511259038540163
-0.02755529807579212
-0.0010498124102287117
0.0007583734269172788
-0.05199218135680027
-0.03267913174724975
-0.005167801192581717
0.02311363666175971
0.004205969110884921
0.034263996346692714
0.03282202073719277
-0.01421086006944387
-0.012694713981681167
-0.01879675198268917
0.027960973259940344
-0.011428490962594256
-0.018408857016263724
-0.00018535421277393716
-0.006141885451516532
-0.017599042925124337
0.05716364814158053
-0.02592956013588296
-0.0007204220343767503
-0.006240948365537689
0.010622160871535754
-0.005456481171950632
0.013771026508671496
-0.07422622568900938
0.13045174071239946
0.09429689970123194
-0.003794549836485402
-0.1278926909371761
-0.06406428863731302
0.05098693123829658
0.02671947478259796
0.02904319618741312
-0.011782521871103535
0.009384429520893639
-0.019544364486174578
-0.0010303804706889665
0.0013478266426545705
0.10258841727150186
0.022930529615525264
0.014210904199337444
0.013255900733872334
-0.08384666993346017
-0.17291631333243587
-0.057591281916601504
0.025141199311823584
-0.019066657845519756
-0.019535903213109468
-0.0006643186972672654
-0.020988740381706346
0.008697539712691969
-0.0199922349036125
-0.00096130081397398
0.15585985729498109
0.06836206811364325
0.005083093844243689
-0.042327930172728186
0.08666911773449239
0.037375288253152
-0.11759432906858595
-0.02757763750619867
0.007902316639014483
0.019410557894219704
0.02218391603356195
-0.0029046914701165573
-0.02765638319515098
0.011131226122169702
0.03114120190976586
-0.03224582199846446
-0.047813892994194064
0.00656785627124492
0.027226206090653286
-0.010723692724371155
-0.0067986406451712176
-0.01575653356204934
-0.0016620521322292618
-0.05517167591495927
0.08409081416168476
-0.0029538614872313064
-0.0002995871132315644
0.008946263518775224
-0.00775783141771554
-0.030568522998502712
-0.023204885268506375
0.004341751425143978
-0.01994142781086519
-0.031565921593196294
0.05889123542433331
0.13311303164062616
-0.04006696890412564
0.004649524113183376
-0.021122750394611384
-0.017536829540353707
-0.01817555141624527
-0.00029020099711625437
-0.011719407091450564
0.003405653490740222
-0.024787834204548855
0.0010585028240565864
0.013731510542300823
0.01582887871003374
0.09149596919658139
0.05164655797425569
-0.03224785290064147
-0.01560951812606816
-0.0005043515325413942
0.03889863456473319
0.04505348429277941
-0.08853943225510348
-0.09922084280017261
0.004509091649524648
-0.01995159679948875
-0.02856604172422603
-0.006120673826378197
0.003206547138174677
-0.04866855003013983
-0.0042511482940309235
-0.0524208237196886
0.0377930153475543
0.14877401852075445
0.0065458992108688475
-0.06253367504360599
-0.08110580705743412
-0.0624874284450983
-0.0112620784195144
-0.025325116768703904
0.014223087754770623
0.01402677996695479
0.0734535117484003
0.15235449052301656
-0.02617337356329888
0.0821405175982123
0.006874349113857572
0.021851765669975102
0.03959320520713699
0.020515793264533375
-0.001832429611772036
0.014142191257309334
-0.028269901912347618
0.0751281835579403
0.05921832048107603
-0.03411333067572494
0.013746342164748841
-0.006334045412315382
-0.0016872605372473715
-0.0950280412875791
-0.014374588190815623
-0.07759123263341379
-0.07704358906907442
-0.028586077821710878
-0.07429371686278681
-0.0486327950004171
0.022362458374588758
0.1236131063732186
0.028669295140438047
-0.005071895089886618
0.0036152985599237973
-0.022910053225378212
0.005853520356921285
0.011137310529664475
-0.1259488550275417
-0.017555848156360708
0.03853580073025598
0.0032141960153410265
-0.022038707233008166
-0.003005274129311817
0.052201863923571325
0.014916069977735482
-0.012197267093682324
-0.049113179199578486
-0.010919413085521216
-0.01002331313775597
0.01742628819898043
-0.007126585423785161
-0.0018063788116484715
0.015720859520663374
0.02814424913460803
0.013746549955851185
-0.008330292417588741
0.002711783964837791
0.08344498858146805
-0.015122327312301682
0.04859826398525004
0.16284388338676067
-0.011321063182509488
-0.007669833671383351
0.009393588959282875
0.0057189140683561275
0.020386992155971437
-0.019158736493812535
0.011650391153075364
-0.04738777022757135
-0.1393784071317877
0.06294884564680542
0.04983743660767427
-0.023250292782485856
-0.012147822939348001
-0.004407405577506242
0.008000611548998718
-0.17133219772347835
-0.02879167696480511
0.007239938815156863
0.00814392874317684
-0.055375080554521734
0.021858832612217213
0.03632570526312087
-0.017920323748128547
0.07132074782964232
-0.023679412511984684
0.012575780917107196
-0.06398592839664798
-0.019915186600689784
0.014171905547191046
0.006628059282269044
-0.08709127989939383
-0.025728170476885154
0.06880320218411182
-0.053053885622472895
0.018496363918955643
-0.012920012595551042
-0.02157711015952072
0.0004167923419121685
0.08466206406265502
0.021901264501721526
0.0037043425187981765
-0.01413550375285424
0.0015652813810671043
-0.003463862717015246
0.012382388492632037
-0.00802103331813213
0.008640114918735587
0.025443574480824134
0.031427491803758055
0.006474124552966695
0.023824934586209056
-0.0031098720499018917
-0.018816856923370148
0.04088841520489647
-0.008469842841766323
-0.0016403813553213756
-0.025788780801581465
-0.05012530923419844
0.025389280751492643
0.019479217584983013
0.009935789815352765
-0.03961873626591102
0.04386943139899449
0.075837806799779
0.034463090598140955
-0.00935165418662533
-0.010790320914347529
-0.0028267794959091967
0.006393280341702549
-0.009886636488284483
0.0011400201784463413
-0.007835377380600602
0.03935751278442345
0.03061380635132148
-0.013531730651151853
0.004904198770477787
-0.011903062810636349
0.004929872148509328
-0.09760447090548222
-0.030224163648225028
0.027741699190990975
0.15968973884696697
-0.00459182476329498
0.0069012717303132895
0.0227517530099273
0.08011421710224118
0.007931612603302092
-0.009204550913079326
-0.03637710883274972
-0.0031721542534854387
-0.12191625537445813
-0.1450963485966669
0.04316418723487025
-0.04433636861998639
0.011491198055046678
-0.04011941439668925
-0.022460606133652205
-0.01854934865691065
0.0045617804083199695
-0.01697190967418026
-0.030407586292255925
0.037719580179829695
0.005858888466235436
-0.08569315891857372
0.029230433165211633
0.03940526138436318
0.01176789436103744
-0.0008096463527387892
-0.003558950696620967
-0.008982938754910599
-0.004859172027909436
-0.004948644424244376
-0.006423447630405734
-0.018511855467495262
-0.04579468672244536
-0.01090007847770323
0.006362639244917565
0.08533026955941814
0.08749917265973331
-0.0022644924945069873
0.013931558452604046
-0.0015685532235590845
0.025681311838550432
-0.003414695718134213
-0.01925731656926746
0.07868642312798532
0.11769709332208733
-0.01979528001097567
0.06085361308909283
0.03302599441507556
-0.05992705070664894
-0.000341189322001158
-0.015583530510510646
0.0005587553274110638
0.07998339816472201
-0.1837577172925334
-0.03596402338374357
0.081905556539635
-0.03173458024828288
0.01588387540795857
0.017754199960133086
-0.09753435991799654
0.003375960287829582
-0.03322745560110359
-0.18570352776645505
-0.01752441771532803
-0.0273387053822043
0.0012823252367484322
-0.005278848582571058
-0.014435947685013896
-0.020250311791963498
-0.033699225208946776
-0.013550541767497985
0.1738480241407118
0.10069872121952725
-0.014194572891578138
0.021888780156721025
-0.021743247814727504
-0.0030258009072430497
-0.025808658108791384
-0.0623860960131962
-0.04195746884021385
-0.015451857562771626
0.018918346921328353
0.03778299499621723
0.019674631594737545
0.047691109135847565
0.010251524411710018
-0.013848491273217675
0.040788704883000015
0.01461460338200645
-0.0102701877546279
0.0545834384188792
0.07997217614875225
-0.03475275118172573
0.007205589097287039
0.029648248201805467
0.0056238385584305
0.036324533107889495
0.02801512420508187
-0.0001813928727814306
0.03144998256899733
-0.05854923679608688
-0.043328100440081056
0.009716573993598628
-0.014348346419254173
-0.04494666879236804
-0.02135494936302987
0.029758943995404127
0.04604450304183321
-0.01790558452803042
0.02706867642426951
-0.0018190331962925112
-0.016234177260338063
0.004711003131536067
-0.051342347727134044
-0.01824000474955143
-0.03861864036976008
0.01279076284389027
0.04685929306455184
-0.06420212849595189
-0.04424415753581066
-0.004263330907762614
-0.01925354297824178
-0.0043372493565840275
-0.01844616260284128
0.01568008587803931
-0.039543562663044866
0.01794628040989759
0.0638670262736425
0.016813825895877994
0.01742721061734928
0.07952462333374131
-0.02712179315079977
-0.015444405148669644
0.031181163347204423
0.010396850960180542
-0.02294141951536414
-0.0332207612432446
-0.011629588680945538
-0.022789337472341995
0.019014171434861924
0.016492642197493128
0.09302610591483537
0.027495419539830878
-0.012831937036866158
0.03809708267131208
0.007229813788656665
-0.09038327638608212
-0.02578230902699289
-0.03492505726953423
0.0013186673098736907
0.012742596472228102
-0.1208142544836188
0.0128564903266047
-0.029861483109068287
0.05332134583640828
0.06690199765830009
0.040517406023525084
0.024375408223141753
-0.014348707201087163
-0.029461249521957746
-0.0039220667399365436
0.02684640445983762
-0.0012655940392740325
-0.04185322302052554
-0.026442258845806182
-0.10403981322351469
-0.051383014128957995
0.09228943188203369
0.05039628624792359
-0.0599412232436677
0.02240373908830905
0.00042966886134833876
-0.00755683716058187
-0.004200185731795576
0.01495289045783014
0.03291065152899687
0.06857522713394015
0.041972901611279034
-0.041464808205835195
0.017193670185789073
0.01221130878167153
-0.06082423588892968
-0.05167464216955906
-0.07168289731971828
0.030175742460900948
-0.03968459707986713
-0.016281628103216088
0.016483391424019625
-0.007739899926899361
0.03699669048037159
0.05826710163512419
0.017903840686590865
0.014953235485103094
0.019111669756279183
-0.03274435570767183
-0.002306052169044812
0.009782249836215375
0.011154654238573094
-0.01688672556742452
0.024196396590498354
-0.010851340710053269
0.04222400386157862
0.029182733177707434
-0.006870665822778842
-0.02325579276209874
-0.00015029601970849654
0.039042690274913305
-0.026094057366093524
-0.05639690957007202
0.0249668110895881
0.02361548192977895
-0.006562157252529557
-0.025853843424232237
-0.05468228730005516
-0.024074639233255535
0.011538374164626705
-0.0036206893638292123
0.03493543802225318
0.03573594407979134
0.01163795807008949
0.024731018092666812
0.03117825755881915
-0.008742889125734139
0.0053605116697526285
0.01831562310492319
-0.034320880127706316
-0.03155483901047542
-0.02287134020580652
0.02038042804123708
0.07968784372706395
-0.029099101650198838
-0.03787474686335121
-0.030839941318952686
0.0012674968412472471
0.004254690627814933
-0.02124659710000571
-0.018738895372379303
0.05751379259661625
0.0002359245382356677
0.01731646887054203
0.024892137005675805
0.030300641157210935
0.028330439389709108
-0.05668726069597481
-0.004859159504223457
0.019004415905135748
0.00916467015859686
-0.02823904351325964
-0.003926710582843698
-0.05184641637006701
0.006793055086400118
0.02680603042694953
0.008995922326337013
0.0020691836684704756
0.0019280709149668387
-0.019586114081612694
-0.01676848969199059
0.008479671744146829
-0.007436765237652969
-0.01567191676562509
0.027790921821311897
-0.01250483907369994
-0.08083434003206103
-0.01634485735974027
-0.016345175058553065
0.013344557484632036
0.04703847037842035
-0.15007035695118232
-0.023513923155070223
-0.04734867892132639
0.018708220420005174
0.013324229240431317
-0.00912725022008384
0.02719215101138921
-0.010571099196953001
0.009031884887966656
0.043735152963620065
0.1347015016695511
0.01306690798338547
-0.012370088239175875
0.010424889198023375
0.009947452921797096
-0.01463930638128562
0.06418774851558894
0.010811267420658776
-0.006987060495956594
-0.019293368111423456
0.02784825631655266
0.028342270491304163
0.016978541486984633
-0.0296969716111002
-0.021719800047250232
-0.05884325177421882
-0.03444886786987919
-0.02814428059496615
0.037079257642868166
-0.08275742302159261
-0.10542100352935857
-0.01221669609641904
0.013847496616860838
0.13561649744882576
0.050680104771327325
-0.05439737084261864
-0.018534516805038606
-0.029030567258233973
0.17252781043590237
-0.06475499328673824
-0.09998696601536237
-0.015525447699760789
0.06469917028106432
0.1562753890554552
-0.045519745244777185
0.01268428022608739
-0.06535628676791304
0.07880438294947315
-0.10732046604645121
-0.13512777875156268
-0.049919803799507625
0.2162349360294098
0.17943935774099465
-0.0494505928297055
-0.0835669945080057
0.015073744836695562
0.1276342834152952
-0.008909030199430908
0.0021869739917172713
-0.011853734576383794
0.009181062054968901
-0.001414038351726145
0.025359220653592
0.0034316236635942745
-0.013804106099224564
-0.01679366449020056
-0.02587714080527938
-0.03115807222315882
-0.11907957438767677
-0.020297572336552678
-0.03632477057007
0.007910130967942373
-0.0051259875443780455
0.004720194930809239
0.015456368874730272
0.05432197975504407
0.025870941544545313
-0.04340248897796498
0.0498797069668662
-0.0064523219776507655
-0.02146421911073414
-0.027096575432164753
-0.033498933112378275
-0.011227613391925306
-0.011632908706471282
0.007252689238553303
-0.023650718147060917
0.09771751543470523
0.16729939684463335
-0.062496648332684555
-0.038569361566619775
-0.0021123471134992565
-0.018463503719907296
-0.021039095113889746
0.016449891973218465
-0.026739162652884594
-0.01596541890817261
-0.0020680342787477973
0.02154747987780302
0.018599170734661778
-0.003601084468006103
-0.042573773776804005
-0.024386819975200414
0.019832774829720762
0.004343227328004118
0.011188793997351884
0.019421621579828675
0.0068036683413576805
-0.01579434079943355
-0.014107240630537383
0.02734471882436439
-0.018127586309027055
-0.023561840472008367
-0.0063114389992213775
-0.018478935786879373
-0.02646466417667714
0.015651530537240613
-0.01431951677559841
0.024359650982561296
-0.01653900444804024
-0.015763405907120054
-0.03931187370543165
-0.02811805372304832
-0.03595647732592656
-0.0004916399728481718
0.07283918609748523
0.0527668744028256
0.041985356204097726
-0.021378522764345747
0.014216245993532663
0.01707231306781807
-0.010088717970622772
0.008566460661441861
0.03881836174813785
0.013257121552052786
-0.0007622330266528896
0.004136091027193852
-0.061212738888423684
0.056956409994637885
0.08691520601104155
0.0323294381415834
0.027871312457723188
0.02734736736981682
-0.08364745390758542
-0.011195920128907307
-0.04142052785582816
-0.03260604500562907
0.03716448806470257
-0.16446658423240937
-0.025872456389065258
0.03407531750020363
-0.10252053776676472
-0.014052034750101961
0.025150257979674018
-0.04221881419548759
-0.016553679186373974
0.017430498471851553
0.021312568118356363
-0.02167074493513424
-0.00664641721701083
-0.0038372919775449877
-0.006723805959884041
0.03874596291383105
0.0177285606470516
-0.01300109451621017
-0.007892640229615078
0.008279244268920651
0.007418520702372564
-0.01056522357772188
0.04884256271752877
0.20612543877833822
0.03068191135505367
-0.032590305608616
-0.005933841383840875
0.02296361961060859
0.025195613374749223
0.046847919723328926
-0.03072915615875226
0.04459029394733192
0.02181022504657238
-0.029682964664635426
0.006017076258124598
0.018303181324341396
0.011255891636679607
-0.005815644738212272
0.006793891422401344
-0.003941531655357561
-0.0004572478904814213
-0.035995019238802474
-0.03834745517705296
-0.09332598984699673
-0.028333039251082916
0.030380652387076504
-0.03928675443769141
-0.02170293083964318
0.005124771813970623
-0.029555032704361953
-0.054478937222593816
0.004527077696612369
0.014369579779792072
0.07359196449345516
0.03409866699506181
-0.0599675604114666
0.01294019217802585
-0.028341350712361324
-0.0020513988762171434
-0.025244545989068036
0.02679104811398414
0.02866947631462138
0.08517745331586321
-0.07124612084952976
-0.026613840074842833
-0.0019308051698193652
-0.005953992078576877
-0.047704386554893875
0.0024174360472777254
-0.0038021483685468623
-0.00018347759335827354
-0.012882739522733064
-0.005997597182447966
0.006538438898217856
0.03184092955258394
-0.024215841197371465
0.06126578972239744
0.06456905132653752
-0.018827114575960518
-0.010637940104849974
-0.04235003709529287
-0.006988746366147981
0.014718424177923886
-0.05226728470182572
0.032579096512858716
0.051812220428851426
-0.047671638142631166
0.006029054728480429
0.010562416119530784
0.0012149020816110295
0.005587477556702725
0.03063013722111783
0.013363712015551673
0.007867859053901428
0.0018088623103442118
-0.007345128713861482
0.01347648786390748
-0.008581826737374003
-0.027134177193016886
-0.025789827135501743
-0.017588102482299195
-0.023303302420490817
-0.09489920125318536
0.10877745568352958
0.11699061988008325
-0.047977137667350254
-0.028043849636851022
-0.02399838040001063
0.01989333532083367
-0.015709022115227952
0.017773196518322973
-0.006527645091743664
-0.02375257816992578
-0.041713414413321034
-0.021243160260987947
-0.016193383736941173
0.028088965702676386
-0.00795770076436566
0.011048812003757196
-0.020383208158468467
0.03933745057573612
-0.002200950383746885
-0.026130813794732456
0.024091636315474885
0.006339218668638092
-0.014089211798767154
0.006058806079407267
-0.026945453945773704
0.024872472661699997
0.11506226977624401
-0.0029394285477271176
0.006464464315418725
0.0039341718771762355
0.04683679647657423
-0.032316567084377516
0.05497293012067686
0.09942610176014409
-0.032526981257585394
-0.010387506458097434
-0.07000816772294728
-0.056306794596583186
-0.004695528557448001
-0.009503763442039584
0.0006937473644531287
-0.006519613422101257
-0.031787204944506334
-0.04285841651068868
-0.021966197034539975
-0.03431366507478476
-0.04812217507971725
0.04423316317633308
0.007520999610493156
0.008158004289333469
0.013713164828540658
-0.01898949481400999
-0.036730984367454506
0.036464808866578144
0.04653110513356476
0.04848671591340116
0.004621229357143591
-0.006151709965970859
0.0330296876166262
-0.012211637753957616
0.009363977919318454
-0.01634875244901151
-0.008000549592656267
0.007096544811409749
0.0007080579805424783
0.06450856817441872
0.031556494468359196
-0.009817442410281702
0.05515763758595901
0.006496605414030673
0.02807380459566485
-0.03852122089535196
0.0734571826438996
0.024242848439985764
-0.054755632491767126
-0.021297215677534127
-0.018457267770788547
0.009665205797185291
-0.014852218189262615
0.027407696081538244
0.012350582260097331
-0.0007365350225254308
-0.011774816940217486
0.03979503692252404
0.019227955881159876
-0.04457961983138283
-0.013404842855828233
-0.004220150418690027
0.025886162277226194
-0.04128472228577195
-0.008385426316441099
-0.010799632729200715
-0.14364065423409741
-0.06746722513785619
-0.04314667475503548
-0.04646706534020226
-0.10227091147314932
0.014789705166113476
0.014337775096081775
-0.012544510934681887
0.03651852480169169
-0.0234799317444492
0.03676927833598292
0.030695895022975546
0.004090063365579319
0.02849928265273464
-0.004830898851252086
0.0012000862388519794
0.028508421208911876
0.015258628986891782
-0.030648684035749295
-0.05716447886577773
0.024030335784427016
0.0020004770181776175
-0.0265114428219331
0.025054627538514028
0.04744423391725953
0.005930416971945
-0.01878220635002955
-0.0004396853733203527
0.0864025987738715
0.03397796341075122
-0.018943537216945243
-0.011201670292816228
-0.011967826161166808
-0.006370272590199907
-0.015953561422140095
0.08825228398831393
-0.000388176551719489
-0.010360213958441309
-0.09040362034440062
-0.06641593042117194
0.14112370471655164
0.08819169196671262
0.020927037661438993
0.034047092623239204
-0.030982196700911388
0.026652362518418855
-0.052054135950812694
0.017283157879006673
-0.050387036198293475
-0.12729526645811332
0.07146042535445439
0.0013489561640715206
0.041744647757098095
0.026053359141784013
-0.044335932177590166
-0.010502468001739295
-0.01655150412851396
-0.03914085484940013
0.030716198615057984
0.055309570392149114
-0.03527969820070745
-0.02225715297055855
0.05467756568251642
0.007450350748652124
-0.045880655699318096
0.014895223691185707
0.060006759040263875
-0.020119420007439277
-0.026422998624557065
-0.010904748528751345
2.1198131867471897e-05
-0.023562198921158198
0.008253675896426641
-0.06404166890008055
0.017683618396174137
0.017885251631929423
0.13511764549797559
0.10744762161989357
0.003070791368168848
0.00860928131972983
-0.004765743294921222
