0
-0.007258194839445274
-0.008758694795411663
0.05141090968523349
-0.06598329262669593
-0.07515921101888559
-0.025977325632483637
-0.04828247670631994
0.003701888335818733
-0.009767727731270843
-0.011353358575073148
0.03584501298830532
-0.07697022126486902
-0.053067700454841056
0.053143914332619946
0.022085646119965233
0.022978633411120542
-0.022517797166110055
0.024666497442584867
0.005224019976922676
0.010561161596385881
0.000877543296753786
-0.010585532281293877
0.0371497886936157
0.02222499783182814
0.008442285770419918
0.07127045804706829
-0.02811522920952249
-0.004687084878945008
-0.0015511203881644904
-0.09394360534789517
-0.07302372767271327
0.050670684034924515
0.02521288563797852
0.029167266066415547
-0.13814307808890403
-0.06748108213215372
0.028026408690432762
-0.007705522100809401
0.017890599662568337
-0.03142542297502329
-0.00490838495947702
0.0071645225339870226
0.04144796794201244
0.0348746864704158
0.011909369740708392
0.007409842703578739
0.009516513778277905
-0.02780030299512019
0.00940013968556965
-0.13318409521417104
-0.07352486989849258
0.016415635920829653
0.009782029705602213
0.04546939305786469
-0.003957691343068523
-0.008838125369119354
-0.022022726026740422
0.023505114406531063
0.043630877989339865
0.031906131410881534
0.007019241874718202
-0.0004511458250695606
0.0065623878019041735
-0.005719973511062762
-0.008151878129122858
-0.005565281498880954
0.1378938422258405
0.014561953181211592
-0.03829440594690885
0.02057757664089295
0.010405994143460457
0.04943682626080881
0.007880909322139877
0.022431042544755492
0.007402974171009486
-0.02859590533609452
0.023002179437963285
-0.01206384775947006
-0.016804073017842057
-0.00498218422862867
-0.0060173847144925465
-0.005633680933783275
-0.004429647885522082
-0.009706500207814533
-0.02682392835214708
-0.01332564729690986
-0.005047340889801771
-0.015809498174281348
-0.05204716754272207
0.0782468764886227
0.10839600219749158
0.027219968543811833
0.0037373033373871048
-0.015448732782374245
-0.008455755844363167
-0.020333165149750077
-0.012721862493694018
-0.020404658454127148
0.012013767227931224
-0.0012578423247899579
-0.005369047210823465
-0.005335379804073084
0.005753062331177046
-0.013665521752677472
0.057562431450142414
-0.005473590401632974
-0.11033631385459122
-0.014916513700588862
0.012700801391474148
-0.007295996391056809
-0.006233725356884306
-0.05488704067133488
0.0054170324065164885
0.0024156274421396184
0.020546344855930453
0.03454882942282634
0.0016372382193464551
0.03748045422637143
0.005921793443226686
-0.020333007569222412
0.03902326299880002
-0.009321743693427666
-0.009593603113777412
-0.011212412756502777
-0.019374024051139874
0.0005722329399090522
0.0012992899318175848
0.021177568305104005
-0.046145607054357975
-0.042740570532474646
0.05235963528995235
-0.002462963917573786
-0.0012705883326653968
0.02593213697558372
0.004662021319455339
0.01131392291202095
-0.01928671094410806
-0.028565379113640633
-0.006775984422328965
-0.02432712999909581
-0.00020001029908554878
0.036472414358903193
0.020744610176274637
0.002968268456977359
0.02091944889903598
-0.06970019920240479
0.002209366783504329
0.01356483525654595
-0.03527620733238612
-0.007624808874362668
0.004213375646581617
0.06658564299996594
0.027364034611370745
0.02191067785321684
0.00522708367478522
0.04270212675636055
0.028533645091783827
0.006462580335847279
-0.05112659195535851
-0.0010437254250956522
-0.013742650220750238
0.02387446892913466
-0.06031770977582964
-0.14165776351958217
-0.03475285456881336
-0.009079516166142575
0.005717386423844718
-0.02367942978140771
-0.003162370077470636
0.008365235842997875
0.017406891744654183
0.011083239311377724
-0.01661338206649649
0.018181123030335637
-0.006700846996955161
-0.015271620944590199
0.006177329056790931
-0.03319257871989514
-0.03355670178096903
-0.012777222240906305
-0.016732648345287232
0.01459099073890055
0.04689990754024692
-0.009087762504921163
0.0335160091430702
-0.0033876028636390895
0.04219478000266121
0.020563372268960968
-0.0016649576657796733
0.062265914042827115
0.13520500310055153
0.04063420599045369
0.03822267045866356
0.00148477016452794
-0.0031496166448298263
0.0191829655331746
0.04029607742657588
0.0095699547284961
0.0019247322501313466
0.0005290337724459699
-0.023383114717524175
-0.05794636656809724
-0.024939857608411366
-0.011069530770794733
0.033865552925844616
0.00281908178949486
0.018606535452227096
-0.0054593062516488855
-0.05869900412672643
-0.022967462276458073
-0.011249845132161235
-0.027328774288028594
-0.05495957262188214
-0.003954113945058951
0.015408365936466809
0.008304874534763222
0.011554764473940769
0.011768720311183008
0.0013852667572437991
0.015311455281652122
0.012122276456980649
0.01884648036144483
-0.023043425064273614
-0.0023334151052406367
-0.060850338338468084
-0.06677490533494211
0.00039906412121302386
0.01552263123659222
-0.006506912206016256
-0.007594494284457644
-0.11124285121053551
-0.014664897123207942
0.009301731415563891
0.03278122252962561
0.01135354409462313
0.005182720285427234
-0.03072695905559379
0.09110018483628478
0.14781691826902027
-0.02059114123779834
0.013420981482120576
0.021130308961625238
-0.019459335031344102
-0.14920809662951434
-0.06711391461096643
0.005709991076938319
0.010087657560335415
-0.05713304723059048
0.004710425599765296
0.028010527277210574
0.01122144812519501
0.022253544098575443
0.01501905566647113
0.05142512518663061
0.02799857564820551
-0.01288034875395266
0.0058050895433149246
0.029598750504861545
-0.0024527095956964405
-0.022657435154038286
0.013363313964774673
-0.043619608265188195
0.028588167469351587
0.13348859708230335
-0.042498956059687634
-0.00782801622857005
-0.06943435317606814
0.018315084204394604
-0.0022592768487107555
-0.021927958556309034
-0.06302966479143059
-0.012611646528249261
0.05388231490984575
0.04417935633123815
-0.027066888471560552
-0.008676631230134256
0.0842987324356721
0.03321333885145518
-0.11681927817215759
0.006250147022775241
0.042727966200258684
-0.02118829426639168
0.04847781035076088
-0.016939410834971327
-0.002645945715973686
0.01131271764977984
0.01408388903871717
-0.004099447413598796
0.00657913070414794
-0.003746251871842337
-0.005554083148002061
0.003636865650609253
0.0182098412830993
0.0034966698565559967
-0.08024371432227141
-0.06301819489150472
0.0024727254449457077
0.009061777483607132
0.027379590313851784
0.02339310844910425
-0.01194076944405422
-0.031408676990006136
0.04546254957123273
0.041884111485077306
0.04513746740380063
0.0007151029365241895
0.04194800427371404
-0.022976101294495226
-0.01573802658223816
-0.023352383135115447
-0.02992701452039153
0.017277485182711026
-0.015276572484025783
-0.17746714403920605
-0.022047134231029702
0.04498925027204388
0.019369784956490943
0.06772379744790241
0.00763904367067548
-0.02702547710596472
-0.015531875789926626
0.05534024986227818
0.08626973848264677
-0.004943322014054036
-0.01287220502456438
-0.04951357088747848
-0.014821603643540304
-0.007258786201936623
0.0005787984378725022
0.014771086771399891
0.003952652885516395
-0.03385012640817598
0.008226626426879772
0.02912928067352252
-0.005249494819304713
-0.016562676721424866
-0.0060819799591603045
-0.027243720508332982
-0.040201403761194285
-0.034653095133530425
-0.05068599235448363
-0.0290328471714982
0.017913112260928694
0.11837560721887884
0.00289414454480096
-0.013859585847981984
0.0188908302822226
0.04083674422302089
0.029621037637980845
-0.008326936110379459
0.027110522039282298
0.002888557195573228
-0.02727738091959406
-0.06021024774118192
-0.007385055432500137
0.023443582010835063
-0.001914572018159494
0.044492770660413954
0.08030045715513139
0.023952464954488037
-0.0054574954397103624
0.008407720066349971
0.03598078291903721
-0.0405151520729892
-0.00443801645567493
-0.12554936708193526
-0.04097328804878843
0.01360461911176834
0.04169227341601688
-0.007716418789589676
0.03542842965828873
0.022543763386312192
-0.013261813856575846
-0.014314000612129011
0.021351082434308423
-0.006063230794136595
0.0017404137940066889
0.00026639994564530404
0.02030495207883745
0.02675220879999632
-0.018280919239968815
0.00038543754090331295
-0.023288140895997192
-0.01914076517216785
-0.028762142027545366
-0.029342928954936683
0.011760415036702259
-0.008114943160136499
-0.008379195821624047
-0.03996362024177448
0.004694804367956464
-0.01837556376708846
0.029212216448207647
0.005856760484650539
0.0030315711133694825
0.015052284098896446
0.02905109296188509
-0.008841575617124573
0.00691873067253109
-0.0064663161920478305
0.03018930737018183
0.06734147836097366
-0.03200009486611967
-0.046502867174098364
-0.027609696696758834
-0.021742774971745083
-0.009688551842407528
0.02303770531338492
0.011944151728738158
0.014234548184047456
0.012516953581657818
-0.006545160959166181
0.0019460090416653472
0.03006439474482794
-0.03815503341722495
-0.004706288678035333
0.05039540058484335
-0.009113655936055723
0.005018376777574985
-0.030036529337894937
0.02097465613121282
0.0020352976259725365
-0.018813654983409225
-0.025030532151362833
-0.010043731474817798
0.03495246204643945
0.0660978703563321
0.057697916990746535
-0.001664702207165022
0.02053781405080427
0.023359112873206387
-0.12624230576599263
-0.06237926750971997
0.013980746458144266
0.027157940524562624
0.05300597055567524
0.016514607616809954
-0.0033889153508483033
-0.00712434628827776
-0.04554318116188279
-0.009359624543092792
-0.014991081087731433
0.04531548722926337
0.04102277950905244
-0.02065235811591737
-0.049564444014619645
-0.020452569768640426
-0.0034280806712313357
0.008794625609709623
0.06562032881187886
0.007624997682288154
-0.011763888192831673
-0.0801128286360338
-0.02818442104516269
-0.051918348442871166
0.0072540300394985276
0.014046032287401066
0.032090176478884486
-0.021457319308420594
-0.014976503876787508
0.024683569935427023
-0.002373215759594379
0.00792443848506578
-0.0774916712912226
-0.049618256719849305
0.03211108957008759
-0.042734091253962776
0.012863215132358587
-0.014337391099901542
0.01838498008644585
0.003665463554891401
0.044191432915366875
0.02110380719059737
0.0992238227105945
0.04507614481412448
0.011515804226461208
0.00031881896596506484
0.06543701405847023
-0.007382135331288463
-0.02240782229855056
-0.03993351703170925
0.0016589887563813529
-0.019164308364403086
0.011112076281213976
0.029580398005817944
-0.016563820853381164
0.03722061669121991
-0.0197312322272665
-0.1426695543503813
0.02743072302857226
-0.001634858105517454
-0.008635888468464003
-0.02346757475661808
0.009969901174842082
0.021399330249186336
0.03537908420162138
0.01980627479750636
-0.0006403860417288984
0.0009742050933547965
0.0022626813838969484
0.012165397266316949
-0.024850787773664673
-0.031788413988591495
0.02008528700920845
0.013124979552823178
-0.04473809783416016
0.005452852216954705
0.002910376233922315
-0.031019582279458408
-0.033930128731263075
-0.03104853662236672
-0.0474319281856694
0.03126874359421303
0.02746516991230371
-0.00764739914079859
0.015866869893780257
0.00866199387717676
0.060259304633313644
-0.02961307198070472
-0.007130821742088902
0.0007388545733938712
0.0026408163301930685
-0.04430082306852575
-0.018354220378205104
-0.00160970087219955
0.05151436708788477
-0.021217286253751376
-0.0003671877419954884
-0.025896250021819316
0.030464763215923535
0.11182894846349661
0.018860610012746724
0.04260659791478921
-0.004661172744492291
0.0019478354589228936
-0.04635408633220505
0.06160842464220944
0.03804884248716555
0.021714559827160237
-5.3294846050027456e-05
-0.009621874492091724
-0.006994621011713052
0.013225056550881568
0.01877364965355195
0.0031068924644366944
-0.026852139548150127
-0.033490698014219195
-0.0024660971730914227
-0.039938003583427986
0.08424932384845517
0.0703469556827149
-0.016196452536059842
0.0695591858751833
-0.0718086068329731
-0.08737271644869748
0.002296331193387681
-0.026335594100777536
0.001969775534607747
0.02792003665859956
-0.010194373506403825
-0.011449868540656438
0.04400192905091085
-0.011486636901962975
-0.1196523980075937
0.030518768176685265
-0.059577875490087154
-0.08158984745184436
0.030922784031901185
-0.006172778779456265
0.012036339205282966
-0.04451602760224743
0.005515449185140142
-0.10436946153272227
-0.09020689449874884
0.0517406282809982
0.000216844176258621
0.0011444974192802576
0.005299021307534982
0.028116632813406883
-0.011892589276927056
0.02781719878745261
-0.013275945362293333
0.00013211356624775856
-0.01439328926871696
0.043350586781961784
0.06260793308514397
0.017869947928943055
-0.005163696563623563
0.00644015991007404
0.03340491917299477
0.017692646305424175
0.03573223516987686
-0.006402426640674019
0.05308683697913119
0.025450059843770915
-0.028734510760008578
0.02339385009189851
-0.014928739217419908
-0.018406190351870064
0.006249450317524381
-0.017856818243542405
0.00041425096920079846
0.011198795167447548
0.031811401066712666
0.002791102586646271
-0.05415146857875049
-0.025597991091981843
0.06944445661101085
0.0035838672699168087
-0.005537548214063581
0.03960727025446334
0.0042051353642151785
-0.026000603289490637
-0.006959178511941983
0.018508792412351555
-0.008402821177770973
-0.04101208477942354
-0.04148837796288095
0.06298445311401349
0.009842822454194823
0.009958874609968846
0.012365528377085225
-0.009909340788262652
0.010579085612094552
0.02539984551313071
-0.06433049804094859
-0.01480001506357814
0.04614842146163339
-0.01571084206261331
-0.003727924436146604
0.0072794888100197585
-0.03825229715120194
-0.027810101066082747
-0.042242583796232906
-0.0008121734364161569
-0.043247790092960925
0.004373554723853522
0.002372602168544057
-0.0024798267976716168
0.05561021073788013
-0.036698919532484005
0.10798553510135675
0.08700657652982557
-0.0506834414735676
-0.022875217472999705
-0.020835404395090934
0.01182675337429211
-0.015435206539369702
-0.017489788541369705
-0.015450022130272342
-0.012229138137758451
-0.011378373906425493
-0.004301051172274759
-0.01040278711913609
-0.013870772140552693
-0.004211812224093743
-0.020587515480493288
0.004793212415844286
-0.00226950863297264
-0.016136665442660028
-0.014542943018001445
-0.0008150929563641866
0.02082064222664283
0.13764477101252062
0.14620926825084538
-0.010971746472306499
0.01410041448701626
-0.04390460301213715
-0.004182393679807183
-0.03386725415752969
-0.017008635408005523
-0.03528882668362274
-0.05507883210011253
-0.059206272234852524
-0.07609178577269825
0.022097263203923304
-0.022470488097268013
0.005638253872526331
-0.009568604802470404
0.07154901931650552
-0.04247415860028506
0.03712870152178313
0.07155184340642083
-0.04704426682628103
0.0021026366885388927
-0.03227354678407458
0.009005751036041901
-0.003130751138459384
-0.056594946845410256
0.008434096788569363
-0.00031072707927272376
-0.047940465207698776
0.027874022957776294
0.061653401766422554
-0.034259735553019845
-0.02449652239090376
0.014385050781252311
0.003896042547944319
-0.057454923733700744
0.01069344100798126
0.10901285689338976
0.036992661914222624
0.005981202481211033
0.0028378862807181718
0.023371711921602988
0.002390333809977148
0.0323364104664933
-0.005840205119779603
0.0030001841864675887
-0.008886120406089455
0.016268164748053062
-0.018827552267735845
0.00287960819233053
-0.028477018071353662
-0.02093172086684723
0.03433460366381538
0.10794551454792502
0.07029579306315972
0.017476066876129303
0.008078003664474628
0.009471654792054399
0.014223649814766178
0.01504703257224259
-0.010770831517740548
-0.043637801207800565
-0.05261329247062305
-0.021881696016097782
-0.06029333681884576
-0.02766470191703047
0.006494928414714761
-0.009437247613761374
-0.018390812725446768
0.0014633010424795923
-0.03424128536593816
-0.018380502353881195
0.017172004402709745
0.0012741237109905542
-0.027131862539857513
-0.007789091626285713
-0.07989911207462122
-0.024923537141148495
0.016291485608514962
-0.03251207048770496
0.04166135296601727
0.03370731536837771
0.008754805175831215
0.00601966719658461
-0.008378696878438417
0.03526948143095148
-0.002325347205096951
-0.021082185514246277
0.01829065058915663
-0.03347914255101274
-0.01268163660809165
0.007520958178089404
0.01203520666582076
0.04717527251296557
0.027806110301950546
-0.0045811183694313634
0.015540442432975818
0.027476641500962597
-0.017161454005175505
0.03444630797806005
0.014157601854690472
-0.0287717568154479
-0.023126082790610944
-0.011949809268973956
-0.03265649403350032
-0.014829578517467211
0.018306269718890027
-0.00039997210379200636
0.017280106482952296
0.0010989226857246372
-0.015640745025160045
0.02351286685582277
0.025298495879077548
0.010893501821945286
0.015953391322376737
-0.027223159403090176
-0.022820904096788594
-0.031284506708946266
-0.01576282642704138
-0.027138262200907846
0.011160858258065367
-0.0028115418111187445
-0.021892953568314152
-0.018788192006344528
0.048951366190921664
0.045043777952121326
-0.026702275781600754
-0.00880156038603917
0.011981326940107154
-0.02958711005421407
0.02516298794431846
-0.019076433656570493
-0.011712074809561943
0.10307122432135771
0.01091723841357267
0.057745406987161414
-0.005442546499832554
-0.038004438771978795
0.027035342535483595
-0.022542448422994958
-0.03331612919422277
-0.06931434828188346
-0.07692654148631402
-0.01673820090474533
0.11627403281984312
-0.04033714518343518
-0.0687926166469609
-0.03480171392443038
-0.043416275601265104
0.04126362159184526
-0.028953631560878608
-0.009188358487427996
0.056313776631644205
0.013550846319308585
0.046065726035272016
0.07958353755983955
-0.01984405231421006
0.048261110888236584
0.017297275783548196
0.01824335173890113
-0.046377099126156826
0.0005335856067225914
-0.01780444614312433
-0.008936726192727463
-0.03499581866737586
-0.006730556810649852
-0.02698721283062778
-0.01055725417709399
-0.001967418679234581
0.007807408781070361
0.0975924696769947
0.08935013889730065
0.07277531240755368
-0.03596813683212954
-0.0014695856843915808
-0.0397413470176375
-0.005926881248689623
-0.007466222304669801
0.005319064944987852
-0.017780322559350886
-0.005528589064749179
0.01438895865576636
-0.02631760654586727
-0.016984949886607776
-0.027412730713795047
-0.034820887526632864
-0.08348411315292731
-0.01878666861827701
0.001056994925027459
0.08108484416248235
0.009600832962020628
0.03654560499728304
-0.006994184576240466
-0.03479599988811688
0.007952015499820317
0.04062705303844173
-0.0558963078719954
-0.051408254837451525
0.029987564532687427
0.04592777992178422
0.024106621201138972
0.17009755416699687
0.02260717997055026
-0.011156439065062631
-0.03717462661242802
-0.09940701895824057
-0.03910487717946888
0.11066165496520879
0.04369195188695009
0.005461407422761657
0.01137676643310055
-0.015025892163371145
-0.03352278001903365
-0.07353916003342825
-0.027602229629601568
0.027954736268911207
-0.009543431865512948
0.027544232195526566
-0.02012041509087145
-0.01300079933410728
0.023488419420959247
-0.003421055373396477
-0.03178828436564016
-0.029705897518895883
-0.023163394575741854
-0.011492428312797905
0.023919045269244113
-0.010188262443370644
-0.03521992513524408
-0.0022327422321950017
0.0063976408979473905
-0.008691622158182546
0.0030354758432744595
-0.01233089559796142
0.016013388220608042
-0.020214404110023555
-0.00689266986439635
0.01628271934788996
-0.027267082300208394
0.0029850147706606328
0.020373547113112168
-0.01813918603660894
0.012768592824752253
-0.020028859487989367
-0.01920931215332132
-0.013411734272102372
-0.023064294514187535
-0.0006179137365352602
-0.011961586857978539
-0.004990129240264928
0.0492950175246257
0.07759693606690017
0.0046101341608340285
0.0028282371655884977
0.01476054232762088
0.050749930165277686
-0.027354373766505412
-0.013022355303140777
-0.04845669413700053
0.06625088328987143
0.025995497247833687
-0.028676893020730086
0.000550276579743803
-0.02041673772354228
-0.03529330732680025
-0.03525664650859768
-0.0267801832797466
0.02804505692181563
-0.01058960416789959
0.02251072667408129
-0.002877555937493533
-0.0012672378982514084
0.030033436217107207
0.007335967616444945
-0.00287929681649036
0.04125281647344677
0.003872429612741612
-0.0024729837553028942
-0.00907248950146496
-0.021730160831193397
-0.018930107574009036
0.08942185865494075
-0.0664949591389765
-0.05003076485852966
0.043699923398224844
-0.0313496358938825
0.006530311389092144
0.0059245769634808385
0.05972100391294153
0.007165722785405245
-0.018544787094756182
0.017489427866207535
-0.005474647253495802
0.04995280719050887
0.14412465549299416
-0.026779970864217014
0.028629960311483838
0.0007325864834635766
0.0005794662734817141
-0.013353521114955282
-0.011724416700352609
-0.008671317317660047
-0.11198827082801775
-0.03067433077395802
-0.05684471072057975
0.01080251897031643
-0.011259293781284024
-0.09426444355385516
0.057643688470402084
0.052074229561295725
-0.0035502858163755278
0.018278102207402027
-0.031122914079538138
0.0003705824177340258
-0.05303447272625034
0.016366085454816843
0.030632549643736542
0.0036170559414155346
-0.017360067741676626
0.01103549275300906
-0.026692832033648285
0.004636321181984556
-0.008409230365185944
0.004582707361665217
0.05720924703464034
-0.00885772809498988
0.013257971209058965
-0.03499640469200154
0.017032463614809725
0.04139802129939814
0.04279769394207577
0.02159921137680183
-0.006483867536025665
0.025256154549171076
0.0336213238411011
-0.0035321235666871498
0.0459085352607007
0.024762466080333074
-0.02575574558748947
0.024665625279807687
0.009815487943755617
-0.030066338092290423
-0.08336397283765608
-0.12899218815366234
-0.04407760236514149
0.0012472037765261003
-0.03413446762512114
-0.0758716056634822
-0.04790227492867106
0.14845780934953706
0.01473854171190663
-0.00014273950236676656
-0.013740389152611821
0.01320573338870592
-0.027231398016470787
-0.006501898682955881
0.01732118472777715
-0.008975755606646266
-0.009914765073203395
0.04297449935838685
-0.004193784302800163
0.010429372181391797
-0.0013975856787993332
-0.005345440991183553
-0.07701994539028903
-0.09944607012343311
0.005454770100235103
0.0148504762298726
-0.006178668541684521
0.017813258799078035
0.0026324064351188324
-0.0029317049111375073
0.029145613255851677
0.11799297604338976
0.001566954593005772
0.025508104092573484
-0.014077673345999681
-0.033758619904046425
0.04848040339821141
-0.01158476441830314
0.082750579228386
0.056488189851833175
0.04325669933635908
0.017594615202077404
-0.058372131756507385
-0.030723849374761986
0.03749846101201526
0.024245138889594696
-0.015175239800744807
-0.002867143114679599
0.043611944570031286
0.002404941679547721
-0.03798581770709258
-0.007913095424933927
0.03832059922403543
-0.10275991172458647
-0.02057654138216123
-0.040339429009507044
-0.10504105200166283
-0.018919295350456205
-0.00680329181431282
-0.04440093306040139
-0.000634596754582096
-0.006861946752908307
0.01121536031713205
-0.005547326148572987
0.007539930634948241
0.08090004821190455
0.10077027759850649
0.06861304539535502
-0.03504480576203174
0.0054529100361041605
-0.0010984334206788396
0.006258265398834422
-0.03138518519414602
0.04617650320522581
0.2072230028697982
-0.011661641074518957
0.0019413916082682474
0.0011128694673614246
0.027815125576806383
-0.027252629786603873
0.0021034565596850215
-0.0994346114964294
-0.12212591477244361
-0.05521175315102731
-0.04931722862123193
0.044662490698617004
0.015297099370062734
0.011152517464804093
-0.008924525416328856
-0.032486533525462886
-0.026851915213202952
0.029455110235975704
-0.011458830905014594
-0.02361630731438166
0.009355970226591766
-0.00771208954693964
-0.012396031916822913
0.0075114238636453294
0.021160240052359433
0.024885658491432233
-0.016222403044851896
-0.010092795488557554
0.005714202132484531
-0.021928721614306125
0.010041390455780473
-0.0015962827258346295
-0.05073533315994282
0.04261967969962451
-0.026242502639024515
-0.013708925860871838
0.041324319321696536
0.05550263623804761
-0.006982369857996451
0.0030932550340693555
0.026402152027047692
0.0068450452959587784
-0.004125390943109924
0.004468759875107115
0.0016961095516373976
-0.052750242548247867
0.0015183688599859995
0.015175823068600491
-0.002357441550649733
-0.0006635764527304724
-0.024533563774017875
0.03027683140041061
-0.023738239574355807
-0.03048198163312532
0.050398883430094785
0.012117464070061815
-0.03799303582491353
-0.029192605734834835
-0.002733163445379828
-0.005551064334601296
0.026146594365619807
-0.0686438969165403
-0.03937408186819222
-0.014117598447737533
0.12305269432905934
0.05811687045248864
-0.020281638792654943
0.008443103406855824
0.0033677660158152804
-0.032258396744074075
-0.005532323598850952
0.022535075374904595
-0.026379365293910505
-0.014657694638518593
-0.011795983006092149
-0.009683901612407819
0.00941161630178622
-0.006140340946442362
-0.04670664911134342
0.007655717423122172
0.004139358423984183
0.04277464565890826
-0.017409075899139214
0.018340726874687564
-0.033736740557747856
-0.016124004547085763
-0.02991333644393356
0.12233169449496803
0.016359007718516772
0.018064278888160326
-0.02708917077518151
0.08685004482536578
0.027270801505102176
-0.044373174995907746
0.0527214777324528
0.00609085632935544
0.0031303291586569906
0.006698341234870693
0.02710674106844219
-0.007259361544972261
-0.05721396262218471
-0.022752772580404625
0.015578364361307084
0.01933686223433157
0.0028249031860903277
-0.00849031598146242
0.012057971958066847
-0.017794713036819114
-0.023485922507733046
-0.022453721113698574
-0.011375013077125165
0.04012230953729997
-0.018306677937561223
-0.03188803159559325
-0.004279471697844979
0.022019265927088496
-0.05499311918092251
-0.010394311432510798
0.009945458417982878
-0.008146964890327766
0.018835057789513773
0.0008654305833924215
-0.02045239771312807
-0.021105245237450748
0.04646396539265746
0.00509322331324079
0.029350897485155365
-0.014842060950136812
0.032185857776609525
0.013015478559133603
0.006724220010169378
-0.014622833408240363
-0.04264357204114039
0.023559114730331294
0.004561441118178423
-0.016681116496626795
0.024655512630025384
-0.032806274864811275
-0.0411504814659581
0.01313052194401606
0.011602490190634987
0.005550141172374623
0.007413455348432585
0.0026715294867769163
-0.020741482386151158
-0.035069300020813515
-0.02660462159633745
-0.016339708611912834
-0.043378461512194884
0.009837451330307716
0.02396168742026723
0.011454479714925702
0.039092351178031406
0.1088632820141214
0.003711660225957864
-0.03331647460420295
-0.05004489333058749
0.03772920570665052
0.013567443031062536
-0.03394926342251283
0.014352132689810837
0.04054203961653122
-0.04047220533636498
-0.025971078554970297
-0.0060714321354840214
-0.05631373783471797
-0.058716660872198886
0.011683249891398698
-0.03237210321686579
-0.025601685589915924
0.016475092926403152
0.03941989838999835
-0.017666579379417447
0.022336576960508236
0.04682121090074024
-0.023787336550909397
-0.004317863412307997
0.003944109626538854
0.020013268709411506
0.0070100114455045
-0.0026405376521813247
0.002485873479878841
0.009529642877460665
0.0013233811226878286
0.01668222341110824
0.07175815046909796
-0.008603386184883221
-0.005611808743275245
0.01665491549373524
-0.01892519726364875
-0.025621978176203538
0.035579956352706575
0.030738608896111904
0.01090027744885371
-0.0007225388602989912
0.006620281698169111
0.014812138735418449
-0.05891275255819227
-0.03501517360086291
0.06573179334745205
0.0045856729832963
-0.021324228015335463
-0.00343460840841462
0.020739252373418383
0.022435354443401168
-0.006229080603590908
-0.026507955844525092
-0.013152438936208143
-0.0006645099694002935
0.008790093000625606
-0.039771691192263495
0.009445117783711598
-0.01346808969802337
0.0008739213378608885
0.001113190305206123
-0.013986427469349102
-0.020956392997279846
0.004950608494133145
-0.013459149137034596
-0.006058638583219996
-0.015074538481871399
-0.00257219496734672
0.020424607712632475
0.008579833011849801
0.0022499168778114267
0.007958779102599746
0.08196185685665847
0.018957128571572373
0.005243133112243721
0.00908531615417743
-0.00841917986641083
0.008509384045571843
0.05148109300484887
0.042637132879517405
0.006684607805683662
-0.05484628041343162
-0.06036777354942907
-0.003294648558588739
-1.2171171471920924e-05
-0.06108771537102433
-0.10051601887365036
0.04129071956053387
-0.051862447777910964
0.05140243199001633
-0.03045446695448001
-0.1193057306531439
0.040117488243755675
-0.029576337753850785
-0.031136673003159792
0.08840178105467496
0.09820256469806272
-0.02161393770706547
-0.004777414509570898
0.016201044339282312
-0.012361230517779001
0.06129947287058052
0.005739627925978241
-0.02040550510756219
-0.02966085319059782
-0.0229482499874719
-0.05638400460811528
0.03687445100419378
0.07895036900567327
-0.09538447605288276
-0.09633334218607698
0.08238907764098473
-0.07682638181128743
-0.0675610419437002
0.003891450994377317
0.07305179508556497
0.16974715300399534
-0.009703827273075989
-0.001209883918531567
-0.0008130056229288309
0.042384590691795496
-0.03732360110919463
0.0013905369763289226
0.10936289529019702
0.01173230971318255
0.022081687785124007
-0.011235538594778719
0.0017960403666900473
0.01000230877084611
-0.042528892629065555
-0.009952575239712205
0.03988147565516271
0.04879659023168124
0.0075213850327793446
0.01875486752414198
-0.025385950081907686
-0.004560403636856043
-0.006125619035894482
-0.027902612336858815
-0.15511545906005098
-0.02826803259890963
0.051137116366021786
-0.036692256804642824
-0.03184042647164243
-0.0036736769351535877
0.01213538829532377
0.06102542191815535
-0.0066811123532549985
-0.06464934294804262
-0.010265877120143698
0.00919035515692263
0.0063221457495278195
-0.0012253969285311581
0.024328888533243456
0.07256425635161863
0.01103793087749623
-0.03640951959057111
0.02224534257654259
-0.01396531543721193
0.0073894807515445995
-0.013254624364990995
0.05035772015865598
-0.029123209785213003
-0.2350396319883853
0.01381600076796755
0.006442469117132397
0.09705927763369063
0.050380657197107874
0.0024346207160265386
-0.07797351354483222
-0.08375480646924284
0.0008770560559256035
0.01969980903974682
0.014072138612109762
0.014517649228353746
-0.0024762241700587596
0.03228094099422744
0.04734732085714084
-0.00418416358019279
0.005814767909140974
0.00948281072497605
-0.016130982483909304
0.0026441566233155805
-0.010790759771954248
0.06744614437319411
0.11506448727214784
0.09806929617086158
0.07366108844164665
-0.004949669646183563
0.003721207905734812
-0.04724337802018649
-0.01534128840645352
-0.014769262078718383
-0.05728729733770573
-0.08070145090535555
-0.017593767063520803
0.022347219329474054
-0.002273662911995905
0.019267077082608147
0.00836256200395415
-0.029828932001752247
0.034438982361075926
-0.09094536729207423
-0.06513926510463712
0.020129308192763012
-0.0037365465002834218
-0.031932243702453206
-0.015738395371447635
0.00611794294149896
-0.034087721512929395
-0.003820833098568863
0.06776248132720573
0.09400003112059802
0.0015497716449494612
-0.026334779185384998
0.00501128158564947
0.006912749735209058
-0.0003792098010131173
-0.009492721726600527
0.039734535242436024
0.006775857865133663
-0.014008501897577954
-0.01150792440656772
-0.002474681440962232
0.04167822630997137
-0.005279467128451541
-0.04833187263085263
0.0650702802710852
-0.030020059145972455
0.009221269432198113
-0.03802858753839005
-0.04129696459539082
0.008675498799779347
0.006976643095005458
0.002217155764199127
-0.07727546021894963
0.02140144519681075
0.03626653433856477
-0.07616858319540841
-0.015582286735772806
0.035803889148332414
-0.008472680335242838
0.015573879536273995
0.03970705209084542
0.10939846996738936
-0.03496383948642266
0.05438910708105385
0.015915306155622293
-0.010564242640999824
-0.02383019184479706
-0.03390586818916592
-0.056107568361872674
-0.11357903480085245
0.013970257871506228
-0.0018548686644508261
-0.021615088096154023
-0.013020911060170837
0.017835387607204357
0.0067619831850576
0.05805187675699625
0.007351210142445781
0.042757977647877685
-0.12846964032631542
0.05019333608950819
0.04156995117168823
-0.011800383799656347
0.01122301866641226
