0
-0.038960265864594765
0.02262327587678212
0.005865907473429493
0.035323732077789036
-0.00243492910620957
0.04205034019351739
0.0384679429436274
0.025204447915146488
-0.06634518819340872
-0.02895941891958557
-0.058624740574448594
-0.019889829309066683
0.04530902777858832
0.06072784801684094
0.015632254456018072
-0.010970464850917992
-0.04922228588072179
0.009645989031120131
-0.023363672397521962
0.03157938794090021
0.011595676108199787
0.011286340651160827
-0.006873390271801677
-0.023089911539205758
-0.0018087417941241716
-0.011556613930032841
-0.021588174764522232
-0.011458017710047329
-0.012348862259405588
-0.0004319928401587509
0.02032046051636644
0.006415276276748481
-0.15113943497120788
0.01679599700295735
-0.004936320938942527
-0.018129437248908743
-0.008583815676421726
0.02027877502120685
0.01911646129765042
0.047692690429049375
0.08091913632141742
0.02898717764780558
-0.008875909560860432
-0.010324405547193837
0.012285210556001952
0.07033877640068467
-0.030351649366311514
0.01455372023826335
0.01532784786444211
0.013152918342982723
0.013342681930065369
-0.016487099249868548
-0.029103345821050234
0.0317013250605647
0.030091152217638646
-0.049077476751684945
-0.005204948736568428
-0.021096941923656538
-0.027118276520144365
-0.00819682159603629
-0.013022541347257733
-0.0024260694582458582
-0.01008294883141804
-0.0023832862242917988
-0.008836092188724524
-0.008845433891855775
0.015916895435345368
0.14382351507387256
0.07991541163888066
-0.008419116707593424
-0.013253545613159839
-0.040680093394564555
-0.03598546262510455
0.010188162970013305
0.0004310060558829193
-0.01664456778350109
-0.022304400986853365
0.00020872888682784302
0.00992225691662311
-0.03889734513951648
-0.013551693992174443
0.008514436592096617
0.012959590674922902
0.005028659999219967
-0.022515411238176474
-0.00033598035486353536
-0.024261065470671844
-0.01837405030611356
0.027470485458400733
0.035874801011879134
-0.012362975220192593
-0.03025975847903496
-0.023872725144132557
0.01753872048434572
-0.01600636155456605
0.0013088097283249166
-0.008305641944713168
0.0012292760508312885
0.029825426010541625
-0.014203028404783798
0.03538971439549446
0.029106034059814937
-0.03572544956626038
0.007331429653169005
0.02068382206366137
-0.006280710122093212
0.005274163277524247
0.030541966178937414
-0.03592786252098166
0.09101885456572481
-0.053548664898344304
-0.10646824831380075
0.030002216901899834
0.05978306123291257
0.029307900578136325
-0.1391474218164055
-0.022726735293739617
-0.007653384351606385
-0.007154028545041936
0.04466271462992918
0.03531995309036468
-0.017480934687854707
-0.0070637691380135495
-0.01825991545089901
0.007082612746998452
-0.0035585816223061514
-0.008996470788070724
-0.009794896595090386
0.032696063441226546
-0.04247269891306199
0.008388338521034452
0.04477720848511358
-0.006517038658854962
0.01888774945451976
0.022965759437503716
0.002897510660899442
-0.007869941618548175
0.005442882498132195
-0.06866592981046724
0.12121683924180121
0.040988826643709876
-0.04268721918535357
-0.010196119121909868
-0.007821819670074373
-0.014297734620233205
-0.026335975588705405
-0.03135238796678609
-0.02015215189062863
-0.008021160577271133
-0.029716289174986466
0.0632632191967824
0.01037832446345778
-0.04623122576301207
-0.07538477605097708
0.023486394055001043
-0.018234308641264227
-0.04689745191885518
-0.04481566874110065
-0.018407746290033136
-0.013015721917803971
-0.035268758088711515
0.029027801704762487
0.14633718141796243
0.03891311994539728
0.12446684669553536
0.006547406132888521
-0.036564098305325844
-0.011237678120641983
0.0528496684020219
0.11411312823112145
-0.04220798182425524
-0.0319500557067706
-0.016925873596772605
0.09890756235085657
0.06220778444807562
-0.005563815525872451
0.0014303131977088479
-0.04112925461679288
-0.0105854745649613
0.07789230881173298
-0.02889680776742056
-0.018392378937466293
0.0016631270502167127
-0.017754833471373417
-0.02660407738228592
-0.013254402791342376
-0.010201408702683504
-0.014449772427377362
-0.0063209311472776876
-0.02142719237825794
-0.01651207659699645
-0.02562615808251105
0.004025602580574604
0.0019216880947195653
0.011993016685193095
-0.02617056015580389
-0.002725647799466405
0.002785031892609469
-0.025111640396252237
-0.0047158301040774704
-0.008554961948874618
-0.04896293019936537
-0.06590551184389513
-0.03530705687982542
0.05146355338738742
0.03695853651563989
0.007520959366903738
-0.04598683875131942
0.005772360985161198
0.029162608557280843
0.0762322832625533
-0.024711197355413862
-0.011462999875429791
-0.038362181947107374
0.038241473457521546
0.037758736917591726
-0.004180976061773476
-0.07682496744154838
-0.04868819065067507
-0.019599389756925444
-0.008653289021777776
-0.02200352230889393
0.10930089852409341
0.019022721734315604
0.03397359939419977
0.016691486335096036
0.0056387605504432895
0.03221298366455143
0.0011596341494865138
-0.04336081697303708
-0.008629508044643311
0.002748150179314673
-0.028668532273646814
0.01398339275419103
0.027417317956463478
-0.008072701128966235
-0.0034347620863315665
-0.09422702331268634
-0.10340828633831087
0.08934575695318991
-0.01095153608704382
-0.010177347821004273
-0.02794493668301932
-0.023253254278588976
0.012878257439247935
-0.026910868451237403
0.01769235000601931
0.022857295718695648
-0.0248473699203308
0.011848156312863296
0.03256762214028681
0.0027165504292270847
-0.021105555987146456
-0.004267938093100261
-0.04271644424055831
0.0024288150594492797
-0.00023097019113138274
0.03561610966720613
0.028274772318090297
0.04338063039825738
0.05604994591066237
-0.03880178236871497
0.08686767913244513
0.050461523183731774
-0.03667438402814478
0.004643442493719756
-0.0027187864596218674
0.01979570165096573
-0.0011675786713574105
-0.019392083459808043
0.024900045695397468
-0.060573624184078516
-0.0014268299754281928
-0.001128554786324841
0.044921130573363485
0.06501003409675665
-0.059650460851525464
0.01091297434457528
0.12958668627008224
0.014481375983303372
-0.05791225361234772
0.052131362199635996
-0.015955407363972336
0.03465127379246033
-0.12248474602067659
-0.01639481702057245
0.04108555218857204
-0.0177685398125811
0.006153683366789512
0.02827526778083409
-0.013502193606710537
0.01876628071303201
-0.005588474093629708
-0.06736893885816317
0.0031297269358445123
-0.0068418458352488346
-0.006632348501960038
0.015003781958766466
-0.026248352169463973
-0.0028866038425837044
0.010595383840365031
-0.023042795145212194
-0.015369055569701345
-0.02338519559956058
0.0005502524497838977
-0.03371601733373537
-0.03720944563987024
-0.02536788048657801
0.044500795100323405
0.0268862789005275
-0.013349044568910437
0.08208743118423457
0.017215020599656256
0.018979750386566244
-0.01810981606929211
-0.11720098109499051
-0.03533878517285161
-0.046833598089469054
-0.12690050056166582
0.0376103231423114
0.027816162994644247
-0.044006300193287176
-0.03259429660293324
-0.0035291697651265324
0.09197443942015314
0.00923348294471255
-0.008482693105963621
-0.06113512327472212
-0.017311079732303572
0.09739688254375911
0.10535635005956251
0.04667461118147272
0.023760989007005184
-0.015470217105312519
0.054227520746432605
0.023616567551437716
0.008554823962880539
-0.011036326091466948
0.03463985509059013
0.05577336311438064
0.10961121135997468
0.1054354917158679
-0.030930201433564203
-0.09161500746003587
-0.02164831506680567
0.013917823571644857
-0.04451879861057655
0.06349476787019699
-0.012641230414737624
-0.14882733593116357
-0.042463201468195225
0.0228256072558553
-0.012570968231043415
0.0009485308667949788
-0.027071218322010013
0.029089251856447975
-0.0559571375747786
-0.11013616654479014
0.047538736093173786
0.02962851201026915
-0.011656554778009856
0.020818123614233325
0.025176042629952933
-0.01828863175558055
-0.039645587807298474
-0.020272353062384337
-0.010015047156587471
-0.0047799866339910575
-0.018228780287870987
0.01213915796304463
-0.009525250977536221
0.02678769421252028
-0.08188588872802083
-0.024354725426107598
-0.005549631153763917
-0.0017270034371800198
-0.0040543607514578915
-0.015030204116614721
-0.017658420468304983
0.029122087834429614
0.013880842069229238
0.008621489779611914
0.05600427075273686
-0.025286105704707768
-0.01720929705181576
0.03092454735491099
0.05699209476904988
-0.0017667934483725045
-0.008859134239399165
0.042828074048454394
0.014356091325367484
-0.0109479986854783
0.01503510901987366
-0.0024791928303848016
0.00458608233394059
0.0059040808690653665
-0.0002373849254692216
0.0011259876281923607
0.028155107435789126
0.04677117850930552
-0.0009635656643159865
-0.04808786064740551
-0.005407053400885841
0.026775093362109512
-0.06251148922543938
-0.03755728149714732
0.05035536509106262
-0.007657120584658186
0.008519325890238176
0.019747131005089298
-0.018800118989518257
0.02151278933515236
0.01074849097691509
-0.029894455058172793
-0.016099513875747328
-0.027968140003615225
0.075298391213806
0.14744788747650073
-0.026781910721390967
-0.01945942308996937
-0.03637754254336696
0.013414597344947151
-0.03436414690168263
-0.006233420723668688
0.05517270284833856
-0.0051446998298278306
-0.07859046077101893
-0.023746097693851123
-0.06578635639939405
-0.010695969304832523
0.05484352971595833
0.08538616730224691
0.02545043581407485
-0.051071687411435085
0.00856438335441951
0.03691664210469857
-0.018981969158840966
-0.016690942924175303
-0.043174145065312114
-0.017815175347753107
0.010505924769907396
0.01432299720378877
-0.01746713547028627
-0.017534027228924855
-0.03508016478541266
-0.02046153139544094
-0.08349957672724073
-0.016863138391532556
0.05927265379405296
0.01489731669067848
-0.02272652507172426
0.01985779410471683
0.01711666286390764
-0.006066572433080519
-0.04179660089164921
0.1217618526013335
0.06762244874949717
-0.011992752132356482
0.04425804300954253
-0.019961895113960765
0.004598596093376774
-0.02997869194106946
0.005864109626816169
0.0076987756992710574
-0.010602085533005023
-0.043086291685967774
0.02420232094296883
0.06416805448858284
-0.04041257338530951
0.015435488385728063
-0.061034987658215877
-0.04036413622387233
-0.015220764795467554
-0.014159252089626897
0.00559222888058853
0.012938978271196548
0.012612518796128161
-0.021274400914018027
-0.01749339243688808
-0.019324696381667266
-0.045079374122842665
0.005625590766319629
0.03507518122920183
0.011479857015359808
-0.0019778975615315528
0.01263729493090706
0.0023039107070680414
-0.008087235150420532
-0.03167474178494464
0.009591864955461642
-0.010905535036498428
-0.0005957021654204343
-0.031054701580879834
-0.04801717488485721
0.027425696059127924
0.01229870476244867
0.013062554144163458
0.04382922717756005
0.04044377818017924
0.029903869650209716
0.020170502394592085
0.12234677435859566
0.0645811417274669
-0.07018094944775073
-0.06166212205236633
6.649636881178998e-05
-0.0187923598084745
0.00031907448721265247
-0.03598119575542378
-0.00966320524815312
0.04361696311439036
-0.0470212801476145
0.04473104363227032
0.04126016618143633
-0.02780509005914636
-0.004807663080692004
0.008630525575367226
0.048381119133158526
-0.0009226387500400506
0.009883889785168683
-0.018453554689274135
-0.04184791012826795
-0.02907189183719283
0.0008002986839343018
-0.006646823961593121
-0.036531438054938144
-0.03469447325840164
-0.015461172062784679
-0.005577857108231469
0.12345436904771336
0.022697112011511773
-0.031355405034457856
-0.015499526877613587
-0.034682174814216316
-0.026329329503104387
-0.0030179614416862514
0.013912135102201227
-0.014583005563809774
0.0055315783456985545
-0.04178580802108101
0.0007212684100644951
-0.019538536512044822
0.006762605220407564
0.08341400403640274
0.05758321529617669
-0.02629383664736157
0.019330609839423078
0.006450052495991514
-0.011704216126597057
-0.030298452508858285
0.021313113451334978
-0.04377434727655819
0.03114532623837125
0.0348570860049219
0.011345860030731994
-0.01359127650303036
0.0042760828182105215
-0.14545447400841405
0.04674626170230292
0.06156703808731601
0.006490239462500955
0.04798338792966481
0.007667655730592627
0.02983220425376317
-0.01168034358822165
0.035815560372819105
0.005541170519004355
0.013197898897236583
0.01050489968738889
-0.01565838215874649
-0.043290228224021454
-0.02609571433479823
0.036061353205054866
0.02281488921831347
0.013956564283910235
0.06874447155925772
0.01647399986416447
-0.02856708291886425
-0.026291609534007023
-0.19724762781485242
-0.06893793126737989
0.01371265124965911
0.002649674264867944
-0.013438774403725907
0.052122611780062486
-0.065573963770919
-0.050605887618758984
0.022685187061260697
-0.0072439870262321895
0.017201323533736868
0.036651162053210014
0.03115349936936893
-0.007982840433930284
0.002185835423344847
0.02167570938988654
0.012571718097193253
-0.018540025475295527
0.03754488237175469
-0.06163669898445445
-0.13616448974608553
-0.03069865737245106
0.055867380809024994
0.018798812164679855
-0.010835067991067135
0.01568804248794671
-0.07948836937911728
-0.056050729331788826
0.05387444370201529
0.057935859224369016
0.06875534921207523
0.0377416305027489
0.013750744317579658
0.02605763715815526
0.039033684725073056
-0.0008631042798522746
0.017658080920001862
0.00805245550111934
-0.010721510939671127
-0.08765204006598305
-0.026585265222147176
0.0024272271173580565
0.00414931071425547
0.022630542369563085
0.04781736936001818
0.039453946959315325
-0.022180868290779386
-0.06011923729101393
0.02438428550009338
0.013179778196751854
0.006355963758079501
-0.002439957947748015
0.014750701237128613
0.0021644694005062927
-0.003378670986102533
-0.005895074915419239
0.010456850349716301
0.05242924786193767
0.03450532940276284
-0.07366893625830108
0.007512885838508849
0.0071490053628192165
-0.01364938560848616
0.018840345395448866
-0.027437064227133316
-0.06954403356193392
0.037539428737216815
0.04371884659367172
0.05016087722775361
0.006776907695928526
-0.04524051605267391
0.014365033549001871
0.04918294040457812
-0.009764218334128221
0.012415653791449802
0.004555242238335089
-0.006964965565482074
0.0062244184115420095
-0.01225086230121409
-0.07884807702211007
-0.005020532371009829
0.03525687789164928
0.0007060584151234393
-0.014422096654573526
0.023687406050217956
0.02505164099203612
0.011989437576980662
0.04182026452912804
-0.0023247651799020758
-0.15102186055201908
0.018741785314413714
-0.014569136322085646
0.001203648602133797
-0.0308538534733634
0.03020308650162225
0.03244725241159469
-0.04261648991365572
0.008253563868446615
0.028888505034912155
-0.0072553318720513195
0.0011983790889534543
-0.03700909815426328
0.033995383322705366
-0.021584034336479978
-0.09044073694603973
0.02504694243564996
0.037475630629780016
-0.008936294212918564
-0.012953185389843148
0.006544865520240491
0.025404991797717928
-0.0013265137743175
-0.011802010341881868
0.021075592464580965
0.0017199525928170507
0.020872099678773893
0.048368315651088435
-0.004291089069864922
0.037010809262163845
-0.05239148682949807
-0.05378951438269604
0.016479944401022118
-0.003373430551981038
-0.020536097793628173
-0.0009154928094342735
0.027753275404655053
-0.0012109709658303664
-0.006933182975708155
0.0049329403556263906
0.014992510854048673
-0.007774558657596198
-0.003453142124338532
0.0063413995449460615
-0.031617882705590954
0.007235565249456556
0.02102412899488224
0.016765599645753637
0.015520432473816279
-0.009990013014127015
0.03590444684452989
0.02948312531722744
0.013546209231866368
-0.020834186612234552
-0.011525465616817996
-0.006435988648726918
-0.010960130304658228
-0.014147294552676493
0.004455231515275772
-0.049234021696998274
0.008640697611310902
-0.05185843463748884
-0.0576613419893006
0.05470909424795233
0.03795336213704798
-0.0024205329810557037
-0.008753263027782092
0.009255916682380632
0.03618272769613477
0.05448902325328739
-0.004388880431409105
0.0007907962882368044
-0.015194083584219805
-0.19109745287699195
-0.01972008365312915
0.09307748825673344
-0.0894940965246633
-0.06670739846204132
-0.007838951958034593
-0.06699047424199918
0.026210176996656547
0.028020452009222208
0.022787152182675744
-0.011479535617605023
0.02841267654019334
0.008351808734207444
0.0007103802120667292
-0.023616802799942778
-0.0034716248598365544
-0.047605185575639676
0.14438956064363925
0.04873169406771067
-0.034147659774002095
0.0408949859750036
0.15790711501593874
0.02137160981074078
-0.03427003071137564
0.001311412876559574
-0.021131211309331606
-0.01107855016413584
0.02699921683583011
-0.0064927944471294885
-0.008478971631793841
0.030346420837390416
0.06295753267941093
-0.01454529809641388
0.009248279013620922
-0.011013052975563294
0.08163142117038749
0.11173562909509248
-0.07225046494996983
0.011794034706483414
-0.04064211130501813
-0.01175247058725296
-0.03455699003912899
0.015299538688161514
-0.05859850091492368
-0.033504231576608694
-0.024046502756700536
-0.030098905707509418
-0.008986165208427052
0.004492173057322254
-0.009679820899228243
-0.017564333193707378
-0.01020408120006457
0.017889863260500523
0.01503871798188559
0.06142509467166298
0.013035484351798694
-0.022840325119063126
0.023199754728729607
0.004858603391971544
-0.06369089349817794
-0.04962059004172466
-0.009464446106399927
0.004626695550449772
0.0266986878151594
-0.002695666570520439
-0.020552984072774026
-0.020365425494924285
-0.0012799201421577048
0.03199098526356003
0.0690278098148623
-0.028784311761566875
-0.037254143752818776
0.05883222937018673
-0.01764900882638397
0.023244613152004826
-0.038803534867472976
-0.16373487533116887
-0.043171767194519775
0.010805067305900445
-0.015619993706295524
-0.009016371069388286
0.007434678994844245
0.03570890467361968
0.006257910394521305
-0.005434218260257424
0.0076555352158963474
0.011024747056275456
-0.05239067506937259
-0.013939733310043348
0.00026712241239479486
0.02016696433611292
0.0726429960082832
-0.010570916338163846
-0.018589815330037007
0.05008233509349444
0.0059888085926004765
0.02351591089213923
-0.022681321177213547
0.03179323556318966
0.10975366769775839
-0.05033578829521967
0.07994528499259651
-0.06355855844576347
0.08778507349175806
-0.030820526399194102
-0.04436469092605674
0.012798343950963024
-0.019079592760431377
0.03648492562746024
0.03674979439554393
0.03929501657270468
0.0037990854146787182
-0.05698333750249843
-0.1138895842801088
0.009780481792207477
-0.001486254469887746
-0.019145337882086413
-0.029546477824369168
-0.01647700656258658
-0.03282586173322288
0.011458247480717967
0.04255294529614001
0.08327024915032831
0.050264504747798804
-0.0001766967303768581
0.027471653703101
-0.008100776124761526
0.03076849511748727
-0.05773678941352339
-0.03313858624641566
-0.008744838039391488
0.05765217603112141
-0.05356666447918112
-0.09436142937908482
-0.010330796212218728
-0.024622472025782965
0.07846873422745236
-0.032082693876623394
0.019339089939327155
-0.017209559573118063
-0.0506015651169153
0.023148105312536985
0.018328132978312657
0.0023037599056912094
0.02266681141948565
-0.0016670330389881827
0.0024980266415827366
0.034815316713061345
-0.0232528836205992
-0.012352064537537205
0.011815453972224544
-0.023412471846043288
0.026900863250395153
-0.031154735822924683
-0.049335398761751685
-0.045310364350377726
-0.02240541436756882
-0.025487391977174843
-0.016312202949900063
-0.021493744674363446
0.014970731375039159
0.035096931000553576
0.02293474627569626
0.005842014278017635
0.06155825111799026
-0.024492358694343283
0.03409951350292788
0.0606501000669352
-0.018573918161053485
0.04607891068533925
-0.004835442406131557
-0.018352940785946386
0.04766273316041417
0.017726960598189432
0.020868847625591883
0.07018979403614574
0.011270233495445774
-0.016277485231875145
-0.0029812890795508054
0.037995421260168014
-0.025118268673042773
-0.1107240529719485
0.0020720123007461943
-0.001715061068365414
0.03333628161036399
-0.0322608861179239
-0.03709447819407335
-0.011555391403086448
0.03412224807719137
0.01939915675307879
0.026027193207154898
-0.11850525441884115
-0.03890202629578135
0.006941328529681341
0.014418921929889073
-0.028842923445983826
0.045998202482200205
-0.04462075644554772
-0.10167578621469488
0.0019453744830288347
0.06269857786012856
0.032799568006215
-0.0625023914628906
0.06570649378515316
0.032369918214268774
0.00041621076420945334
-0.011875785160514815
0.014712282053304054
0.015736950972233463
-0.031245711866987554
-0.02731525590397246
0.013605578882945956
0.020855222893502175
0.09501784519879354
0.034434307495473326
-0.001911240520873069
0.0370362253516435
0.03391833158499828
-0.031438590168941696
-0.047889396028846225
0.023811327703635712
0.03790366184963316
-0.0020724647925551335
-0.01371594241755678
-0.025467578157417733
-0.007171726299692732
-0.09553306166468128
-0.020543913670755923
0.044990254391182816
0.0017864327590455923
0.023985196939605838
0.006356269192951026
-0.01298346867042455
-0.055614714120993274
-0.017626969049828443
0.012317495272161708
0.008602290610892824
0.08101140821844278
0.01142270370731343
0.03513931834610128
0.03872207987319102
-0.016609188569826842
-0.07784578922186539
-0.018175979631321625
0.009541896029530822
0.02634118017033251
0.05453952895526754
0.0004104006012654821
-0.009168316716222799
-0.0102706801456733
-0.1476654385875943
-0.03525468386289662
0.024522526742805747
0.009594682870313516
0.009937391141928074
0.007504837198585052
0.006644620521231634
0.014270442453424508
-0.00920617116926133
-0.04606277899970288
-0.04364192920078523
0.024372727886161002
0.009341579176905855
-0.06696088947401331
-0.006957440234631076
0.030326183157292363
0.030544757873160206
-0.026610645107661028
-0.028075112200210486
-0.033457023611434926
-0.0006962003022929072
0.03206629771027562
0.029045799300522562
0.021582056006857708
-0.027631475397394918
-0.025783850188447918
-0.02325018690637946
-0.020079930668276316
0.01595696431101733
0.0019200775723939776
0.03203813309350661
0.16840316373837963
0.027678849807627925
-0.0017225392199350792
0.029927839935061304
0.0045393742898097965
0.007667521737224914
-0.011062123400243672
-0.004053389018029181
-0.03678460343942111
0.013103478691429127
-0.0031893883469224483
0.003874351950748411
-0.01954873991589212
0.05550816127134981
0.08187541193730638
-0.029050317960981308
-0.02627192551577242
-0.01856047302122387
0.013680970377374962
-0.044978212049105584
0.006673378145934908
-0.039207457594038514
-0.020249307519131083
0.009969959822314947
-0.0362201747973233
-0.01533035710479185
0.002791534448387337
0.009563042387222363
-0.013851349734796493
-0.02263830886809014
-0.04454569798846389
-0.0010220610087288793
-0.014300322749097759
0.00976846060762397
0.008607446010263713
0.00020036777607843458
0.13601514722462052
0.02150835010960195
0.0004925194963328182
0.0021051073170599097
-0.06255188797577865
-0.01677342641558713
0.01254868112939565
0.020802251139126992
-0.022484843899625268
-0.0017196300213995054
-0.02315468652393648
-0.1243638132906352
-0.01338243920210384
0.002608129104879165
0.0828156073119826
0.08208180852247336
0.0046980324610793565
0.00861664098417136
0.0035355878581610385
0.03806286859358199
0.02680235701224557
0.009985161095957545
-0.015295466178983958
-0.014532963294602063
-0.027379667583774657
0.009561111614274182
0.035907222498635614
-0.009054703583671619
0.015727641026744718
0.031146353512597542
-0.01854715637998132
-0.024941269551872345
-0.001425357964106519
-0.04004924376069845
0.007453437131895849
0.017670595943420818
-0.08853089234972192
0.049471575115756714
-0.017776072703470695
0.02359205796487028
-0.00670078936916393
-0.03280676628488122
-0.0031487742067860254
0.007348356127508815
-0.014026469454382434
0.013983727083008516
-0.022977132676393737
0.03971287498846535
0.015945155160070855
-0.017828122183575875
-0.043830440153412996
0.0399229790127221
0.004719901875157305
-0.020669995091497702
0.030288859018263493
0.029341438918774682
0.013545329888360321
-0.0012901296348313777
0.001617650820246896
-0.059113373182509144
-0.0015883060420882915
0.007830381431430002
-0.0014936762280545097
0.0067981229978660825
-0.06072640302739096
-0.034059661976194824
0.026708727382575095
-0.02267705884224156
0.10878303323241849
-0.015392964709151065
-0.03239559364905233
-0.015937719421205015
0.028464255782866564
-0.008209318863064434
-0.010201545691143966
-0.08426653635856032
-0.03053403275173493
0.03444262336991975
0.010248320936750127
0.013147668772611504
0.022290088491103394
-0.07041987618189852
-0.13687776947250602
0.008145103085735387
-0.02641844654295147
0.05008187069219906
0.002578512232191577
-0.014182615020277529
-0.016644291234732315
0.14964099174988918
0.003461541699041123
0.020223824655272036
-0.012766480784186062
-0.03781109479511505
-0.0731675286319549
0.1155805320789763
0.17540824131517443
-0.004685534551231503
0.04159263782188701
0.05306883157556132
0.041876194511701666
-0.06437212989912043
0.03430373017527774
0.015900832621742814
-0.04885405863438856
-0.028907077733701946
0.004505302845952765
-0.011581035002659747
0.035482314233682595
0.0144950456758051
-0.024505720202305695
-0.0062882459540116046
-0.027816137156179796
-0.08949657821856113
-0.0026934744044311
0.016743520106590744
0.015899052035976746
-0.01986200908019673
-0.04199099211446994
-0.07557590547632327
0.03999477783201831
-0.007658903478867951
-0.06554946721538762
0.015102322607741775
-0.02242735409408084
0.05100346670539878
0.03868246182657631
0.00018271603867950904
0.010821873749883946
0.06188171566856003
-0.008260355201840512
-0.0009050220156216196
-0.010512186288968389
-0.0018863799409649068
0.002105867369847083
-0.028473925219161103
-0.053902387390202616
-0.045945579171359156
-0.02219146287149289
0.041100029294776706
0.1504395631535714
0.008403850564546
0.029723818032450312
0.002222804852686356
0.006747508827088147
-0.02728795538683567
-0.021621578805497556
0.04700614742119158
0.03917222574541135
-0.0888655941760534
-0.0592079097314021
0.013732384781928866
-0.00476254554769591
0.009859727258004691
-0.00071611991622589
-0.0204534096476217
0.018846798236361855
0.03860101036550663
-0.018627278866969126
0.029054155370275312
-0.03401152952477447
0.00866374479448113
0.0029495624339069717
-0.029357384187102896
0.010378768008391681
-0.008199307896197638
-0.015389311980472728
0.04456990124502475
-0.16558023721874876
0.031214802061341345
0.024868435274763727
-0.027206536761309543
0.03459431586050036
-0.001286097877226536
-0.024231958911733506
0.010536014736026613
0.027825133829623948
0.06585744824082009
0.034396782927420586
0.009739340172287753
-0.05162211420722465
-0.04820566734890869
0.035440401906812524
-0.04240600093863055
0.007680160042171444
0.020836288077659824
-0.03771075485821806
-0.04015666336213663
0.0002866943906003732
0.062449353595389195
0.056146880523796384
0.02641704660778244
-0.001958252466155649
0.009692535966074757
0.0043198979974328035
0.018967584517878684
-0.03334048495351392
0.04280550608489108
0.06498037001672385
-0.0569362218659715
-0.030538704006857317
-0.026935370784837844
0.034639131426602764
0.039880938462842144
-0.022206659181671317
-0.01355449427297969
-0.011648876054725721
-0.021874305042503494
-0.09363535619318936
-0.010217539514353169
-0.03638219304831223
-0.020981832367582123
0.0344856238188226
0.03675804460844231
-0.03631255987684008
-0.017769170974738964
0.04911541105463218
-0.00755197991740656
-0.03013383233156764
-0.027071411101835495
-0.05483542400688646
-0.05001311796935384
-0.05873758469999041
0.15141178067856878
0.024819713969406052
0.08925655727217183
-0.014143937673317569
-0.03483051367937745
-0.008561615815920062
-0.019990028803340904
0.012031231677829018
-0.009944527351134854
-0.001774176486463519
0.011916500741265977
-0.0351714929092951
-0.03138436653765425
0.05488258667390589
0.10979947557656947
-0.04014800451832802
0.10388842916602425
0.08714595226638146
-0.040709366856054995
0.051082232318625735
0.0004362522719023637
-0.002136148803129588
-0.01792440511497969
0.009733376989392575
-0.04461541652546227
-0.04284972547727919
-0.020530535992530928
0.0025062179921581727
0.01852378545571576
0.013122067912406875
0.022029843812414785
-0.01959404862803049
-0.017413262588982945
-0.06131266357973426
-0.029374096733299385
0.0072875524930737555
-0.018769542739471155
-0.016844115233018188
-0.023220201792644987
-0.014884723125716351
0.025758195526550558
-0.007064415782610231
-0.0275787503203397
-0.05567767671853433
-0.01301400731292061
0.0045888588700424915
0.013888983489610849
-0.037896434872672684
0.008343751537352824
0.042751655327592855
0.039544712669880494
-0.03273669380799022
0.00860702022990291
-0.0014571963640931033
0.006399150746831749
0.07116742526310921
0.02127742205183476
-0.03754474875961791
0.052116812775873426
0.15249839466696855
-0.015227812783503946
0.01381069618243907
-0.003102020994219712
0.02264225902095746
-0.018152830977807618
-0.01871348163109621
-0.018078842501328313
-0.019951668583281255
-0.0370516715046508
0.0071573138611535254
0.04699067547979377
-0.004652814588314257
0.04220683967640974
0.011473982685879066
-0.006749644492979744
-0.010607945738105671
-0.0021046907543947843
-0.01629333675166517
-0.015907772562759392
-0.010292735408937026
0.012883215010799563
-0.04934497841604079
-0.02014977361811732
0.011849894463196009
-0.02975255122355197
-0.05741025401240879
-0.02301405575823688
-0.05402163653935998
0.04137629385459338
0.03720873984028621
-0.029519948560735445
-0.06224804211865691
0.0011536255330135304
-0.024084299431504634
0.015099147496020099
0.013591755925116168
-0.0183825395829148
0.03537782585636169
0.021754719363576848
-0.02143707994149898
0.0016847921464392059
0.00879797649534973
0.022961124623965976
0.03328031777210532
0.05991358968542877
0.009205095479888821
0.005655922591721254
-0.02653860276161813
0.013031742276668251
-0.021290289170743704
-0.07978157807818408
0.022297034350638803
0.039310280984718005
-0.01602367478918935
-0.005754300019689237
0.006521018583354152
0.07028811690956141
0.03941316226435761
-0.0160455829138866
-0.10089360984501096
-0.091324155692252
0.004684790552174299
0.050677027608707535
-0.016537271911472123
0.020241866654958595
0.011961899978164154
-0.020507809065516056
0.022107655146646987
0.03088445030636112
-0.02395842200887339
-0.01752864299897038
0.0011114060397843114
-0.01646861616524865
0.028970957939269036
0.03189087707239466
0.03735944166812013
-0.0009242854807380966
-0.007403445025492746
-0.035086265191747575
-0.04317617423813428
-0.04495841800340111
-0.03877798794706588
0.07375765937195074
0.019584550479120225
-0.01978280804819037
6.960760244465024e-05
-0.019467786198991883
-0.0038269155319923015
0.15058322915344619
0.04050601301196968
-0.0004451116229240572
-0.0007089422837799447
-0.00933291276225609
0.03035161133874806
-0.03307653428291148
-0.02827930973915501
0.041218192325701127
-0.01268885412880223
-0.01583941663166471
-0.010140292745089725
0.02354236712424971
0.022304645486939452
-0.04662705356602355
-0.022606723963007103
0.00019772067980996735
0.012464077872029721
0.029629920056428515
-0.02351899770397014
0.0036244171869080125
-0.1023894053996549
-0.034400737507859984
0.01657893689116006
-0.004657782302124888
-0.004964498562611284
0.008921009682338521
0.0022550001456361803
0.0009588254642013014
0.005434296739096024
-0.017010296473229766
0.0718664430850724
0.02158913671394028
0.00279828080426124
0.010729927295941761
0.0054239182902071515
-0.03535820657409374
-0.03435107738334255
-0.03688856095054426
0.08103137767255322
0.03554191151228979
-0.0061406493733647495
0.02341116207260358
-0.024016296626556632
-0.029708574745839236
-0.032215307344807674
0.008651123605044452
0.09485717430167653
-0.029555607016382813
-0.02106763101299229
-0.007182672856215632
-0.014592434708976254
-0.04766401524630007
-0.04171688600513644
0.07361471290175904
0.07540139076912429
-0.0207895395017336
-0.04300385344413974
0.0324144878713502
-0.022939028874134074
-0.06286569567681045
0.027036386319037816
0.012668797911517626
0.015167910856723454
-0.05011890950456521
-0.006622617873130684
-0.020273066800747065
-0.022333448525173598
-0.03414265246641764
-0.03924909168417429
-0.015260586887056211
