0
0.011702654986827906
0.00013788523510603842
-0.07851622428560912
-0.07890646992706125
0.033929340891064
-0.04827411732167927
0.01281356598522385
-0.030377690724657923
0.004604807160305109
0.017768951673621396
0.09881633338892
-0.03452789971258671
-0.0495341416583818
-0.025886037300643795
0.02861391036631223
0.05038413893385622
0.004661985196194094
-0.019019482011027395
-0.019272623884772855
0.003342066809534948
0.018756220857450316
-0.04636787513795811
0.04626891993822311
0.01862488292800464
0.13586502943022002
0.09163848263838273
-0.04585535761204935
0.0014261384137599438
0.01259426414802011
0.009651282532094964
0.00939766272758205
-0.03533151691842616
0.006233143745542767
-0.010446821204848702
-0.052433726329225654
-0.005024818270150961
0.024464790049397764
0.044269283103900076
0.15956108978919453
0.030008014215405977
-0.0029340035385939252
-0.028356092154503253
-0.0008351208399429332
-0.029866121757264413
-0.06153075235069682
0.025994378358490614
0.024909737418441404
-0.040588844882990714
0.02415551527784552
-0.06906610586634983
-0.053382438702293165
0.029070226539159867
-0.015402518556771794
0.007158395564949312
0.018889581751345575
-0.06586287907330837
-0.022047401166764378
-0.00593892173238527
-0.0130065930606571
0.006269460196297503
-0.0023135118280116487
-0.018700714170434497
-0.010476963857694432
0.02079852827837724
-0.04597745541848341
0.00801002725233392
0.010249494612318123
-0.0017951833426774592
0.025628716898532314
0.015237095474955368
0.021495940874744136
-0.16038135336041898
-0.052569469570335044
0.13874665888666018
0.020376997392553713
-0.025346306625861258
0.002638255907369935
-0.0053992916761643125
0.03013346980036724
-0.009850221683317055
-0.059660892489162703
-0.027774994713422922
0.03953637886397351
0.04261556004503877
-0.04064317165237996
0.0006723080374956557
-0.02539594238066169
0.03812073039182337
-0.005835587035140214
0.033929718509796924
0.004596367115222395
0.04670450752688736
0.08793833559829793
-0.013898587324103857
0.01620783867237774
-0.00014693728915268742
-0.010945523892536252
-0.016992155975601816
-0.00830777802061443
-0.08016673426363093
0.044574199060816284
0.01539980588431082
-0.04354408567134702
-0.017429479463696815
0.022824222356910732
0.006917859454444179
0.022524695772363275
0.05189648161076142
-0.0027237339710618827
-0.0304922978267212
0.0016634897350612837
0.0013846072241342636
0.02655125883186985
-0.024488913741341916
-0.019554838031665883
0.013442697138264192
0.02034082291165063
0.0622643172161064
-0.08734591923537663
-0.07136337861511267
-0.027671583628618417
-0.008558035560570183
0.018965218101832736
-0.011054585022445315
0.012705990212023306
-0.011257671001304929
0.05770911271809504
-0.02930225039086112
-0.010843925162712301
-0.014962240000128892
-0.01567812914454193
0.015917210834841142
0.027208105818347737
0.01097748866222138
0.007545105418906021
0.01751078027758676
-0.008737940559035852
0.010065964365616723
0.026489637525436437
-0.0021966570328915366
-0.026491682067365574
0.0068416250012867256
0.04447753937535387
0.038092222387396804
-0.03561578452751088
-0.10308891984196089
-0.058253028089364285
0.028132698434511372
-0.028484529679055817
0.0011004088214982106
-0.0001035007713974257
0.026308055673620122
-0.007782873808934726
0.009436581104191951
0.05349842720914515
-0.05820297818578782
-0.0004124979640850789
0.013922297228839545
-0.0051228237865448825
-0.010425559543301027
0.014953582758180265
-0.04414879554570684
0.0015769224208865005
0.030263571988257805
0.04915583174696483
-0.043164859805157545
-0.011097620746120614
0.025077575456351225
0.0023441766236601265
-0.0019305021679684655
0.0044393935381303404
0.007026814120909891
0.03886585928706908
-0.024097161033002405
-0.04104766148845927
-0.0005944397649124022
0.007068206078389346
0.0018801069008537034
-0.021458030517008012
-0.022414322574418735
-0.0020181538006172335
0.17105466465336083
-0.02111182742026623
0.01306210971397561
0.06163941472639224
0.016481088161430908
-0.016776283228325747
-0.02428979330488624
-0.008348433778001447
-0.024434564758480482
-0.03920806172267315
-0.015560784598925063
-0.03273039502073601
-0.02160697148317322
-0.01200229819189862
-0.010492934049979087
-0.012065242101895643
0.028658474234376567
-0.010363078941676648
-0.026613123913789453
0.031241117755635088
0.053356809828201894
0.014395864858612965
0.049627205755142796
0.04114847653919714
0.05092526681812597
0.03083476383850741
-0.018178776875502897
-0.0036723799187635096
-0.0021316551441463486
-0.023753554087147615
-0.0003522056840839355
0.05537582324223295
-0.029095458352110307
-0.030584716131136617
-0.012103461959446128
-0.07261190454543393
-0.12404472047124324
-0.009145218206828017
-0.010605499172459523
0.030030562213264663
0.09363431199799255
0.029892273157046047
0.0046398592926662745
-0.00915834616646538
-0.006128066440764023
-0.003244094051872021
-0.07023803605910116
-0.014295215687713707
0.0075484215768215485
0.044696081253445874
-0.06061199761002958
-0.006279061388737337
0.0022338598774621697
0.015327190841589965
-0.0049821741974506685
-0.015150771826707122
-0.006728034158686123
-0.030143491277198696
0.04924518122437446
-0.002979154655229411
0.0015609660034027653
0.0005776466232578401
-0.0032872084484054055
0.019687545662579225
-0.008318693362631276
-0.008133865536892857
-0.02175170505355761
-0.013614083441920864
0.054994245985532896
-0.09360738469319133
0.08637654613641933
0.10947707725543566
-0.07993377995819077
-0.007023450000093392
-0.07363926669537661
-0.03684997801529786
-0.023912188361150444
-0.005802678693136354
-0.03630731727377487
0.04731209396860089
0.06756487224740351
0.07004139243206484
0.14952555060083236
0.0018274679660215678
-0.006107021736942435
-0.025092964779302635
-0.006871851615608279
-0.0054628451597988
-0.016378751232701348
-0.00205684120374325
-0.05547684072921711
-0.03144421457682838
0.012973198080978954
-0.006255182648930655
0.004846286925169912
-0.021188441274727347
-0.0028792810788916953
0.027122848215927604
-0.008090604304556853
0.037185537351787604
0.05344454113427966
-0.04196171199949786
0.01883894752653938
-0.02554471638132848
-0.027218378749351832
-0.014781155297038278
-0.023262592728234745
-0.00524455302669743
-0.006609518921798909
-0.0005766014917656016
0.001683001967837695
-0.041922439320201114
0.009025675768830883
0.09269008215010252
-0.02659946955636562
-0.035230675324522336
0.07294167014709856
0.050184994173468236
-0.05400388669210819
0.020569783869632655
0.007288827617322123
-0.04166706329846153
-0.044676993255087206
0.037423015211562057
-0.04316675627682573
-0.038525016856091755
-0.020383716587337296
0.0033120067350935595
0.0014033216857425733
-0.000759540295344296
-0.015138022100534191
0.030718695285364535
0.056672817592729026
0.028440092146514398
0.01896964587380028
-0.07175704872740107
-0.15936729936941554
0.036166666207108185
-0.049081464606437766
0.08104062620748631
0.17210563064614967
-0.02265762525786619
0.016126720156472155
0.00547334967944439
-0.004769409151122211
0.03814941212123563
0.004969417822731959
0.07153096907766207
0.03872418505297794
0.005980119196741485
-0.013205313656136497
-0.025377335650359288
-0.034699474901979145
0.06252684963478913
-0.0580482584457187
-0.17584030244904156
0.013533628835958903
0.011372545479406877
-0.014197033945210233
-0.02690860193747097
-0.012375255623145037
-0.026441830566866564
0.0040322234255703
-0.0030798839022602147
-0.003561149675534339
0.0246759646328877
0.008302629927285478
-0.0031483473979318373
-0.006037154593937192
0.025967157005834726
-0.02432208429782534
0.17534725268029683
0.11352507561664107
-0.040527388998676014
-0.005877760264684568
-0.1579827340533717
-0.0270507460978073
0.0011498139655043969
-0.034772476949223224
0.0016087742118527642
-0.03518955076977755
0.02808399860072241
0.01703912662832262
-0.007558844429343931
-0.02453909543987769
-0.023468329915740847
0.02421279803867107
0.0021831841183231728
-0.008380605472940679
-0.02584820396237136
-0.04410241446746099
0.010905144215435798
0.012109584537952738
0.005554321441261563
0.010792476822749572
0.01966712680079811
-0.018701836828987226
0.1278024796240444
0.02748965013752603
-0.0032852872148196573
0.0038746151638142175
0.03382415278469653
-0.016580711675237444
-0.004168170617679109
0.0017663931024892458
-0.02097479480079117
0.024932177781798005
-0.008677214051610425
-0.00875614954510619
-0.005746286501341334
-0.018394435136226954
0.01270438400417125
-0.010906535639230445
0.04828539071889922
-0.009971896151914765
0.05224041432546653
0.008362629769526626
0.022238403849900834
0.0397024481801062
0.046493741869817425
-0.014094827436295278
0.04914893360693188
-0.06427830064239128
-0.12757958177188897
0.025583642605195737
0.03602680979449614
-0.011801061220765722
-0.13025119226880594
0.04084261434249077
0.04751313262937342
-0.09734989553329565
-0.0890661833304608
0.0324550788342997
-0.0034766905469382475
0.018942924094060492
-0.0037053740095690916
0.008712972611391735
-0.01833432386547173
0.00768601354611955
0.01968553957182393
0.020973144947753486
0.0636738281090529
-0.02367953355986318
-0.09077889904516054
-0.001511629608201438
-0.0761903716635145
0.018806452703881045
0.035201324864672125
-0.0006352248103182623
-0.028753809109680183
0.023325404620766182
0.011004777363240962
0.00616373451198943
-0.0076476950547470016
-0.005339434634240959
0.03052042286569517
-0.053666552390834676
0.019495303257876215
0.014718155143312825
-0.024218108266471375
0.0038100590084182056
0.004185442519893827
0.014586866387389345
0.015050300503044803
0.006990889402883042
-0.004775242129002693
0.024785069873024288
-0.010045125532737753
0.0315030405533618
-0.02295391672061424
-0.005708023051039746
0.007759849056811551
0.004050743850499701
-0.01881327302061121
-0.012650962366648576
-0.027018681439634783
-0.013706126115478143
-0.04098361392196774
-0.026982504541611177
0.009196049216429948
0.017635435895504457
-0.0013609315184446057
0.07408671818237252
0.0261350367145084
0.03365321822304492
0.1463272929187634
0.04608986679415712
0.1005593154295397
-0.008921156377873815
-0.008239523754168624
-0.016127766718341627
-0.03651714801361169
-0.02080438207516522
0.007002547880965134
-0.030614890213234564
-0.08480708359994668
0.023550780685797964
0.04719830052793236
0.0002463249517785404
-0.03522171607267591
-0.027355190083695333
-0.06927883646461985
-0.008020304567570712
0.002042617704314155
-0.01729097039544098
-0.03402330039906764
-0.0003447894418695665
0.050766964310869474
-0.016090937677476796
-0.01019866707557754
-0.013700301106298754
0.02235498026683768
-0.014810909901989236
0.005264406816515601
0.018960319958403072
0.014947401227100629
-0.01418449562210763
0.02279154111104778
0.046965645167139296
0.03804938496838643
-0.04001632660315159
-0.10900155081717107
0.013054141081524525
0.050202102036106484
0.03973524322885272
-0.002399790209989402
0.002764044088023968
-0.014697511406198292
-0.09588680105196752
-0.029329957692006907
0.017712648399630854
-0.0036354987936492817
0.07992007942018789
0.04823448619701545
-0.01509487498247747
-0.10564274661972581
0.00031914828829147755
0.0003354195224966057
0.0010150199408082785
0.019243567284861034
9.740251949441905e-05
0.001988334591009125
-0.03069573804543979
-0.007834214653863853
0.01454635314788085
-0.014641252521235711
0.0026349484577594105
-0.009136010966638559
0.02017088585225965
0.009928601963047415
0.07274789445410919
0.04511925313316826
-0.055908464197415936
-0.02570034375143676
-0.0069731846274691586
-0.01424816531297822
0.019745796826839426
0.04771671386701745
0.017408087443178986
-0.004081377272042544
0.020031226759114895
-0.003058238188881295
-0.008834313472761514
0.008481005547953783
-0.06659007993005416
0.04474676106564777
0.05529490649280586
-0.0306019815901699
0.04831371831490659
-0.06014772770045119
-0.020495172569344428
-0.017609451770848324
-0.03786757839390166
-0.019905229414343355
-0.02956817658516201
0.015156586066561275
-0.01619670945334751
-0.0019516640216723864
-0.010514899068511212
0.001450908963856028
-0.004089078716143491
-0.0062383044876873775
0.07610923891538879
0.053118499383866584
-0.0048057693011356395
-0.001554074777482988
-0.02604544406450844
-0.007623099757262268
-0.050372268567083316
0.01819139630652086
0.0020856940258937974
-0.015977414886287705
-0.005055428693285904
-0.00659400878660421
-0.035523001287375226
-0.03571293128616358
-0.023394354214120183
-0.017482039497715166
-0.021172056160423558
0.025596789447431767
0.04584147720519956
0.01855303040062111
-0.03380623401997318
0.11893756752375989
-0.025060744632693515
0.09108958993375377
0.11095072235221826
-0.06335237160936133
0.009903295697104554
-0.02257415049765166
0.00847230222953639
-0.02320880402413161
0.0004051142001411993
-0.006338524624780901
-0.020430742982862075
-0.029976520820173495
-0.02391276317720622
-0.03157691095296644
-0.006407879299502977
-0.03659281741393587
-0.0067040124742856096
-0.026250581381173612
-0.03558315846783936
0.06086340050285872
0.07422983696084456
-0.025975216161350404
0.09467542683581504
0.0828897163469985
-0.046870388383363715
0.013187100815510638
0.04475095264220616
-0.03481137113675639
-0.04976216794523029
-0.02405085961820535
0.00254634147871185
0.00957392761923448
-0.024099917900556374
-0.025830533478594927
0.005674736728795038
0.02314471921938526
0.01018389400169797
0.040856947448469814
-0.0443832439976839
-0.03937499207802591
-0.020635137471631246
0.008310142261124313
0.006488175487864558
0.04726310606546591
0.01322806523251841
0.025559578864951277
-0.03107486074256209
-0.00977962039685843
0.06550606883347863
0.035072836213341875
0.019141030453852084
0.013487449585228434
0.004672031378560925
-0.0067547442779704574
-0.030777947133159952
-0.028065203267007288
-0.014483727789327236
-0.029974246303073757
-0.015466399170267766
-0.033117271039721514
-0.0029349322907653904
-0.024311624406816758
-0.10227331404319791
0.07539505698204635
0.03641167957550458
0.017841524188194086
0.03751480975222147
-0.04662939544494516
0.004260727384929743
0.019259068577995846
0.015083751033908327
-0.020481552955567705
-0.019296393925775507
-0.05006787479744451
-0.09529170801546293
0.02799721773761135
-0.00018336013125068692
-0.013261190064971385
-0.019400148817455058
-0.02218213798273559
0.03627267244500258
-0.0175590311769234
0.004002976400916482
0.036173655801200244
0.019063147062140545
-0.009642137921206426
0.03665433539255092
0.029133290940353097
0.005897725751220811
0.005028019487381789
0.001464571220463163
0.030983976789905714
-0.023123581335753342
-0.1494402625193495
0.020918450869062303
-0.03923293817642042
0.08082981917333898
0.17052658541554855
-0.024293210207874807
0.04297148321507912
0.03261528213597734
-0.012238350477918158
0.01699713379141909
-0.007655757504459144
-0.010782321569915293
0.004119159752864395
0.005232425764792994
-0.027146272810183787
0.006394874244066767
0.005845733977285214
0.012493898197723948
-0.017673392302761756
0.026224019423801856
0.006079395502568799
0.014043617286929962
0.024075100300812842
-0.020474858937654408
-0.002640782786826102
0.019383382426388086
-0.0755864955682847
-0.06563085690633184
-0.0029058357682603276
-0.006742010716630223
-0.01932691052658056
-0.02054604607045411
-0.0638667179429113
-0.03851074773373122
0.0024786109373960176
-0.0021269867499729726
-0.010177037175285961
-0.022314199279511934
-0.013384656623357872
-0.0015424433398034457
0.013896020271315576
0.024751655430046655
0.00458823303707956
-0.006155831865247141
0.008927193729139178
-0.0025437186136119034
0.030105748710272363
0.045410124587512375
-0.016456743648166912
0.056451933520346845
0.03662479385757362
0.019042737535578606
0.0039021562006630152
0.040150561326981256
-0.026865711914459585
-0.013825043004274645
-0.01804273180545754
0.037326638002785746
0.046588643653690996
-0.024213358399921146
-0.007258302232376109
-0.023523221004088136
-0.0066230873732350285
-0.022581846215067324
0.020616124737005328
0.04686769178044597
-0.05136795965026774
-0.0494675114822762
0.0004084534960569317
-0.024720518403332153
0.056686192704550185
-0.01489088281596094
-0.021125321448018097
0.0045412973826301824
-0.011047289067766475
0.0018595648889591207
0.03598968898548903
-0.011739834788994605
0.06210066101960142
0.03275778547954873
-0.05257031366266081
-0.0349741258878211
-0.04913945488620553
0.015375252097466392
0.010333337978313397
-0.017670314111634396
0.03673423281668787
0.01947422847133525
0.008783219609568694
-0.0024439209900458648
-0.02055916545806632
0.03511183456358439
-0.0037604117061754267
-0.0258112986520492
-0.0016025507124608539
0.016744945767627816
-0.04061649602708003
0.008601072864191239
-0.07747188060177941
-0.1810345618965309
0.125303553357189
0.018722781589839185
0.0020472583210511862
-0.0353052585281728
0.016720307408684517
-0.01592087321881298
0.20163926215988523
0.03985504980814398
-0.03764896084587385
0.01600450213005352
7.799326593116813e-05
0.02979817878293181
-0.015382582782863875
-0.015887551552604316
0.006758625378487879
-0.025238574941186746
9.296747522067903e-05
-0.014749017215198452
0.0362164383490112
-0.09292695837504325
-0.019065016163824274
0.06605854481774152
0.004885012233063325
0.0423359997744504
0.008052696857746858
-0.014573094585791181
-0.01748280846538718
-0.005349934057671083
0.015088166895007193
-0.005613817874032925
-0.013059028671343089
-0.03428576653036074
0.012948815669188285
0.004150017138164149
0.00342214563425201
0.019189789586080537
-0.01812498444155473
-0.02555168963430839
-0.04169598985216878
0.0126933524291241
0.05635413982592035
-0.03793337322066043
-0.04404408562522286
-0.003586858630361625
-0.007529705583427708
-0.026440385653922368
0.014615888215149003
0.04753446184561909
-0.05960311697791664
0.05496982219649484
0.11517782855679948
-0.036190436552409784
-0.006299650859350004
-0.016612722228574763
0.027054373732625942
0.01304496723316291
0.002812137861032683
-0.037430799603588236
-0.02192511733920051
0.006551541202703917
0.001858015512043918
0.015989894904481425
0.014338038881368823
0.016822530392407366
-0.009157572001026472
-0.01840033354053104
-0.0014676318097090436
0.06543015681647531
-0.00486048484240793
0.00034611939402679636
-0.012509378300731918
-0.030834730380410305
-0.012501909064451922
-0.01057464540306447
-0.03367944115034206
-0.10461711047344785
-0.03345422358499813
-0.09753030262375605
0.05305077265091297
0.006716398818511398
-0.026561666718459744
-0.01126184261184175
-0.021825811255963744
0.01647277091900157
0.10012403520419799
0.032188972698351984
0.011154006919042553
-0.0036819190784096135
-0.012310423522028864
0.0078822605312626
0.013564989704526638
0.044648961890794085
0.016756099524360014
0.017454360442198395
-0.0034604773932491416
-0.013933754021527677
-0.029929701355909773
-0.0028167250397838975
0.005046109862929848
0.0017167719362943456
0.07168757432660634
-0.028359862944105245
-0.008119837728508049
0.046865951412877464
0.07303024300224643
0.01764393244802886
0.023203935744910247
-0.028302130064816244
-0.05260026387874167
-0.007212395553536923
-0.005555201944134059
0.005222098307871208
0.0005050038046901244
0.0065793699557311494
-0.025545360253210518
-0.011631356744673589
0.0026506640711721095
0.014164686280464515
-0.026004130910692737
-0.001067012197661834
0.010460567556685788
0.016455151646897308
0.07271202950580288
-0.015974290043042787
0.008514401519193159
-0.05257184166858579
0.0007804689374448363
0.013555850316904388
-0.01827384451855352
-0.021728366341225568
-0.012533666489535831
0.02041207437567043
-0.02167668955321392
-0.03765128559204347
-0.03135363421495632
-0.0009672999289818966
-0.036453128074576804
0.014818608923623586
0.0553889560267222
0.04345459342030837
-0.10622281068898563
-0.019791687761328107
0.01156195974905677
0.017149097446519865
0.015145527541779273
-0.01934289923365175
0.020007540810108523
-0.025550776898534987
-0.011568214274164322
0.047203565351514376
0.015435517552336906
0.0063753981367966825
0.019062054278670068
-0.0016362624621378173
-0.01735774454024788
0.004445164995365719
0.017655227065353732
-0.00920949277306584
0.020156910243277884
0.019055689782555153
-0.017941211520341564
-0.018052594380056897
0.06828764918596686
0.038333726574899654
-0.02560980052080338
-0.02048566645687738
-0.03884506996545098
-0.040552572424059075
-0.03044212371885719
-0.024502015893385947
0.022047345860015
0.03154952595029813
0.00558221412463573
-0.023504968895441805
-0.013234245563691334
-0.0060562408451055455
0.024894629197303446
-0.05575450844377933
0.1613829554544701
0.06697379436592472
-0.018302713143240994
0.004597628699428679
0.006243686487193713
-0.1639095638746402
-0.08332102048560866
0.02777808046445589
-0.006827884365872181
0.03561987418243945
-0.002927133204047934
0.016031022596596278
-0.0090678117536627
-0.009895481745720228
-0.013611984730293908
0.026198840965193277
-0.015179900443857955
0.029571952864046194
0.0019188257358420684
0.04278557734744311
-0.04307071715616489
0.0055519749326845445
0.07492351118859687
-0.030275154826025646
-0.006165837382460797
-0.009731902305284182
-0.0008648673179731241
0.026701573775210492
-0.009635453581413583
-0.024458157973569535
-0.0246266758680259
0.0013590893724985897
0.004312244818413685
-0.023838638105642445
-0.0246570640336995
-0.018997016287027428
0.004158219684970787
0.005311795404261668
0.005478524128186504
0.014747671745909196
0.01589008567674915
0.023741057788849995
0.037059894462119256
0.0004326550910093937
0.05403902934798781
0.01938307263572967
-0.027007566652059504
-0.021107652693244362
-0.025611189412199174
0.04268746542328177
0.006718659574057021
0.002795660357654537
-0.003005854642735443
-0.009380384177477781
-0.0035515331008339353
-0.009471862301496823
-0.003960046227104313
0.02464907559878845
0.02341669239362745
0.019115909091161776
0.0029374502611264255
0.03605188366821404
-0.0437720472294556
-0.03940484383685487
-0.020943888606071808
-0.00561945525385149
0.0381685621021524
-0.0010588718605255433
0.008745371609805137
-0.017471645050612786
0.019254374552534287
-0.001033675866262519
-0.0011901816565790333
-0.02284519401145964
-0.032372724369688854
0.02902982886029889
0.0005572225000534275
0.013874443109337156
0.011833094594108487
-0.04047962003160669
-0.030674252625393434
-0.0022058608413786126
-0.008311521221107655
-0.07992021217199734
0.061592605693417304
0.0475784711637581
-0.012928495945343371
-0.011197489486486833
-0.005587634646273391
-0.14996924014310198
-0.008598798904566777
-0.01546450711647116
-0.032378944562891906
-0.003930565172855768
-0.016840412670075654
-0.01164507194570119
-0.014151662103601862
0.0034956627131707725
0.030331384079948415
0.027879146167853457
-0.029273407255553982
0.02000831309494627
0.023713070854687802
0.030969704882006576
0.1895328584883447
0.006144636324703601
0.023838398074753783
0.023126795434009834
-0.015163543983042902
0.0008479845075467882
0.07179274085993144
-0.013650717264439118
-0.029376826496977877
-0.030027514685861456
0.003675745401674575
-0.06724231707251214
-0.11255925165534059
0.051012728226723744
-0.011796255334630391
0.020720998208101436
-0.0033112010867026318
-0.0021897850338397254
-0.08857954792662756
0.03473915680205103
0.08410544290744532
0.0089462407277432
0.051474208231613375
0.10292284907977285
0.05191593542971468
-0.020707689427790544
-0.021582647307533117
0.0018494986566305917
-0.026042661700101603
-0.011272612687850507
0.0172421798440309
-0.026782716784259458
-0.005697297471112258
-0.006738961815400234
-0.015646963180837685
-0.03058922575498402
-0.004401800155939424
0.026811122874679415
0.017855258701305048
0.010225052966306205
0.026920943188006315
0.004662513052966327
-0.009719478395456628
-0.016406917015268068
-0.08211171920550735
-0.06165284554679079
-0.038440379121950356
0.013341462635786951
-0.011371245577746334
-0.04177902111752757
-0.0006954289143287982
0.08229244198492344
0.00729400949871312
0.006415929328056987
0.03551998950052796
-0.07972620661841318
-0.010899894734320618
-0.03816240539981729
0.0028837658559646377
0.024476594369803536
0.015711815183426018
-0.04876200860018445
-0.014208385713426338
-0.1159307404700744
0.07333016746852712
0.15581274453305854
-0.003369007004610181
-0.019090386752741745
-0.0014282361788585354
-0.0020373152002097533
-0.014493869068484511
0.01252405332337133
0.051077809324625224
0.07784432134581573
0.01243044356514224
-0.023000573943720175
-0.003452634741768006
0.009293025150577455
0.0004539843524744408
-0.018097485948848205
0.001231685542059985
-0.03054167917013664
-0.11220016295610193
0.023625445467187305
-0.0248661323051994
-0.0516658867135341
-0.020255831645838062
0.045103425621346574
0.01268818460704026
0.018518022305497806
-0.0014688199122366125
-0.008863054993462818
0.006682621285198812
0.04290931215278203
0.03562477810157725
-0.025673228192197205
-0.017432378457566393
0.006347315386537424
0.13745304440083073
-0.02878125279144921
0.06432700668817172
0.015215779747106334
-0.04179215171149112
-0.007222868932559222
-0.0477183364979527
0.0045895495776082955
0.012088097376506214
0.0746912399078445
0.00935950963432514
-0.028929759880015945
-0.033141035644745215
0.00014010053421780865
-0.018557153678565988
-0.023963220034393745
-0.014620672126660024
-0.020488109083711247
-0.010116203596951189
-0.024535212033965224
-0.02192066467807563
-0.06540920877728171
-0.019505431300705298
0.0047012995207697155
-0.007718752967439142
0.011806749643834014
0.007183879501785468
0.0009011016944359817
-0.026256149765603923
0.06970527756156386
0.013484334906514583
-0.037628018186198264
-0.007222603254871124
0.11018052560604571
0.10810668166214851
0.0207557936649036
-0.06617742225260474
-0.06756629777682509
0.03561082732294653
-0.021711780902612332
0.015942791997916667
0.04566307239110366
0.0057002713163315484
-0.005954218003239572
0.0066080391146149196
-0.010435385073616668
0.042268932954950204
-0.025545992764038905
-0.044814552816326014
-0.03077464344328605
0.005582517874184095
0.009071808326703366
0.003212098504928891
0.006348004289905729
0.022257217808064063
-0.055878690766904354
0.006636353875785406
0.009602209718351278
-0.029244816425311446
-0.013271500903602107
0.012787970879103387
-0.042060989782544536
-0.01225221546288432
0.01983069324685788
-0.02472444012915724
0.012642702601468308
0.023112029775641817
0.022188213249505116
-0.011852553966959483
-0.020661683716071088
-0.010328144395814082
-0.0045761915027505255
0.040590056991444974
-0.0151275748552476
0.014256797617387157
0.014924536100680414
-0.018748291515115468
-0.007802635184048441
0.019705162290220648
-0.004074034162749476
-0.030107760028475202
0.012880702683599329
-0.01459760471846707
-0.018554148126119933
-0.012979473541900157
0.011345895335491216
0.02438695572027588
0.03463931400157655
0.012748091904292255
-0.008072067417165443
-0.006882407375313877
0.004824452754458693
-0.02895420114240048
-0.006339354127693949
0.06665972916245053
0.01160395444946126
0.020954738057433326
-0.05334747212877692
-0.06615881193694469
0.016816416101026938
0.0014661323998718726
0.007189118219426702
0.02293112584477141
-0.012592089807871845
-0.020612016860494603
-0.003176195227854979
-0.02787473289100652
0.0048631249627052705
0.016949559296002902
0.0012228342452353302
-0.0148321020229872
0.02597483976076138
0.01097217582696385
-0.015664703299523294
0.004169551183625399
0.024369627570283076
0.0035477945347358653
0.025976517857640057
0.04613177379035538
0.017567831969869347
0.025783900030632922
-0.01962164381786826
-0.0032962047422671254
0.019009332846216736
0.01647598204454312
0.012003564504800349
-0.021027610453601863
-0.016494310858380667
0.030002448124490932
0.006445951253265114
-0.12403669411302319
-0.009298150766391285
0.04645532473963056
-0.0037885963436369674
-0.004983581129756714
-0.0023410283816583314
0.0038416319980903195
-0.019502711405805135
-0.0029090497744873873
-0.0196117914073064
0.015277348190461185
0.005701064289546021
-0.026883244039120673
-0.02437312101742283
0.005606218801415846
0.039319344201519175
-0.013472104922778417
-0.0737243224159387
-0.007752842597333486
0.00011092383121661784
0.04230841116940205
0.029922269645908002
-0.001563747674582715
-0.031048433889178394
0.015830914426559102
-0.0027219011982616485
0.023423307934994864
0.042922034113669655
-0.026206945652933977
-0.02415777588526147
0.05445493091462893
-0.009843683650729485
-0.008120574751533952
-0.006589914906016994
-0.04348668652301528
0.031743789177964554
-0.00391460546355293
-0.028073046882045625
0.003633525340985177
-0.03769584154507934
0.006538370182917529
-0.004833830127070914
-0.01672480187277356
-0.03054376370144881
0.02978054465856801
0.0635934243614473
-0.011054790262092358
-0.029582497423808543
-0.005857452307022901
-0.018857164147884596
-0.021510311378652655
0.022504178857795945
0.03923432101902927
-0.02852201789043573
0.03158735093461503
0.07652814029233977
0.030223146434137642
0.02198704985447711
-0.009581878294457533
-0.014013092303631467
0.003469372620230578
-0.01569693651553722
0.019104773117132632
-0.00723874300256426
-0.0036135673316100916
-0.04841614074832895
-0.010815229505187733
0.05778309451590438
0.012565022973381065
-0.028932150024699583
-0.0546943217471663
-0.06536107025275949
-0.022593540563667608
0.008360139117369627
-0.012360888898107089
0.00034281683539888106
0.009596351182436689
0.010505926528576176
0.01910799021411472
0.00011057482298563193
0.07752755981419748
-0.010559576673254599
-0.022363204736299564
0.03350132977695564
0.023793249451810473
-0.025403317759660256
-0.01457565361415546
-0.033975042616287296
-0.01856935627632536
-0.011763523994340093
0.012682370178257204
-0.020206291663690517
-0.00830077831518526
-0.02298704514872017
0.09233911633093986
0.07999992622803427
-0.009907778741755831
-0.045370344025025836
-0.01738473196480126
0.09903828790344942
-0.03256143904749599
-0.04200413223194137
-0.06926586092866681
0.07576381915794433
-0.005539347085735034
-0.008491423670241123
0.02868070204200486
0.026017054216553752
-0.008237701043972473
-0.004572502138278428
0.0007798753650092127
-0.011124404648189704
0.0069035962690759765
-0.0005164376289422667
0.006020559049408941
-0.005359244549340285
0.020847168679172644
0.027296036924193814
-0.07324781398911691
-0.017992996636408572
-0.002165274630805494
-0.06594148314853704
-0.031350124152748314
0.004680189227494569
0.007493759133355246
0.03379900818657844
-0.001732458673776833
0.15554261666633262
-0.007016803588407201
-0.011347294004111138
0.011762462705828277
0.021631559318321843
-0.01452750031542712
-0.006830277874265073
-6.856297746298722e-05
0.03883259992090806
-0.06655916481263699
-0.1143047720891583
0.03741225473475875
-0.010171505906791492
-0.016329785198084992
0.02209808731290166
0.026964173859133283
0.03143963244276715
-0.07002808224901418
-0.0467193185342263
0.021257135005202196
0.00034868603683935753
-0.02017464412019373
-0.0018117059747983068
0.002727979762778049
0.005655025648348431
-0.01361565588592768
0.008034295608616631
0.010086432456975275
0.02368342816424212
0.01848772233913502
-0.014898769547221566
0.012612723361398355
0.03711426988622015
0.030672431589198655
0.016427322022204847
0.039418720917755876
0.01695621016471882
0.015272120069521763
-0.05157170812229548
-0.026823095063659107
-0.035610954290763566
-0.05755424241419093
-0.03912039335593832
0.0125991051470672
0.0012089629747648453
-0.03467078689941426
-0.003547138420970702
0.03472667119576666
0.014197826747358209
0.019587961396152376
0.02107961057431639
-0.008845364685678626
0.012015440627804632
-0.01983598082502956
0.017592640461379636
0.03070305591195449
-0.011747128377636673
-0.026352037867424412
0.010601864278774518
0.002626004647161997
-0.014628219353219417
-0.06974464446354213
-0.014550090901299636
-0.007006472546076768
0.02798983141587974
0.02464198283446163
-0.011529357719430755
0.017389988839293973
0.022166482154433058
-0.007588020523368968
0.009836854909533146
-0.003910093040256426
0.004042955849367781
0.009042460803131126
0.004768309662468644
0.030662289202147253
-0.0011253938083261787
0.008740344460640523
0.04004895705678561
0.022265247319066078
-0.04694218846836582
0.020473709837358803
0.020943357361541664
-0.009989827170884953
0.0023849885750544322
