0
0.012365377017503789
-0.0032143255581377947
0.013374790312076616
-0.00452208777687566
-0.026576975806775354
-0.007208391624339841
0.0027738048899945194
-0.0012333808341036122
0.03569042947718579
0.01694696375032297
0.05808649861214481
-0.006907229581930047
-0.01346933956171106
-0.0033980517954921613
0.019433148483273398
-0.04759291862433338
-0.008642120388923088
0.013965014863571493
0.12227825303279126
0.17025355897919053
0.0028870228666783306
-0.003949267044686062
-0.02734384463693313
-0.005039195734840601
0.03138601449365675
0.04174604886469336
-0.14954146684212755
-0.04263276836678518
0.029796056311974458
-0.003052463023780907
0.007187881646079974
-0.013172716068165726
-0.01531605164281024
-0.01932509016298913
0.03806775078334218
-0.007106309409659508
0.014718511642525025
-0.033316298345741034
-0.02334547188217669
-0.016242655728878258
-0.024063136507388658
-0.018635612988817666
0.1408930956130083
0.1384391694701593
-0.08264912573309198
-0.04117986282768257
-0.05688241798229384
-0.015222348988388701
-0.004447657247605533
-0.010096864774329183
-0.04819975083840667
0.03639265499400283
0.04127161194454987
-0.04300862439570827
-0.02428293706052828
-0.016775576320525877
0.031125917998739632
0.03147791261585859
-0.017643304375103547
0.011167587537580606
-0.04040001969964446
-0.0022881882838911346
-0.01859120825599682
-0.031175230190581955
0.015595909307083771
-0.024013521982869736
0.042681848536787116
0.10764799918396026
-0.02072035975860641
-0.023559547973867275
0.02369748237300829
0.029048836671289414
-0.028966247967711946
0.01114772931276898
-0.006278958475255755
-0.05619113848286699
-0.05496144824563339
0.05300379658172059
0.015335011284769112
-0.018868438054417996
-0.023093213664911405
-0.007027341615525593
0.0038464808207865015
0.007295366425305424
0.001840034919625503
-0.002770122857477691
0.020489251157570193
-0.11236274116566206
-0.22640988254210198
0.029096446257105668
0.02986877140640145
0.10915608614205485
0.10249160328502101
0.01584658719320907
0.008404283004509891
0.09240912515243797
0.09934589828795774
0.018101265436564297
-0.023737281020231274
0.00973862106824004
0.03470316626947677
-0.01962827787434433
-0.00131724139151498
-0.035851024453983145
-0.04156607284095988
0.002035983911278354
0.012178021722546874
-0.0348940173636378
-0.027088355142487888
-0.0020653809346501376
0.020458368006672556
-0.01570149062596104
0.0014003153564841452
0.00422537885904127
0.021159404803325062
0.011181087171746018
0.012167600399657315
0.0276179531386359
0.05095250733253485
-0.04535855010631272
0.0015412065830465156
-0.02267999696779878
-0.056805925332007665
0.002936778250081717
0.007701917361096804
0.0030557587635260583
-0.0011069647934408866
0.0007882461521611232
0.00829944590518276
-0.033687017886965084
-0.1595869906888668
-0.02313900027951167
-0.022830091273424464
-0.008682874869422224
0.11932147842719115
-0.015014765205758958
-0.0572095537602351
0.0026010788275796556
0.010987099823355608
0.0241808450236798
-0.014585472543070046
0.0032322078176096605
0.0038109802446816103
-0.012292442920707457
0.01739303823442325
0.015301334628470383
0.0017097022242561898
0.025343145222612034
0.013787764662522546
0.06292077545086579
0.0595367521490138
-0.00805223512960905
-0.0236543025953352
0.02552762499415625
0.03274154301233974
0.017293806121048073
-0.009322540704099791
0.01549849156589199
0.00550904592196372
0.013977242182209177
-0.13324934086977658
-0.08348024204562145
0.020327267955006043
-0.0585036497996327
-0.07919313733603012
0.009172430834811895
0.004309887042791649
0.11972255954432857
0.0335882917440752
0.00942798249060813
-0.0004423311826752606
-0.005112772978896151
0.021254410765822723
0.04326853716937925
0.018404383952847155
-0.027043389751070228
0.009239289119679249
0.04233698289080029
-0.03045736339169335
-0.0481563153483481
-0.00624654675982933
0.00012710687021630615
0.00870952786789793
0.055246856173011324
0.03964749585622705
0.007079701742739754
0.002855487057055144
-0.035820298738397566
-0.0677736992890588
-0.07360389715631278
0.03849017309595521
0.007586769541596946
-0.004209023967578598
-0.024216844935936937
0.011749982844772501
0.02084111345759409
0.045518503934528345
0.03632769268445216
0.0034973385381638386
-0.0024778026199510483
-0.01592193257152094
-0.015177807269262355
-0.035326809711923306
-0.01755488464391547
0.004323105230906396
-0.019776653728238218
0.004240658584525381
0.021169560149793508
0.03359665249490802
0.0038040286996895304
-0.003185473772233603
-0.012149632510569006
-0.02625872349384864
-0.051115766539658644
0.04525444818126107
0.011854288829796103
-0.11665157668523084
0.024641089599359196
0.03944144155167355
0.011219798511233484
-0.000470243129477239
-0.010757067321135344
0.03410976613925882
-0.044334318436137624
-0.00995242612996716
0.003517038387409118
0.03429026893495885
0.012146733704265876
-0.009967219562518365
-0.037654219536900964
0.05889968525331999
0.11238121798324294
-0.00024613621451330354
0.013710020492569011
0.04530206005098065
0.05225943760498118
-0.019033642484591762
0.025582377534019783
-0.1947856838588946
-0.08822434783958807
0.01927406786877225
-0.011965623711378657
0.01105518280985416
-0.018924195587520284
0.007393787726412775
0.004917549629813138
0.003600128356570296
-0.01106478516544077
-0.0371951802070541
0.025066369774428658
0.01418149508562856
-0.002652886896765114
-0.0006823632735418486
-0.02338516597534697
-0.014882306592798282
0.015292235027037226
0.013966118094169018
-0.03388521928221926
0.016086641034137945
0.02460569245218113
-0.025925035323454915
0.009268233955033602
0.023779123792699964
0.025495814243656666
0.020799725002254205
0.029809662153235873
-0.0033319099950771683
-0.015756254281615714
0.02447265290298589
0.007949884946659302
0.0038375616388281117
0.03246227828868895
0.02185274882681978
-0.029444400759739742
0.0037259714862970354
-0.03415346406083628
0.06649655860257582
0.01015442803981688
-0.023223915239461334
-0.043745580785872734
-0.002165720567480873
0.057449893202791306
0.009309062683048541
-0.009397145835313992
-0.018818938100223236
-0.00617271749949409
0.039563849858369256
0.009244816226444606
-0.05242529741805653
0.012366515948750231
-0.014645995633114396
-0.016488181021122296
-0.009179167245583951
-0.002347416527744877
0.0058236894200964515
-0.03926883208602972
-0.02263582178735033
-0.01823080014485916
0.03323452328386235
0.01638126621676882
-0.0186234660939296
-0.03475269199559782
-0.028190787929395084
0.022163120404113203
-0.034604118849828135
-0.06938072503690265
0.027111561771863895
-0.03300076557470357
0.006502726474642212
0.05045675468681657
-0.005809176303848096
-0.05742765119644917
0.01878546076640096
0.09064101161410461
-0.0022802214142415888
0.002094868298286367
0.012168452101833515
0.01956426397643378
-0.02519518581399923
-0.0029467374731243228
-0.00294397957551471
0.03354443717432168
0.005040248069092888
0.041512640204819706
-0.008538808471596994
-0.008290568849022639
0.011075450885344994
0.01684514316559694
0.004620092806012446
-0.01092322659296486
0.01795989285853129
0.030898357666154074
-0.01495651757317163
0.035934728235460005
-0.005064515527306184
-0.025615933699801283
-0.026525619465872948
0.0130762827294172
0.01658670751490344
-0.01893450712321314
-0.012264201523588224
0.03574484903322737
0.05021764004104395
-0.05750384870233461
-0.0349663128553321
0.0016722985970039005
-0.018799153060405836
-0.04333588634294323
0.04646819510738532
0.015455586340088546
-0.012621331972637992
-0.012922555166829264
-0.00044899665086476303
-0.006801457939512306
-0.03480254598004252
-0.04815705927089243
-9.086564680441403e-05
-0.004024427008354494
-0.011692521174242344
-0.00887863743502019
-0.011126261831099658
0.013252106100125996
0.05663389394428285
0.02272504621691643
-0.09078676799472947
-0.02134870636736652
0.02634699306267424
-0.009606470780312045
-0.017356560553047653
0.014346786909902761
-0.003039507865011309
0.049597437910680185
-0.013249921717709634
0.11995527758337701
0.10020931886154558
0.010956576269458838
0.022282539761222984
0.0678519861649871
0.012212879033538755
-0.008318528476243345
-0.013344918945389089
-0.052102310772058805
-0.019161764567545047
-0.048146710365084416
0.022761793212132446
0.045975099916435204
-0.1539295541027152
-0.10484158676518526
0.029855590648074984
0.03576906760356332
0.04588867192737463
-0.01324482937528153
0.06687859895281115
0.041628310700510415
0.008875795977533034
-0.0064930531110237895
0.040509388127386456
-0.08868651093506995
-0.021259498438128615
-0.007032849642435535
0.01936927483276164
-0.06220868917766045
-0.07080270892224565
0.04230545412666963
-0.011775372510801766
0.006189218986537304
0.006402449334696628
-0.004753793333925449
-0.04578928160944223
-0.025108690783917437
-0.012565521628328961
0.04832037994287764
0.004343813039814326
0.030814254936676704
0.014638489971240457
-0.007984741884515529
-0.01795178134120729
-0.03707780292534165
0.005314369619975357
-0.01854299177851225
-0.009792981101569688
-0.022546221955431014
-0.017492084519291677
0.006540725098403625
0.0193187309742923
0.06300006155288816
-0.00875813849177111
0.0010709041224048496
0.018159716259676308
0.004629198134461065
-0.021495661080893617
-0.015998856217318135
-0.027134510215561923
0.015355086259966795
0.023913224711124514
-0.018092708788209573
-0.013022665442642297
-0.0007515908234251116
-0.0341795539117378
0.00074235029105692
-0.03179056207324143
0.0815057926637819
0.1263532140216429
-0.01916668696208976
-0.06594733953288014
-0.04340996994279998
-0.0025808591759426255
0.009256445634253842
0.013143034704559884
-0.005647981854522249
0.05395185102198998
-0.005159271776940904
0.024035363853931863
0.019193254351260115
-0.013012435258052088
-0.03696230120415148
0.040637143653078966
-0.020634352306136774
-0.03136047146566089
-0.011917668742343875
-0.05161932690286726
-0.023878106159213482
-0.009600922059069927
0.029039972482646042
0.006316496657944554
0.06748907320627862
0.13951752913945498
0.038306092625264264
0.015750818823798873
-0.01352103041559991
0.021544436980688954
0.02785942672705469
0.024256282826695674
0.00495112569816156
0.0006636838792397427
0.03391310729634689
-0.02885539041163763
-0.003503837007354603
-0.02680103268488247
-0.0012838942491187888
-0.17790442460661104
-0.14424906202869947
0.06123634669640956
-0.018194675041124198
0.00426868864460985
-0.007900002351479453
0.002817630265128937
0.017610871754960275
0.026514409613628893
-0.0031687037059745416
0.014313945961026305
0.003120137093501444
0.01068079582082628
-0.023491248210101647
0.0036582720987077596
-0.002436157776553739
-0.017607796840388327
0.018723560916883077
0.04125040470586052
-0.012467744773149974
0.00779375340973734
0.023020651993785567
-0.008551849278903133
-0.010369445928858105
0.0028253249243275222
-0.01242448932359112
0.034894660923791475
0.05112202335368272
-0.007776763379888869
-0.03364217365716888
-0.008754589200729215
-0.035374235186212674
0.020465711255026935
0.021481506519048857
5.488957560362024e-05
0.02956993501595887
0.021989113133723603
-0.011909349058306337
-0.016672531585871685
-0.01380449325042376
0.008346909885778749
0.025114680087265435
-0.0045334572093686555
-0.018328647005891978
-0.03588573878025303
-0.1406700848041641
-0.004744712072417013
-0.0026519572027033857
0.000472312148897408
0.01896927750599605
-0.0020791827614079147
0.019415089398889925
0.02217417326233358
0.03385999337228115
0.02970476811373595
-0.0035530195220741267
0.05032746049175316
-0.060889137380617575
0.016999079572014887
0.012553099020672915
-0.023473876790184697
0.015070165031858544
0.0023136562093655005
-0.13915328823286735
0.05854403616695479
0.02115827029223968
0.03250282111081225
0.03189972378195276
0.007684981806071606
0.015408599785808287
-0.009204476682806651
0.0072565773343509984
-0.04384518916029664
-0.03866837376059142
0.01815413156758704
0.04681705506046298
-0.13852018357904156
-0.03243777331329361
0.02753546578435342
0.007598768139075613
0.018081124974930425
-0.04067900512635434
-0.016981384757853994
0.05990632223574438
0.13116691370290326
-0.005773705283121878
0.06347706290201355
0.04965811654883047
0.016714391280173883
-0.011113965874290392
-0.14661914204723098
-0.03853743986953666
0.03114614622402987
0.04889362538929196
0.044648073875210526
0.02580155025489397
-0.013997086562840474
0.02527124761886402
0.01855130290765524
-0.0058872809007749155
-0.0038185589734098264
-0.004526213039087122
0.022942061483030532
-0.02359867822568461
0.02790526512515237
-0.1450038008717961
-0.17485768529478057
-0.011505351636747943
-0.016059283691667012
-0.02353614662888587
0.007281887306689896
0.14624317461418937
0.029147748043453478
-0.0017214292470711344
-0.015025867462202474
-0.027229153274763426
-0.004369141958214872
-0.0051819369885808255
-0.015881060260204624
-0.005064032334313794
0.047018546207177575
-0.006223464117557631
0.0004101751040907155
-0.006609471739219193
0.017625426467296552
0.010931487425628163
0.021136273300047498
-0.01910704517241293
0.0193488169450748
0.11123886178055316
0.0036633267779639126
-0.00337609547581988
-0.02864267178512862
-0.02199862938492337
0.009966060703309363
-0.005086103607870182
-0.016254833498890068
-0.00880555822556166
-0.004028571584437358
-0.01011330742647257
0.009373205251067582
-0.04685718251681398
-0.20101028608249144
0.0036111560112474243
0.022013017514835063
-0.01347799800503437
0.1522081364546612
0.05101357218277189
-0.013231452099831351
-0.0013594667103317643
0.001159814113920529
0.028664359670004906
-0.007282952734842419
0.007498430153275244
-0.009875127813408331
0.02124073023115411
-0.015122509254501247
-0.03845716339584124
0.041690289206329036
-0.013309267350094557
0.00247135420716
0.021094817202007815
0.0006992031325688328
-0.0003838227700845068
-0.010455322715954899
0.04593748456892989
0.01566031327205199
0.002597308905579036
-0.02825967504327485
-0.05720884907684692
0.009968654893758184
0.006037606549940463
-0.003259233540857886
0.08266932677343675
0.05512141771309606
-0.06893105443725864
-0.05783353900203468
0.0052628291779446305
0.020199224897502813
0.02655206805485282
0.04083932505942865
-0.002960367030453545
-0.030125929533542716
-0.0497775884100298
-0.01665668246863363
0.009984565284893615
-0.0006958955675094088
0.018174088068241896
0.0461310492212971
-0.06750109527090732
-0.04564786373396022
0.015290605069310102
-0.019267626245292446
-0.013925494542377757
-0.008791429035582032
0.0316509537474404
0.020017102942956506
-0.01167661569298913
0.012485684555886131
0.01330881414468341
0.01665232477094846
-0.0027847686263518336
0.024154815799316588
-0.02022571783160877
0.0386462541567997
-0.0033876868246696243
-0.023778547088072984
0.02437257056225787
-0.00781396473400941
-0.003935699841807787
0.010740615842778405
-0.024899231540549672
-0.0004958394845412179
0.007579878350343524
0.01250692303802326
0.021607304452194144
-0.013496514374725975
0.0025770453499129155
0.009188602451434302
-0.029670102599494357
-0.01604082849902516
0.0029016961264908144
0.016511152547077225
-0.02473175243820146
-0.01851660914602277
0.02651161114210531
0.014412283262929995
-0.05816365202318114
0.011654034529260908
0.017248284301690897
-0.013500362668789387
-0.01915717235851001
-0.006704924719242855
-0.021473956892506467
0.010511104072556812
-0.014868265526731905
-0.00783812912901817
-0.0010714975156797136
0.01587619892220901
0.025745686602708134
0.006120537522214659
-0.05196238149735615
0.028651267722067265
0.09426799261575228
-0.04141549341790411
-0.01857529794778353
-0.027866010012118872
0.025114422667558114
-0.01067826769460932
-0.003831015970399216
0.04577032790391615
0.03728388586815384
-0.03421579919636462
-0.02839111410572271
0.015878405144369608
-0.0008266189986718132
0.009600364503139853
-0.05236441661944306
0.055433553443636256
0.051082977058162435
-0.06782378379049589
-0.006115322358600075
0.0204408619920109
-0.036784005158772816
-0.06558484274300583
-0.021217673705410684
0.012283550817263164
0.004897930764802735
0.008897521856215264
0.013888515465123843
-0.00016996488766991743
0.009908483598906722
0.028318686005221645
0.02773897310166165
1.8024291775194238e-05
-0.01635778182665909
0.036987142527763764
0.03232345097223612
-0.00732465919550315
-0.02350722604352094
-0.03338587668361552
0.0034137014196253318
0.05343977400819507
0.018700761507227014
-0.01294166610580585
-0.018985632605247136
-0.03817298280964143
0.008426243586153192
0.048228914434086646
-0.024713468931955872
-0.02513529051736454
-0.06409542356069164
-0.031597214922329274
0.06449022047585823
0.013951949372027402
0.006719188608182044
-0.0036779597845530763
0.019903572383438053
0.011115948245291114
0.02711241122532033
-0.005437269125714557
-0.04701409914939903
0.01437737934003764
0.07550578022501025
0.0015879707394062938
-0.01423876622391714
0.02290887309847113
-0.01783977601892935
-0.030373397990377665
0.027238857863037497
-0.07420736394844506
-0.02610668662060075
0.014149683745809409
0.0665863488907657
0.05003861911040381
-0.008052330804815893
0.0070087248536462995
-0.02207921357494521
-0.027818196916074532
-0.06551961368892233
-0.06361497765777123
-0.013733231753742754
0.026243581663681854
0.10232096615983188
-0.06201422479020908
-0.08855165382766335
0.04208406484338744
0.02926615690132895
-0.027327257604086018
-0.03470734668041041
0.030167646763060853
0.0911708784195852
0.023563675234554788
-0.021410739372838942
0.009886249613064417
-0.007091123112246098
0.01895866544030671
-0.008032093713395297
-0.0020536251659550074
0.011667145663538948
0.029803338748462322
0.0023183661906554234
-0.03512617343639257
0.014572299233949253
-0.049124452532848695
-0.061322083708500105
0.027799404340797255
0.004052776656676338
0.012012024831661876
-0.02343022168315111
0.02635987552121681
0.10567443758787702
-0.03515190606373811
-0.1108599565123016
0.030387276337054885
-0.005501025223553699
0.003761867516170062
0.012183485889940292
0.028345457231616914
0.007489436342466849
0.035191789244132264
-0.06732370812529313
0.06066775054816256
-0.017079465164189865
-0.04546252500783604
-0.04241920841977005
0.01644206883835415
0.017828213443141297
-0.009690597628098385
-0.017402836216216
-0.005436385228345607
-0.004267652208721871
-0.02248987729062426
-0.009316193284873537
-0.007060919930644675
-0.03379375777931882
-0.005500979345395364
-0.0691525042081798
0.03026823507897107
0.01627439768026717
0.040402901774842764
-0.0157277224071868
0.09164898655789655
0.021277243658418803
0.013604635753184494
0.03687391011422927
-0.04538887299889707
0.01704533483934713
-0.021993759453937566
-0.01545165141507954
-0.03617863953675336
-0.008547515264000409
-0.028679224388938954
0.04998461914852543
0.009741954755326899
0.009208286696144503
0.01572182369667542
0.00035908789527730554
-0.0343870814671337
0.006472403424610173
-5.087525347573848e-05
0.07434771620094632
0.14370699145889895
-0.020943781722548398
0.006535563059785293
0.01658030226177235
-0.01614765305479315
-0.026913511415180287
0.004384113798303537
-0.010889221226332797
0.008079417604961453
0.02226783483379594
-0.006383500544286752
-0.005765259374789061
-0.0078091597200336755
-0.0060989717898153615
-0.019330969626897638
-0.022413259108140154
0.0015965012669836376
-0.01913503655081449
-0.00965855778404216
-0.013416960559319773
0.04149768564106678
-0.0421348447052184
0.007523838901120342
-0.024773130307428587
-0.016197314036848362
-0.026774548275739895
-0.024209717697295505
-0.03650430529180771
-0.09370066648428216
0.052330072039907895
0.034408623888587196
0.006126791708471023
-0.015561905285979772
-0.04727158480337484
0.011061951872279747
0.022497702446582765
-0.05314945385154159
0.05538670696464869
0.03277208772035248
0.08033232784692632
0.11077158886493356
-0.012209275249785769
-0.019862569967774947
0.03120890196255071
0.02175992278352688
-0.013527303943129287
-0.005156445398556592
0.04034816518790845
0.044364288908044607
0.025785688437153873
0.024593185795206772
0.0489883057618143
-0.2504252757956521
-0.10213925097834328
0.024192742596534807
-0.01325713034978729
-0.017683142560960527
-0.010536341981636084
-0.025586572712287453
-0.012436025544271279
-0.02238512609340812
-0.07394572434631946
-0.02266987552505797
0.03594675300144366
0.058797580685779754
-0.010453247811804569
0.005129511859551219
-0.005828858487722351
-0.0046020772219091
-0.02728399739183881
0.007656957835750101
0.0008937156621416445
0.009058804363893561
0.022304064175588147
-0.022666643761793646
-0.007270771185739815
0.025558617948673874
-0.014360271851846873
-0.013721485367476182
-0.07108196924291642
0.024764206216047923
0.06774451931408092
0.02225461245800048
0.035851386276237074
-0.019277138819138586
-0.008497787570267487
0.019431034562570535
0.0010840826177297236
0.03203740685873968
0.11949917363073788
-0.008915810562496133
-0.01286567951863096
0.001126857686247261
-0.0299057315868252
-0.00882942553054476
0.0777392234202653
0.02847357440347509
-0.03963978459661639
-0.030103207302110285
0.07452922505607135
0.09475392052489848
-0.048184189256984464
0.033053632257489175
-0.01090215686550772
0.011726903198601016
0.018602671347171643
0.0266734945602045
-0.013110165200359751
-0.05157728860962391
-0.051283633215276715
-0.02123992354058007
-0.010359160950394195
0.0022135352498866283
0.005431525894209061
0.04313708558418474
0.005935266216993806
0.004350453736746018
-0.018432186272454795
0.03453311202534041
-0.013620346918062312
-0.03282924718321325
-0.11223457271838332
-0.06495658503170351
-0.005396190078598654
0.01920276452563046
-0.004612144373943955
-0.007649411766143476
-0.023346697205761525
0.03340016923071937
0.026208559980389984
-0.009255278147505045
0.11487358949282327
0.03166976937833762
0.008827626105142589
-0.027464445395433284
-0.15958291721256074
-0.0014045090258704843
0.0077846029635457925
-0.005486881151827538
-0.005671938328463462
0.008719916246148715
0.04646544037996415
-0.019354324977684963
-0.055253314774359207
0.04050703994887521
0.042118237836593415
0.00977166849516789
-0.02772127341858817
-0.01799647496126131
-7.293088262356479e-05
0.06650880138941233
0.033675285261832465
-0.013197443554835136
-0.1005222634574585
0.003662322612603486
-0.0043302556553495705
0.03070067171718572
0.0020797099230527244
-0.03273227649474524
-0.026279756385363572
-0.01892214551988058
-0.03316622569372199
-0.003502722673872469
-0.009111802040881006
-0.0008148862160616466
-0.04261974367374617
0.00525662601728462
0.11430441285144623
0.004720946045697338
0.02066976082284746
0.03819516775788985
-0.03425978920607749
0.006425403214732607
-0.024245360708562234
0.021815265120542767
-0.012439654686233344
-0.0021515217962302323
-0.004928361769596664
0.021240732692200556
-0.0005131127888887241
0.002953072779170041
0.0187871945430108
-0.003181491979110295
-0.02884676897323235
0.02139888997875833
0.09862853642483191
0.034402960495172
-0.08654513014070848
0.10594497256310575
0.11491965671641033
-0.035589519832889945
-0.17037643804669989
-0.078331613887104
0.015189321913660469
-0.050188778324214915
-0.02047278080030907
0.0031860190091543804
-0.022783362511637296
0.03264500007129637
0.12482644313501569
-0.028444584327913452
0.017010628197567594
-0.012904664686847166
0.010281486837717835
-0.021353543098471886
0.017251932882028694
0.0018899170955310296
0.01862686473384058
-0.02618389240604507
0.014938413969694827
0.02252287966498665
0.013346725128033454
-0.012789897525074222
-0.009303856431827873
-0.05014169195367735
-0.011008526206360312
-0.03579114387956188
-0.004196118958385273
-0.017640070675952666
-0.0160652009479087
0.012650704557936055
0.007173989359596893
0.02404774717829094
0.010232059419967509
0.001548729240768128
-0.020989181453922034
-0.020125551747076725
-0.02094803183155252
-0.0003230054049190074
-0.052427959781645286
-0.005249463001887769
0.1927066625647343
0.057528627435611476
0.01388480929743182
0.015125856707648181
-0.015071669112725089
0.011365470400772093
-0.0013693416584417797
-0.042353963153925776
-0.06695104174471135
0.005716445013606989
-0.006885635503637346
0.0007107229505836963
0.0010135559192739837
0.005760900534318723
-0.015420769288701884
-0.004394539419100575
-0.028507356428722975
-0.014880929445606933
-0.05330218344564413
-0.038170885014211654
0.05649581005894905
0.006967639159896657
0.019446267712188655
-0.02151219279752349
-0.02837927780469817
-0.04005249640827503
0.05729448480282919
0.017333774114142726
0.04156306515945941
0.007647180421741693
0.004738788458682529
0.038981939963008715
0.00023457197565667125
0.02604151751472703
-0.0286459049392123
0.0656323587935204
0.0916583965236865
0.013813671169670657
-0.013796701112634127
-0.014954145140236479
-0.0023022203875069833
0.01366852499151956
-0.015850575771129125
-0.02713060318766984
-0.009946730911406135
0.05064459917874046
-0.18299529801729325
-0.09339549298714377
0.052884757180609525
0.024763303032495534
0.0379569446198191
0.02854007438394673
0.05200661947329141
0.030744935430723253
-0.10454671604931513
-0.04266084641734035
0.030914589774565522
0.00885657231884621
0.03809537734242249
-0.01484661745138652
-0.005578922687597128
-0.02100315504372239
-0.055283719709895734
-0.02362947079276351
0.0019560526992115114
0.028747150667954628
0.00285596270288503
-0.027417143869993138
-0.002285795119376862
-0.021762804557547442
0.01590432509782274
-0.0019278319780302619
0.023349911476366652
0.008773647521956696
-0.00566523359269458
-0.014998290400937782
0.009536764480929227
-0.0237442056396568
-0.01544644941855807
-0.0328773962004211
0.018788954363021335
0.013368259581963138
0.008365517454973142
0.032787650507285174
-0.07093353978860586
0.02493566001840889
0.07226603757323717
-0.019337978538109004
-0.013521241644606158
-0.004231541194324869
0.025573159967738634
-0.0021165028746745786
-0.006483103870499241
-0.0176472220592677
0.008586314524495833
0.0021867532343085015
0.0058336639742159425
-0.030000789218945365
0.004679330859856378
0.00999371286042825
-0.004775342437542537
0.02005968300707949
0.0553789174812055
0.007380925639719159
-0.02580876593512697
-0.04791421161848155
-0.00808773502099228
0.021524740433692388
0.030479784774315847
-0.001321445989429615
0.039774101892272415
0.03750805579769714
-0.024451676018987303
-0.052370165671835174
0.0456633075533906
0.05083590473477004
0.007180809635496579
0.018413936506185797
0.024466905528581166
-0.0785197492681671
-0.0275485821985474
0.014441824426159799
0.045620412461010694
0.002205255455288577
0.0027369700265715193
-0.048543640743225716
0.011086680038006762
-0.016567164545091034
-0.04361878385235479
0.03471769663772932
0.009751019239610614
-0.009188505797593257
-0.004467874654687126
-0.029167290848977005
0.027417684631552443
-0.09872537307281024
-0.050775862479226726
0.009423722134065705
0.010068730533079374
0.028439565040385667
0.0011186129003199236
-0.040411458280418436
0.033956685122293315
0.07193024572215041
0.026919024279198445
0.021118304459077017
-0.0032309494363976206
0.007085049090980075
-0.02310462972239524
-0.03191020141947093
-0.06991966090210858
-0.022416480068362447
-0.004641679960507937
-0.019304809356987484
-0.006748792868649185
-0.04541550494942984
0.009115687131530886
-0.010051623594920537
0.004413616189451469
0.03325069387022026
0.105162159722724
0.03593603837200885
0.09474369618703446
0.08863277014119861
-0.13681361642377413
0.033034922565393525
-0.005769621102517433
0.03633685696677831
0.037817573330445345
0.013200249897955298
-0.01206125795424985
0.022781401916710586
-0.019035877607726393
-0.0044299297764515645
-0.01772057317285274
0.004662532594572883
-0.024683800743162707
-0.023160406894519137
-0.04501153685968509
-0.013934443518106748
-0.011228379651458098
-0.01079440861863735
-0.03896253885315286
-0.02571282976153527
-0.005111252643206969
-0.022352106559706864
0.032292956803566905
0.021569368026921765
-0.03479350150456442
-0.021854741407708447
0.013180452075870153
-0.02156878550755292
0.02551502677678086
0.046684596261826396
-0.020682550625197294
0.017497284906053488
0.00452836404042894
0.007290394010625973
-0.014179378534186746
0.005429341838989475
-0.0007979731658623953
-0.015349587099010385
-0.018414538623939027
-0.028948590511047926
-0.03003011077333642
-0.003746688588859415
-0.038030959201842705
0.07123573226729492
0.057100853729593136
0.022063316241255505
0.002078499310040506
0.035726386138068764
-0.024540419418320053
0.006918757159074175
0.02441213114015822
-0.0028967558012584433
-0.060107111017318894
0.006183450104632782
0.03466583396062735
0.02049272766976351
-0.024242575612858867
0.015156175856792081
0.025320473536357326
0.024237397476188888
0.004727258658954154
-0.01761709997013724
0.012859149770646254
0.019443301668444955
-0.030695708335817418
0.014833685589261705
-0.014715856095917423
-0.0008991566154466069
-0.011219829370924738
-0.019142978131517153
0.00916723182793836
0.06939509136033895
0.004331416334396802
-0.009668700033755567
0.040139143665702606
-0.18554934406738596
-0.08016710312973789
0.04206332835581932
-0.045535246112770385
0.0043141712236037305
-0.008956050315328564
0.020748100811383587
-0.02010341796347557
0.0552836435960071
0.04715884308547818
0.02198409787628681
0.05803922762262705
0.017292530749855445
0.0028898892123398884
-0.018119383875530817
0.022001562886290432
0.005390367485526782
-0.023206745486659658
0.003476096455840305
0.008326942585957847
-0.0020631929342545367
-0.033032807754375
-0.009485213466816645
0.04142706547590162
0.015476002808449693
-0.025157681988909355
0.01514183757932132
-0.04711302762526453
-0.03913769741772046
0.0037535878384710735
-0.013599135481026212
-0.024362140321754665
0.027777857860663068
0.04449080297750181
-0.012411227427161234
-0.05503842466755388
0.05093076364877086
0.022195445607432036
-0.01729895289215824
-0.011746309982906138
-0.010241470178630757
-0.01094203939982651
-0.008594495740565495
-0.07175346618941714
-0.06667675897801215
-0.05015619987411289
0.010749588783365509
0.10392072503055783
0.03708085007543174
0.006464131683763504
-0.03476784128050706
-0.049708280419228555
-0.004346795957763642
-0.06347518909623584
0.10834566735847814
0.10136040749408577
0.019372395239176065
0.03976395339263812
0.016106297503614062
-0.022413171336847563
-0.02733237694060725
-0.00869859625291779
0.0016083181581698467
0.0013781869896391263
-0.013658627200439082
-0.038134167005517014
-0.012905197729893738
-0.027892294472158966
-0.02028719593890463
-0.03247010474805622
0.12919608090955095
0.02591140753316505
-0.06562165964527354
0.03842858519642409
-0.06547127640412019
0.030152648804676246
0.01593469203262729
-0.005276212994339536
0.013410343112059022
-0.08341158242015133
-0.004722257381658281
-0.012000970469436977
0.008350098586439656
0.12617733422581814
-0.0024024412853838736
-0.012295398753784676
-0.04450549311089427
-0.014186723002149286
0.03164084824497131
-0.006955251665842394
-0.008642014991002629
0.009975701129281042
0.0595752752285542
-0.017947255669903624
0.005570371665116616
0.10309117012545628
-0.0364411169415775
-0.002190467219528533
-0.02692375589661377
0.017970926507730883
-0.04565770549867736
0.007065152216089461
0.01372074175589201
-0.03107762345443695
0.0014891241954847144
0.018039736191292448
0.022750253881957748
0.0072533110040249
-0.052537618356415794
-0.030775308822848936
-0.043731193167391776
0.0005730450826100254
-0.03614546089318945
0.0017936474747061687
0.010347877635433005
-0.013601523243466234
-0.02572301983869152
0.1240237671310698
0.0381748304640674
0.019537816535897812
0.0606083211606985
-0.0026749544286184136
-0.01736411016852577
0.04017050686989277
0.00924207516096316
-0.01869426715558411
0.16874191895442836
0.007392389701329946
-0.03355896053303245
-0.0932387263143484
-0.14216682476968745
-0.11431182729475976
0.014142051834714219
-0.11263888547739836
0.061408329249145535
0.07011415652404616
-0.019447965312259157
-0.01724224032868695
0.007434601471372685
0.0050524857232298465
-0.020642818049771503
-0.011687315106574298
0.0032769219723323127
-0.009055101669231532
0.0009620318096816397
-0.02033339919968438
0.013838419488426252
-0.025439696778683674
