0
-0.12098497910785179
-0.18140374936748044
-0.130044502769094
0.1869960581963672
0.02532565991843797
0.019613647928554696
-0.015005323997632776
0.040052016512655324
-0.0011081429931498411
0.03758831960931528
-0.0132825611634678
-0.06113741751210743
-0.058719701020242654
-0.17558904704265138
0.04309363060932924
-0.010124285564368915
0.019837320167823965
0.07007721324908892
-0.015591000067456732
-0.011651775191170671
0.03326070854997536
0.0748325092974915
0.01223909633505555
-0.00404496510824447
-0.026129573364244818
-0.008908369699400039
0.0049897214902042755
-0.0542798896661488
-0.07907080606423832
-0.015315707742341988
0.008718034732906704
0.033007654964703134
-0.02535184892919918
0.01740099389849243
-0.01835660965504568
-0.019948540027792023
0.08575730354873821
-0.007627242890608682
-0.04979974268334759
-0.03927376678311795
-0.022647737947207636
0.015038693286388948
0.006476175433184859
-0.07162330937696447
0.14920588654158495
0.09601647889116101
0.027405971169383498
0.16520479095962257
-0.043468544215578435
-0.047973045080712096
0.07868727403394622
0.03877671545627881
-0.05308828052692705
-0.0024773690369486985
0.01096533671901848
0.0708179920802553
0.039418552598303874
0.013628213603715498
-0.04845957001061601
0.009268207849804084
-0.04597478601075917
-0.005705936868719692
0.0018545792673137832
0.05123015193994117
0.013926553342789262
0.006612362427145692
-0.0018138262593790707
-0.02089863673332581
-0.0037758586107571805
0.054136829798103005
0.0034303010435724995
-0.043264617524189156
-0.027511000343390633
-0.0025391301988794534
-0.058114066427634885
-0.030747594402568915
-0.026785515943067374
-0.011955913511284326
-0.0163962196571072
0.013106290476157448
-0.02349370300569226
0.03731574999362866
-0.011344209453567478
0.007290497773082403
0.019252297211279593
-0.004098912076965279
-0.03644816056869941
-0.01097763650319374
0.028821571568788625
0.04162213945757052
-0.025653809257671356
0.050483403532992605
-0.10790115239380488
-0.08982055253091133
0.01597846282249417
-0.047043653328822106
0.03235724163386113
0.002956267399631323
0.010239946326540246
-0.008671958967584855
-0.04322565113944776
0.018979524462436215
0.014616026276686003
-0.013063266113782418
0.04236547651015017
-0.007984898304366874
-0.05662250270550465
0.02831283249078694
0.036230273562135006
-0.04718778175746375
0.00632775538500413
0.05904942243275427
-0.010784121509337947
-0.03646606831060548
-0.021654659577241622
-0.018410347333245564
0.011208045121017963
0.08374799975061299
-0.003727654780600811
-0.0019512155217098525
0.014936012779645768
-0.04060400039596798
-0.003689910427378556
0.022418971805271033
-0.02527029345547693
-0.01413941874114433
-0.00965720309998454
0.037077053605915324
0.0786237065438878
0.03264593562819242
0.08574835961810506
0.036788749573305295
-0.03272473823730148
-0.0246553737103733
-0.01192641835289943
0.022861242073266716
-0.003478124182877937
-0.03559861066890769
-0.03087593842561863
0.030001142691923843
0.027512151747650995
-0.041937225992718936
0.01159627169787578
-0.06184082419757817
-0.011244563930353401
-0.005475656459416536
-0.02835361809775956
-0.05200072822555047
-0.026345428815037382
-0.026740141927100093
-0.07321502843618982
0.0995630703321245
0.0971050146404978
-0.0237800569228255
-0.003508043800378615
-0.019785837914007644
0.04093039843551013
0.08710418053402699
-0.04120229311216165
-0.0025731014709910365
0.015947087690593578
-0.0029633470859066827
-0.023688347325181595
0.016825886683590568
0.07942058084702218
-0.023673882406623586
-0.02541683130982587
-0.02065639237762331
-0.01681929496505479
0.00866089475298217
0.03828762344533363
0.007466054732871529
0.00396962478903092
0.039662111480985314
-0.0037704736268002093
-0.19237082426682942
-0.006890107762142174
0.05186773148955928
0.024940640358189145
-0.025690263432322318
0.019541653210915402
-0.0025999004021381106
0.0054945382029186725
0.07087681226962472
0.01582133048423937
-0.0052596598713335425
-0.001388062076749519
0.0034337200913051487
0.004618426171594931
0.011918762135581337
0.011353576989116635
0.011206012438946401
0.01910706955197044
-0.03472641875513856
-0.00044180897580910916
-0.048619149237171005
-0.03129958881743485
0.009218195611443408
-0.015228119447230952
0.03397391713276581
-0.09834481229997385
-0.07514783144858851
0.049370174861717304
0.016746317501793773
0.06070122295721702
-0.020871855976722947
0.001192776482132852
-0.012169577383071218
0.020039688518826978
-0.020181196523528497
-0.1565269232725446
-0.003065444730535991
0.010723761906245948
0.008086069731119968
0.0016827645432096509
0.0007558055976579124
0.003704682096361526
-0.004062724471843034
-0.0024881832358489477
0.03708347456390048
0.04186031859744981
0.0660028867201241
0.06944832352128043
-0.027997612533557308
0.0010928856987421792
0.03855304626607151
0.01379789851029996
-0.010461572300862181
-0.00021462126855451163
-0.006901863813868286
0.005604614217099934
0.03350070942178096
0.009314957866753022
-0.027817776877865772
0.03788323393000123
0.017615138340443152
-0.01131291896492311
-0.1202096109142648
-0.03586796353223821
0.037432019864605884
0.007465755429909952
-0.0063144485186205305
0.010541450620552112
0.015378234054119653
-0.008016075485470097
-0.017250801085771286
0.014475806252680398
0.004059160862559143
0.0029059852700408016
-0.022161252909474752
-0.010771047468691246
0.02859198152664625
0.037101403117958905
-0.025874950371027904
0.030673654343342203
-0.09616428951879274
-0.07301150045270673
-0.03557197135415143
-0.00962831227230634
0.002249342941617695
-0.011695094734109639
0.005910294025522948
0.008019768802422066
-0.010838555065981331
-0.009017941968370618
0.015212315645808936
0.06967609578430335
0.030743481980778628
0.006308696798107627
-0.0013820130440951755
-0.0077528226478010805
-0.0020685175702313
0.007319822245297471
-0.03416868281139801
0.050633509542976886
0.1575832049800118
0.0010445464927429896
-0.00471703650858569
0.01255770348099693
7.147016386771592e-05
0.0008765427646149462
0.00028941422569054307
-0.007906386523600829
-0.014623250265579008
-0.023349911421138396
-0.021944323074616277
0.0032258351628986215
0.021145051949277942
-0.012610421464251023
-0.0002276682680135142
-0.014829791129651345
0.0030051220910565775
0.0022426836633825465
-0.013267902320787981
0.0023965658707429225
0.013168626743678623
0.01829911029324149
0.0037846535190843482
-0.01086388395588751
0.0011230491693184947
-0.0080228161934211
-0.09270893855642501
-0.009748686667491105
0.028318974721129424
0.006603554939165564
0.014364174719454807
0.0138540612211334
0.009323646701181628
0.02714057305201097
0.0009275800848038764
-0.021827748575562727
-0.016393442661425204
-0.014058850777114378
-0.04498040075482919
-0.034984251533209006
-0.0005086423606315944
-0.03197116358917048
-0.00954269830449658
0.0041793373549444835
0.008687610240649695
-0.027527634417263833
-0.0007979236141895042
0.03965766903804644
0.02732838188656558
-0.0032195592594298638
0.02183184983582038
0.1268656664816379
-0.03975087906297314
-0.1187469272225634
-0.0018756097938970756
0.014650186175013876
-0.14607886638216366
0.05937651909193309
0.16252991346907697
0.007295797532678685
0.012422484056236902
-0.01315145063534336
-0.02343248004814321
0.04399791414333534
0.02433236464730957
0.00535127970098332
0.02376340556448039
-0.009120607830514648
-0.011442558225132099
-0.042316632357159524
-0.08016991233252185
-0.04354447100004753
0.004013775444578538
0.006369805784490831
-0.014486539103482611
-0.07297933800294892
-0.01814443098275264
0.07843338468019363
0.01945329628707247
0.002995539798154792
0.00011948953221352274
0.033850052863129226
0.01705241348686534
-0.0004694654932175313
0.04940561907018421
0.002214535314623507
-0.01603681819495509
-0.04988225588121471
-0.0022192392312325947
0.0297611941112158
0.05938724327519933
-0.0010811075968828541
0.03188025059487994
-0.017668776345384073
-0.021747013509938247
-0.031293387923311905
-0.03332609188254991
-0.005437719663315268
0.024545883684499604
0.04275221880119937
-0.016393631323888776
0.019827130948898177
-0.006550323561655621
0.025392725446650166
0.0033042805817482886
0.01735223878904302
0.018298270690482916
-0.01682708390779236
-0.03203969367933444
0.003400424711980518
-0.03665338581173414
-0.02754633768825022
-0.00953067108390723
0.007165877221420942
-0.004274477651589735
-0.022226603837811162
0.0053974607064057965
-0.012769441383221204
-0.005251921201746356
0.005579239425052975
0.04297344880280585
0.057960776416366405
0.023278548089697298
-0.011072103195275192
-0.046315467117107774
-0.02359610231669463
0.008684420880891875
-0.015239941979354337
0.013682360615911215
0.04648267899014232
0.0480353222452314
0.02066726536288955
-0.019439696879699354
0.01069702335913584
-0.004249423228654324
-0.05886278757999315
-0.06936218530452419
-0.057986149562267476
0.01621306559264509
0.010509972223875662
-0.0024955437215326655
-0.008430343556032671
0.05865484350031224
-0.029808710544195195
-0.015227669081351395
-0.017921713035354375
-0.013226270267288363
-0.014186021572285526
-0.02117045234389248
-0.003511446271400741
0.010154755548204194
0.04885468214229732
0.076201300036652
-0.01761402984449956
-0.027251742592913544
0.05706377974225808
0.07101565952441471
-0.14015319207631266
-0.035700028530820514
-0.010419044534890681
0.09397184204660888
0.022421006824366697
0.004703241377643538
0.011655940616156582
0.03015767970388568
0.011169275634814103
-0.0479445601213604
0.029452822167820785
-0.016009139765175477
-0.010265971695867846
0.04083988674454289
-0.01836390375738863
0.005832388917220666
0.103980565404651
-0.004353459798658408
-0.13506794005694117
-0.005003022964296729
0.023683708718638126
0.023316828155731294
-0.020860388615432972
-0.053438684564339076
0.016773058822568614
0.033813946089372396
-0.0024300680737175165
-0.0064533502176372295
-0.07416198056828088
0.02107273710736577
0.11700529899378379
-0.015360527447535894
-0.03234835816168131
-0.019025980049299118
-0.02306209392794922
-0.0009272516422426677
0.027102137907340833
-0.0033781000087594426
-0.03707906734257717
-0.04729083174614618
0.013840059568193626
0.03638937205281319
-0.0015516952451581011
-0.03136078673661127
-0.03346500376769
0.038366891654754536
0.010386805496803393
-0.05224840816281628
-0.001784456606431978
0.04051659647917128
0.05173092252580935
-0.043771449430550634
0.0015962332990131275
-0.004074634395982604
0.030635218758169613
-0.007934514376136403
-0.005068315272707153
-0.014814432449692981
-0.0024188879428984635
-0.02463820702375805
-0.06872330894426101
-0.024837472928698937
-0.014568665703620158
0.01514254682271923
0.002051055019589138
-0.016726886166235376
0.04615305869541649
0.029746801382489585
-0.006264524640389432
-0.014717752471295925
-0.04381170618389979
-0.009800534639368395
0.013714169852225542
-0.004779227363492329
0.011230209327564208
0.012559515614275842
0.012152339290028806
-0.00019158912253033455
0.061293347659750474
-0.00868438830972209
0.0730700675216172
-0.02436543355475561
-0.015908851999956133
0.22680113238870003
-0.032977447919409215
-0.009494601647779585
-0.01804199689619871
0.01732924881062947
-0.016618239582182483
0.02319252816412002
0.039057966132071034
0.025471286295539557
0.011695673798700757
0.007108234129964715
-0.0035950775934701132
0.026046170279251855
0.0054666234847894
-0.013435130765403862
-0.02864775141224792
0.040836319501755675
-0.055886619746768125
-0.21289877260582565
0.02828867543472626
-0.019027043629635417
-0.06127982111561261
-0.007875462415378147
-0.03679463199561124
-0.08278763905163142
0.006327299405657323
-0.013728225941139984
-0.036829665432644994
-0.020352344237208532
0.010516477645939232
-0.011332729512352242
0.009860530953593887
0.0027032252276635075
0.021387483322605875
0.048046559109906246
0.011943448436277686
0.02829546469837871
-0.01766103765405303
0.07277178962505204
0.006263820302536283
-0.03789460795562986
-0.0011410347011547677
-0.03803473186576257
-0.004985174998361242
-0.0013807682482681683
0.00021563641594408035
0.06558924110210156
0.06268178613202122
0.013592204379357127
0.03213071514822552
-0.04762360822906479
0.13490108483635416
0.09804028679641741
-0.057387549329325514
-0.013612812287904435
0.002102135719442217
0.03402205242431807
-0.0005367152266456299
-0.015969749733275123
-0.035605321058257366
-0.045334926545974825
-0.016875791814157708
0.01825178973180198
-0.0775194097066981
-0.051171160045425775
0.012498430561501885
-0.01439984548329691
0.03654068458810927
-0.014596715626468958
-0.015043041831797404
0.017606271875750822
-0.004708965635483606
-0.02416163561750991
0.08384861240816856
0.046044806069922374
-0.02754309247179981
-0.004717216625862468
0.037927139962697254
-0.021448618033682112
0.0017692113226040137
-0.008704417411709795
0.026850565562430637
-0.029044658878537008
-0.1761262234514089
0.006475374866692605
0.06340825298005998
0.06850664512864704
-0.0026011484471425085
-0.038853293979991446
-0.023667080331592875
0.014327649155318638
-0.0025667154649755925
0.010544056293328184
0.018897603562075968
0.008552833062426669
0.06244114732776381
-0.00829387750860403
-0.040052159330829756
0.020840714649408582
0.024819820655145486
-0.012527486985133292
0.012302279821980403
-0.0029648004578035937
-0.019300055215720813
-0.03915407024665749
0.009133713107196104
0.002382697051776688
-0.002799217003409614
-0.1376076597913823
-0.12784145415427428
0.028183309454434702
0.0895278429629789
0.0381760015676704
-0.013585640442747583
0.059989834188466276
0.022434243184070606
0.030417651497219714
-0.01809110233580868
-0.008621995820573252
0.00838308169388344
0.003145977173242943
-0.01137965418913152
0.0414969150431549
-0.06993742452743651
-0.019583311213510615
0.02021555057206814
0.01119428764373376
0.016834265914920734
-0.007688615124052174
0.016012952588436376
0.008351245385949743
-0.021971002653353135
0.014342837369124737
0.06356457904121951
-0.03151054872081493
-0.010773061457110822
-0.007310110979341094
-0.042791188828810625
0.017575517485387708
0.0009116238903565179
0.019779889341831825
-0.015530115072989894
0.03359873931841453
0.030101829920508326
0.0031006577029614804
0.0020142337268228222
-0.0479074683840735
-0.021719443635804015
0.040071128265670934
0.07673787136495283
-0.07618526763866415
0.00016145083747619673
-0.024937932636750825
0.022081817031853586
0.031245358773199738
0.0005139123103899732
-0.006083153569926924
0.021335284099560554
0.0005984705911077959
-0.0027063913826335475
0.04820745150387152
-0.004693823846495792
0.020656559079877398
-0.0331698582594372
-0.0013708776809313824
-0.002040269344777359
0.0017132645640833475
0.0055282746235037535
-0.004700388721435913
-0.05435224351448884
-0.06263472089964849
0.01387032692431672
0.038144706662761936
-0.03012326077609592
-0.0010596712444350728
0.041113507240865876
-0.06660929883770306
-0.05590626130041067
0.03826949294215408
-0.037948642688470896
0.03344209784537351
0.013308215881855764
0.034596644542042865
0.06487412274677683
0.010043644828975977
-0.07554898808716735
-0.0357012011154726
0.014783424611740892
-0.0032331036966071975
0.04251273681596381
0.031723115832943516
0.008816892397321283
-0.0029522776708388807
-0.008573793414552108
-0.04080122687971558
0.03576951193410061
-0.03808855726889189
-0.006133771042554585
-0.0013752383976039662
-0.009414258127261063
0.015385243654353394
0.09751436257729965
-0.02088575177582492
0.005775478349716799
-0.14709791818049572
-0.17353978104009624
-0.03141976648723404
-0.02641226217166698
0.0011807167090349961
0.03701998199405032
0.08154847173887213
0.011972027266610114
0.0061066833220207485
-0.04428618427114944
0.018059257815323904
-0.012277226557999017
0.011630758192508911
0.04831312460015396
0.02342670723761959
-0.11279288051445512
0.13380011126132815
0.05718748409179103
-0.035206625881688304
0.14847097741557502
-0.010402801272955469
0.011045570370797857
-0.01618864474838683
-0.0063895496820265485
-0.032806813222028955
0.0014567833662275122
-0.038956145413468216
0.11734062885026193
0.09987119008615057
-0.05646325000428511
0.029787355381433595
-0.0439104310573653
-0.008318791844757133
0.020841711362456
0.0075184245787166025
-0.0025796082385100886
-0.010970519510763607
-0.006663524098659603
-0.02348513356682189
0.003125116244941352
-0.07087633008650135
-0.027234162455695064
-0.0025675918094678683
-0.0309783655000495
0.023912915887067537
0.008816777869262552
-0.006575270418498391
-0.003370000890126529
0.018377552536144523
-0.0010903527907428709
0.01671496322219682
0.015289336430375267
0.00933779092523303
-0.023077055548886154
-0.00409846126763542
-0.018007448231518848
0.014139397338563772
-0.025497135618884968
0.009314905352574166
-0.010121654371548548
-0.020403638699845374
0.0013978838098507983
0.013870414963284578
-0.021051342690556783
-0.001882085078236806
-0.009743494862029568
-0.05281855223168792
-0.006666841854605015
-0.019834926285425363
-0.031267759829925475
0.006491683509144948
-0.009353999988562659
-0.02208099811283367
-0.01449158962155873
0.020089658640661198
-0.027097437421408854
0.03194215371529581
0.09830771642633221
-0.027837684376228158
-0.0022594390160841802
-0.012028086091211438
0.019669881678359393
-0.008515255280276685
0.020962446394713938
0.018905839182919226
0.08362720759627439
0.06953337625424832
-0.05007512606615941
0.00963173967538564
-0.022545371894640683
0.023293823390054685
0.01643535952260255
-0.0004962513945857422
-0.010269928588087125
0.13936471239351833
0.07875917305051088
-0.1215302030265098
-0.03210071401012108
-0.0020719445443323293
-0.013293902273889109
0.037934684997621794
0.01624501384567084
-0.0267802132117689
-0.012861929452845635
-0.014983793971973042
0.011145856952581521
-0.01364239891448562
-0.01704130682951197
-0.02518312920125265
-0.02578810293174293
-0.026479765857131764
0.05209435440848055
0.024887400871331015
-0.07469490207557854
0.009026638620400724
-0.02797574053073394
0.028479700718302296
-0.012749304117851924
0.012833738075848656
0.007391405205775833
0.02050779446873721
0.043667918344387616
0.05130928397640181
-0.10750400501476677
-0.1699578739713526
0.011153222637666996
-0.008684311322670389
0.022104570163195943
0.04164394622698962
-0.0019587159916452297
-0.001921030919418418
-0.02810247868551648
-0.02653779073399572
0.013091283553853202
0.020815366952233173
-0.016246482570441735
0.007308603961277936
-0.0034981533737050647
0.01692553642573757
-0.010256263307689327
0.023336966924159437
0.003714522408366871
-0.020796963303906648
-0.042060025523730935
0.07629351508865026
0.045828966492161914
-0.004500663512282444
0.01231162910092466
-0.023748469173307394
-0.01680427385880149
-0.0592233353794723
-0.010155469404554817
0.023972931400878573
0.005307117661389938
-0.03142284883473539
-0.006264445710054325
-0.03153099877536802
-0.03354793961796788
-0.02281819797449422
0.04372895014137179
0.12731009875339833
-0.02517958926275248
0.0528507917169103
-0.013215387236453041
0.05432746510352319
0.06827011675371579
-0.025103444766559794
-0.01191719940392835
0.012061159336410894
-0.0038956251413221695
0.0018062299569299187
-0.007035965690739164
-0.054216586279842556
-0.047615793178404635
-0.023286985505100718
-0.028341110903245256
0.007982847979348942
-0.015143583226819086
0.0003509956341454044
-0.0014170537748247258
-0.0070058064344445704
-0.031817317069637155
0.0778353032805193
0.04535062202895109
0.0181084138558916
0.034586810058925055
0.01817114873085792
0.013075085739296905
0.01826136266796107
-0.021888556336675573
-0.006090206270240128
0.06586696089414085
-0.056170099250860195
-0.027294562955657985
-0.015082529680005629
0.017265689452432263
0.03189523931881418
0.010369904805874576
-0.021857154987680445
-0.030182562117451232
-0.019057035364972094
0.03421413503690869
-0.01827548709085877
0.0032421094476476416
0.028051172661201475
0.06079778989388164
-0.03237988571877007
0.029553434045681438
0.03152785519849682
-0.01525894138008445
-0.07843322160215638
-0.07714678520353749
0.016660666132445413
-0.010660571861279682
-0.015696374203081447
-0.0162790036466126
0.0016957425814711326
0.011393432754232666
-0.005730602766350434
0.02904142239639055
0.015741648427088115
-0.007065692958462827
0.03730792129362967
0.014206597336661275
0.0015860584530650423
0.01053247633244868
-0.008962764351602065
0.06411341421076341
0.0672339032089848
-0.0008931403122300935
-0.038856023401112695
-0.09356880726464782
0.014518967240986518
-0.06627407506107595
-0.05089276211234606
0.004892354460058786
-0.01771553179660332
-0.002478395828784778
-0.0038593989754916484
0.006715899489689406
0.0214207774869764
0.03284090523734972
-0.01621196964603063
-0.0007659779589206688
-0.016948692481728426
0.007821440340693545
-0.03194586445725692
-0.14016757703054547
0.01313313691722144
0.02222330680351048
-0.022970023046212654
-0.02955396761007332
0.01894304867495348
0.02012679677651353
0.00978305149656381
0.012525497081797992
0.024607259761937547
0.022124430669643667
0.01598340310404192
0.07308623243711031
-0.018330039410389364
0.00572186718018485
-0.04966251312446798
0.010926259516584477
0.07819466232043915
-0.017297958639190262
-0.006215120286990783
-0.008814368774325284
-0.014883214223563401
-0.0036185047857181267
-0.008025013068206521
0.03097284757402249
0.0644805919700569
-0.005253827959698126
0.005596914587808612
-0.024043417165815987
-0.027331174785557858
0.0014925261352734633
-0.009120545622515906
-0.031432777772225765
0.019633149107651463
-0.004393980314552394
0.05682893191799871
0.041614112812539426
0.005581757185341612
-0.02037716852578732
-0.04205595049383939
-0.005635586761539855
-0.030983504757965342
0.034474623988288544
0.02157842634692593
0.010646310683224101
0.022876942988352193
-0.0550261075254439
-0.03413297616664199
-0.003909145782585405
-0.0004768089736896203
0.06770603053870732
0.003944165640114097
-0.07025914534608958
0.04436509854171767
0.04157895496813176
-0.006498389489231632
-0.00986134381321916
0.005995213532418629
-0.012580841224009657
0.0057445821064278195
0.009037050018215163
-0.019111270660768315
-0.009491206157568773
0.006914560845399585
0.004406358716263413
-0.010910033712569617
-0.017379894508685167
0.02357868919583675
-0.01785366980589859
-0.0056319599475084725
0.0239371594524488
0.03303853200453848
0.002384267950798747
-0.008985011451380882
0.013539513088531921
0.022758353523436522
-0.0816157007456093
-0.06051582255369745
-0.029222868784779314
-0.010991066300091307
-0.00918742303219578
0.026791555992827322
0.051409527870096845
0.004802360559350399
-0.0008864734735505587
-0.007712903060805345
0.03160615189223823
-0.024762322166413716
0.009464580025821937
0.04486613559269556
-0.03360933078499699
-0.04560559172522384
0.13783066177396947
0.030827463518835616
0.003223220338575719
0.011086412959902092
-0.015902424404394568
-0.02692393921173465
-0.01838305292855842
0.001970420217685301
0.02428079410638967
-0.02403577887766725
-0.017023872165767676
-0.010639529121445572
-0.011832647971381139
-0.06369719335241406
-0.010274980055070089
-0.08048104590693698
-0.024855858647805172
-0.021877389188028947
-0.07853246206359658
0.04454816416741552
-0.006608534413690254
-0.01873078206938335
-0.007317671109328768
0.0003039124247098001
0.04569974370868542
0.008336688777167197
0.027354996339374583
-0.0015229606669843424
-0.002259612717879634
0.0363826378493337
0.037478481037427236
0.06612759803375601
0.016458108369867695
0.016458904921009928
-0.00247124319296617
0.035925159984543785
-0.017491414312371088
0.0016273976096090911
0.02088669612519371
0.009652346954037671
-0.04497794150245154
0.009168841654962349
-0.006420440165418321
0.052790049783505176
0.0062768975492850715
-0.011301719808003664
0.009083004881475962
0.011168356648045968
-0.01399261897975809
-0.0008273973668682468
0.010471031911576743
0.013239438790456796
0.010112760588139542
0.007113938053588844
-0.01713171195078537
-0.0011193097832118738
0.15224645824130287
-0.18390843555506917
-0.08243229890183777
0.013842652010295742
-0.03855938016045879
0.007787936423431826
-0.02209533184952559
0.013409762242165918
0.014093587338236544
-0.0012973788016088872
-0.024677482614261538
-0.01631594950712054
0.0021249751894930756
-0.00996478133839913
-0.04527662617938351
-0.05023361600840093
-0.015730484634792905
0.033611910971237995
0.008310717012018994
0.0013433936684623233
-0.010147493295847927
0.016270963372278766
-0.020398031662467352
0.041398070652923405
-0.047357165749155695
0.05297835665569681
0.027505224762317444
0.04221608980136769
0.0008157508294903387
-0.05545303642769792
-0.03172248001978771
0.03914824356846019
-0.0024864204799713383
0.051698850497007315
0.06024830489046828
0.012383441106739158
0.05430935711964568
-0.016530252906116517
0.056724048875822
0.015064655397700787
0.01324540888610221
-0.02149949470419353
-0.004345165319013245
0.006037139087174645
0.0214698874074589
0.0019848883468127835
0.008311909878713946
-0.01093508879866894
-0.01912005546916955
-0.01507920809796267
0.01038401872617933
0.04687863161598037
-0.08475750295768257
-0.046706262202335855
0.03370448454012772
0.0010087130735434012
0.030459350348424966
0.0009363254121038731
-0.005262418321838107
0.012071802924514246
0.025041853452051066
-0.07147776343240123
0.044443631597540126
-0.11002438911658749
-0.09858506546763462
0.08737906099542177
-0.023989997477603928
-0.05814786818432477
-0.04570768729767995
0.04131171799684352
0.014286061048836136
0.0020447563435638185
-0.01433964895269544
0.025256657772739985
-0.05890924042446765
0.03374147840382265
-0.09371208461818811
-0.06742227956264178
0.07226662458077476
0.02439561509428318
-0.009007259224037183
0.006243107957949471
0.0017826500197927115
0.05883769609185656
0.045864159133088715
-0.007647439759365789
0.010155689008889005
0.06975583660712496
0.05949966599875589
-0.016831670305519752
-0.05035967431883952
0.022357986248943366
0.059728872289784865
0.04290800501822214
0.01004651763057087
-0.16730739042101933
-0.16562945339308716
-0.008463257068643157
0.024296773674698912
0.009770888014433314
0.013721025590155311
0.05176363590647453
0.022924478574414257
-0.0022390630284101934
0.014816608553395314
0.014794005830256578
-0.009032420544231985
-0.009221640157142275
0.011222953944402798
-0.009685076842109055
-0.00020920010792281122
-0.03518131917663675
-0.005979739594949358
-0.007884028598820229
-0.038096192092682446
-0.00915794841814834
-0.010842413018716288
-0.019061772463726687
0.003391724237815781
-0.003911174080171112
0.08103246035783758
0.02512646096711473
-0.004509483152758396
0.03838123481090014
0.021970550511876113
-0.029237610018300466
0.06380747840972356
0.03975360675062113
-0.01741880707176827
-0.04713843334630561
0.11477018726256477
0.12219448077817385
-0.08126772711858594
0.030522972204377486
-0.003990504940346748
0.01126267823920013
-0.03311780011584192
0.07486484770707948
0.05066972208261718
-0.04871718875210731
-0.007811430113987124
-0.00942420376115865
-0.018490067279905743
-0.01650341598533637
0.03443164892669032
-0.04001528863230524
0.0378261536806013
-0.17379528767696018
-0.15605378328082203
0.03636166880780643
-0.012903991141831784
0.005353129702429927
-0.007661867301605678
-0.0030564075650785765
-0.007000505322121552
0.011552432263099112
-0.009283042823928844
-0.010835837620652223
-0.005965396696484212
0.005129671964982262
0.019580390130127273
-0.05734804342551402
-0.01538260282643347
0.16853641404987263
0.03783493165360661
0.005630142309038763
0.05250677100935461
0.000945036169862907
0.003967309809913666
0.02741280097163114
-0.053507601689053184
-0.05595304126118966
-0.0008691134782084607
0.008323347916925888
-0.0016045685011338501
-0.03182910261024299
0.0037601636890353157
0.012062722802759133
0.017896427144740365
0.03693754476456023
0.004086070489495046
-0.0008030287035444935
-0.022006823145210182
-0.015237557025111747
-0.013895569848428818
0.019445981088472848
0.014976250571489779
-0.04874442384097842
-0.039161246819099806
0.042922793553264255
-0.017555593304475262
0.019401892973829608
-0.06362237725920389
-0.07305033352361763
0.037084836721552245
-0.029576655621597486
-0.05460083427121831
-0.03579589264575156
-0.013689382790647834
0.0170452809537623
0.008733013753738517
0.006494417131727548
0.03255326124236922
0.06723796051368482
0.06440976577268677
0.024606957333749475
-0.01025678727620902
0.06466177477835221
-0.0057151279711942105
0.009795069739094796
-0.01326376711685162
-0.028074977279666357
-0.00817660833490672
0.014928029835078861
-0.027582113850773266
-0.008825783098783077
-0.024856308308533897
0.030385463054504347
0.01479748422257851
0.010287289119350665
-0.011746287655844546
-0.0026764450378574827
0.048467544578206595
0.015563983168914428
0.014365636535790349
0.004962057348060728
-0.0010433379443634087
-0.0009749939415398769
-0.006242235010329041
0.02155608575229999
-0.014660300523049086
0.025718791029221613
-0.010906153081655108
-0.02836819722910864
-0.02154999545670175
-0.0008033667675948284
-0.01938904435730037
-0.018403194247207023
-0.02706497686305059
-0.007056191603533823
0.023571455006452257
-0.0015924829349368808
-0.1577914842985796
-0.04190701882657279
0.03324065342944428
-0.01693700896632865
0.009453087380333567
0.015952695339944867
0.05697404237086242
0.09856648605444697
0.014982015770186137
0.003048263306478914
0.07122321686836545
-0.006472120475090209
0.013168223440163239
-0.011578748565234859
-0.05229593426057496
-0.012147565172755387
-0.01278368048960074
-0.028414896405486553
-0.03320378762689386
-0.04231862595541301
0.024333906102495723
0.057108038380355004
-0.001979274097894835
0.04251469479707852
-0.036563513305159175
0.00970522785441159
0.038457111037337434
-0.02236263751967876
0.026809133414731866
0.012519802235449818
0.021138927792236258
-0.012106233006253565
-0.029490027323844665
0.022321378301943216
0.006779249586122581
-0.0006772349203984432
0.034598744446308734
0.020159105293521707
-0.0220684866502688
-0.029050446978953287
-0.028979852000546424
0.001092989056730097
0.00916686845725823
-0.0015433696433096258
-0.03377216224641214
-0.016746390233634854
0.00288748781760611
-0.032799088420652274
0.0068193600149388
0.002665662284639689
0.02085026538978023
0.03140478403798713
-0.06707413087144316
-0.0015883624185541255
-0.030252693832758894
-0.00010926726339356177
-0.09726226411206867
-0.07054063466113683
0.049164941493851644
0.02969785197300321
-0.029498619181277084
0.028344145535469118
0.1884510120154629
-0.008268460633141602
0.049401244408636864
0.04088059104245214
-0.0009492801297799262
0.008022518455582613
0.0301280430528875
0.006191387084335271
-0.018439768644957184
0.0169326363679334
0.017666751193515618
-0.009786598983235141
-0.015030473204853548
0.008495724371494203
0.01807244064505267
0.029098491308518167
-0.03539052398163175
-0.007844363044402494
-0.07276130619915955
-0.093377129021075
0.012244055234595184
-0.012066479308580555
-0.029321039215076762
-0.003734340976704413
0.010797084887964022
-0.008116999445056205
-0.09201786126286912
-0.0036623630802136236
-0.02403452135751523
0.016110386009060267
0.06485636088004595
0.02254616130386981
-0.03297346111396397
-0.03964895645639601
-0.0069611981420648
-0.036626905359430466
-0.03593994522286339
0.018547974759176928
0.0028397026776361546
0.026040328887135925
0.1970271256350588
0.0435036282318847
-0.03851839748576035
0.005913324399982938
0.01478045490832065
-0.015534818589430763
-0.03662271933832197
-0.0060477986189532386
0.0010335302693106193
-0.049571567272468066
0.009658257112544491
-0.02092870883414929
-0.016596080649052877
-0.03048209780608688
0.12664657685982625
0.15280048803276922
0.04168827337567089
-0.08131637288263809
-0.0533888989850596
-0.008358096130882278
0.026717481768852105
0.021004974072989874
-0.026481480869784916
0.018004520501118424
0.022875476506451976
0.03339692799822081
-0.029196076823662508
-0.019335199733558142
-0.04326560585085309
-0.014643834760212306
-0.021252419763866118
-0.011272375478803994
-0.015288732184013944
0.01015177402885328
-0.022646994888423744
0.025388993484105872
-0.12338196189702526
-0.06931644229115799
0.00015201575300947967
-0.020258830820328262
0.031531563239899384
0.008518349356094856
