0
-0.021089203591441064
0.027205614193660792
-0.0032005214771071216
0.054655214998901275
0.008590643775398728
0.051620707849549745
0.04358712101906991
0.0020351751305060675
-0.025543613808592824
-0.02323011931278269
-0.007097159591120451
0.03377127981221391
0.03942542553932578
-0.021325213247083363
0.07114627608845744
-0.009501903821665816
-0.010768577603225802
-0.005143311303758413
-0.026691875853968962
-0.022244875794251318
-0.03831789480964014
-0.047257180846187914
0.023091897629863377
-0.03070427386145966
-0.1888047352289051
0.04283821967305136
-0.018374142961909375
-0.024887438615656652
-0.018237481193399633
0.08050753603460199
-0.012625527153478491
0.02952247386883512
0.049967290905149155
-0.03140377244593706
0.0032149138293700906
-0.030423909929985216
0.0033181573733088543
0.010499711784252469
0.005394550719914245
0.05115762208985773
-0.012876548855511651
-0.008670877305445619
-0.02773416747569302
-0.038816017136890237
-0.020784751188516207
0.01359452815378273
-0.030108874398421227
0.004066237141882396
-0.044825312298909875
0.05921318450974923
0.04409395353368579
0.05019070930670402
-0.03649136247923163
0.016069602522322923
0.06928036507600766
0.059873122835818623
-0.04499661773063626
-0.004682796106537161
-0.02530847102993338
-0.008633857808252056
0.007828285376973085
-0.0056368857480132315
-0.0015732730186128563
0.01563462830886426
0.00022080263272480203
-0.006688389591182964
-0.009813749260117332
-0.0783405836722463
0.024584999708648227
0.03649313214131244
-0.05278049841533443
-0.03802544719152051
0.019482421783540125
-0.012998490962357948
0.07962971412334782
0.012001106156431256
-0.014764733524324926
0.08478515108157424
0.13508329136759295
0.014481441035228713
-0.06152550989001181
-0.038789428055794786
-0.00844129352225549
0.07848561097800673
-0.04164557552742334
-0.003391700129105605
-0.04587404720259071
-0.13888173837051973
-0.021169282514804703
0.015056262980725545
-0.0021355778865253462
0.014121610055238785
-0.04643869979653204
-0.006699104936212263
0.0010222068404379502
-0.00651556810165479
0.02298428700763132
0.008681174282693124
-0.007905143205380495
0.017315571400295098
-0.007299494201474598
0.0019096797897128993
-0.02231547111468897
-0.0014451120930339559
0.00990302128342668
0.058721453654631585
0.011457836331762632
0.013546954741106905
-0.04136961666467995
-0.04288800047493344
0.0022917536078280306
0.030345354506152784
0.013955006587261494
0.07582149912956634
0.007803564850034296
-0.004590106435909242
0.0005366909481391442
-0.017976314528764813
0.008538259365907633
-0.011477128600003848
0.004415806472911679
-0.011751345256350059
0.07117061368020097
0.0009171801721575412
0.013331221197237172
0.029822319544408844
-0.010205817316915214
-0.05863435030210679
0.00032249468300339613
-0.004149708859095932
-0.13340993444085705
0.035376560278334176
-0.1431378434674257
0.019278832810764732
0.07860559857158408
-0.04396090738887382
0.02545823803929689
-0.038033576273878066
0.030740148026480847
-0.02287448940704425
0.042468489154233714
0.025032836862175056
-0.004916897508956943
0.01416805064823127
-0.026715003147297845
0.002840853528540282
0.021169003839464143
-0.038572031002054065
0.015545267726776113
0.08908734542475596
0.012337544454781931
0.0024661872722997603
-0.012960437347272917
-0.0038842786175255334
-0.011178003243574696
0.017490827731131763
-0.03362160408279949
0.03590291605452699
-0.04017348742770586
-0.05357966414955258
0.000730370090697591
-0.01622348316567861
0.012308276966038891
0.00549515850263053
0.04781869137381367
0.06706309694113603
-0.024795556960910427
-0.007861239669382349
-0.03134697779699651
0.024826798610906187
-0.007829577305868854
0.0907988531565639
0.033890043090635896
-0.051195371214724596
0.025363606676103143
0.015212109726786605
-0.013826302338947343
-0.02231303574912228
-0.02694417134771787
-0.01564351824045063
-0.01353514544495847
0.0009238989751314589
0.016710216239597158
-0.008578587721980911
-0.03296431152265884
-0.04249818624982925
0.02308649402505493
0.0064722127287760904
-0.012403417454311748
-0.005276721330000281
-0.016761144489087658
-0.073035762770978
-0.009741326350716659
0.023775315734745832
-0.00015384648376762713
-0.011949562819557604
0.08094655301403895
0.039049517510597855
-0.014288726773754321
-0.020646001223553
-0.021528841503274682
0.03341144850869808
0.020690630960098082
0.008677970566612798
0.008879858601478063
-0.014110242622020838
-0.010204000017405455
-0.001600793382011497
-0.002997627229974618
0.021558003237710916
0.029921831431919118
0.17219472099542596
0.04684176491875674
-0.030681505291037716
-0.019866120931235288
-0.033257544474399325
-0.06213741497100085
-0.1042996291588633
-0.0017118286849624608
-0.05231092627637625
0.008477723807797322
-0.006649341934240732
-0.03210791058021766
0.0059979388994459105
0.027674450425597744
-0.013140839131881531
0.026820592756990985
0.07008402234763031
0.018970758872148538
-0.04691589293737997
-0.018243499015386494
0.026143017012347013
-0.006979355148177482
-0.024638381964209703
-0.00010237153771264912
-0.017422595975470512
-0.033910598379784655
-0.02096699946220941
0.0057573512299252845
-0.0019114723073424056
0.02574325102131279
0.014469449530303229
-0.03204398114824029
-0.0685849625215357
0.0872019228646812
-0.011240754329470025
0.020057401979449937
-0.019251751940046403
-0.043255343170416294
-0.008527337448618435
-0.012125542749011772
-0.005748697306729069
0.09737121678733156
0.1677219836683172
-0.008726620485919696
0.023986653661752722
-0.012506545960367958
0.0053647506337910185
-0.03922462087852269
-0.01106910298399865
-0.05390587703277194
0.017589479307271384
-0.0064555566056879385
0.03211450135697378
-0.05183229288856026
0.0026662799025746788
0.014689227166140083
-0.2226203181833151
-0.009972443651288984
0.01559998450962494
0.0046271634322445215
-0.001494119158426941
0.10748009239918188
0.0235528953073024
-0.09443875313262393
0.014639248132285277
0.008997351480973807
-0.026488751771816896
0.007966798520218263
0.009895470639286965
-0.01810538644960609
-0.002384555089999951
0.09074372068891927
0.1396427919362436
0.07438075528816622
0.10632209326038629
-0.0037285849689035074
-0.023176329269117692
0.02177928212107852
-0.07222283949390457
-0.12089076219601597
0.0019417434136952307
-0.011075700494949988
-0.031040378035825676
-0.0005217593384769272
0.034862492248211224
-0.0626150495617416
-0.015182047319609272
0.0001586905135853128
0.0075190473442991925
-0.002666550579690281
0.007930837097827177
-0.0712732111665094
0.03162813863218507
-0.002271375270650793
-0.009343635396917408
-0.07974821429358696
0.0008068958159743627
0.027498103615462226
0.017768249074582933
-0.0007621685588473292
0.05005025670759822
0.007017269470944181
-0.02390949694086445
-0.00010566095259970082
-0.0030166833031103363
-0.009135550884971637
0.004637028724054219
-0.017242859334099
-0.011932723900257266
-0.03544190886699723
-0.02947598821439553
0.008534797250282241
-0.027638723711003624
-0.017847500096317997
0.0011428741102459223
-0.04284083366107925
0.03155667677721496
-0.005426941666947736
0.09124562859845571
0.08812683041723998
0.015053170075417626
0.013758519788408965
-0.020480300479870907
0.03462280671921101
0.006102986474966864
-0.006534322788318564
0.008578994547522749
0.009376205392716008
0.07266272076942412
0.004193098914966241
-0.06096435482535389
0.0069154509912916105
0.07526922559909588
0.04622130236870595
-0.013455847717144174
-0.016225973359867318
-0.028475899754067873
-0.02996024266140622
-0.0010403303557541467
-0.006457162643456537
0.021135590385363758
-0.012759539949601433
-0.00255685135458057
-0.022118157996863636
-0.006049242469118905
0.06544683504525223
0.02910997168021885
0.04579887340919144
-0.02386786267199344
-0.05446425878363752
-0.038497628618647334
-0.14644493348123824
0.039989149942455775
-0.0011913101019902696
0.012837941113601963
-0.04034346702831256
-0.003827876640174787
-0.07277350156857645
0.046282266481801705
0.06327450926297935
-0.01563798025959831
-0.006164343478714195
0.023561548423326976
0.004470764080109556
0.0112208900522102
-0.007762389905132116
-0.026538661399089915
0.009116426873778985
0.011047373746171865
0.03276115623502499
-0.004951302166024381
-0.007048649895710794
0.10617682206932044
0.06733109273159493
-0.07297544791089687
-0.2330061383093734
-0.18717935931176127
0.004850559081602534
0.01852039840501497
-0.0038751449034297903
0.0034065572562879368
0.04445668084562221
0.024508353703697194
0.028304383502110883
0.035006649835073886
-0.008033235295560109
0.01667909316989846
0.17798387103922975
0.03774518814668579
-0.02940887240898984
-0.01325441108791426
-0.016951034143521178
0.014011061964974992
0.021692098012450523
-0.04432764652737662
0.028382228934787247
0.02182365372646592
0.07852799066963469
-0.018107029810210905
-0.03561770182204362
0.043592103217235674
0.006835917380654307
-0.06735077796416179
0.01901066992690742
0.026485682855517414
-0.02024910916326092
0.019595428103026745
-0.014355525597281182
-0.001669921020745041
-0.01263364163679182
-0.060617672776480995
-0.03242937223263807
-0.03877099333081937
0.03343008215873728
0.0710520378152959
0.03143743656681073
-0.03344844169633567
-0.035583465982735325
0.04644008355326864
0.02336356800541213
-0.01957877333555106
0.002639364604923753
0.011448278142713793
0.02056772378894639
-0.00045979510852355384
-0.019507397118855536
-0.01102054622999697
0.0006410714093804432
0.024620296652630512
-0.028418509803160075
-0.005094675348908722
-0.04905438557132164
-0.00902224212770648
0.03993062670108383
-0.0187422768564221
-0.023380589249286782
0.003668040926544456
-0.027448068501168866
0.0006777255361709877
0.008506060302288614
-0.0032922693089303874
-0.014925446591658606
-0.01731698909334435
-0.027776905650776538
0.024439657641142993
-0.025758983541450425
-0.00425520438954606
-0.0175213753393855
0.042053499435455374
0.00790120149552257
-0.07882159269809548
-0.023281854572525733
-0.031443431596739256
-0.0390727604326758
-0.00026902219000081993
0.0012603396062257145
0.07598266940354531
0.00043434744295991806
-0.0006948007478220221
-0.043187849635500555
-0.012285306903315576
0.0592743988470376
-0.01621867511350953
-0.014944416949147376
-0.05271927837868018
0.016084620065139426
0.05622068365133531
0.015390485360853395
0.0555872311558362
-0.013715579661150425
0.1564679504861984
-0.06812515242713908
0.015982037765978733
-0.03859702957174627
0.10699249062935624
0.12810649517413047
-0.005332041804839862
-0.04584778765710167
-0.010869964628513555
-0.038447431837022775
-0.04043415274434939
0.011239733252211842
-0.02512109813151564
-0.025081065139934657
-0.008517521962617663
0.04015301153344406
0.012426926724752591
-0.022176021462527666
-0.050013177678000155
0.041614653732164615
-0.02612423431626369
-0.016433542921621247
0.005705803418167171
0.010324890513786229
-6.683098125090262e-05
-0.03042999350291833
0.058851895908338
-0.03260864587749622
0.05203979879935236
0.1243646205265778
-0.05360974502953284
-0.031621760457039454
0.013103696126331894
-0.0751182488420438
-0.02179262541897907
-0.0210777004613052
-0.03797939263118634
-0.004627346597513099
0.0098602176529927
-0.00587894976633661
0.009941456187076326
-0.06127112574104582
0.037575855731430845
0.16334999471657818
-0.06261054341953144
0.006176561744253154
0.010025747721707372
0.03727066523007148
0.038106103151054095
-0.030262078990422315
0.06177339586885337
0.057233301509113814
-0.01798659518915052
0.04775071458881836
0.06071344770107875
0.021892114321045472
-0.006670488494287966
0.0017283411597776163
-0.0002683581576114879
-0.015927658505630465
-0.006958340020950416
0.0020532067362581527
-0.03754879341894345
-0.28867148150916483
-0.12424111054573751
-0.025946453969598535
-0.016844572586177733
-0.02035070293777016
0.02308812977714394
0.0005525700087798777
0.026875584876448335
-0.0009299015034016485
0.0690629469854469
-0.06021603746764965
-0.1105113193103162
0.009935346843209288
-0.005272029911513115
0.0484130003471628
0.012953452061068476
0.0006113914932329091
-0.008228105019326285
0.006199145605639534
0.025846862725298018
0.037420477218861645
0.022572401903122784
0.011136004683578034
0.07500534214842032
0.03037458136188128
-0.02607024099249446
-0.029149093455195563
-0.03004789187366986
0.01210056690442028
-0.026192487482922827
0.045072233030969445
-0.04825520056205794
0.03280971434153664
0.005887773962495231
-0.03570317592505391
-0.017516263968411844
0.0016217478505575972
0.02015260301555673
0.10113765376791015
0.000716820348390258
0.0024703761805094653
0.0051015488409885575
-0.01005268270537106
0.006998543546611204
-0.0019129981468039069
0.013655728767289047
0.004602522722410015
-0.027774200278132023
-0.03267892636705117
-0.0030360646184509803
0.023062705434360748
0.009792426803717585
0.035492943554563346
0.011330427079991595
0.02129868507940509
-0.06762369419768362
0.047042152563196236
0.018450889621665648
0.010131222485575202
-0.0429746681959322
-0.011912519515778345
-0.014745219720378636
-0.014220798301156082
0.0217825770295576
0.0031464877310055732
-0.03404700545952772
0.022508261954608744
-0.022078208218551706
0.005567151576475137
-0.051912821309924445
0.03280405787578847
0.02940423812893283
-0.0020241665052251
0.016021085499655474
0.05183689381959711
0.049144217352871174
-0.008922473017104993
-0.03765949520967762
-0.015108306501610585
0.009798978378153363
-0.008999849983748424
-0.031967592456842414
0.00762151025478001
0.032489014402735175
0.04920616566015896
-0.03834838669705047
-0.0402448410111275
-0.021607061564837396
0.0016917675571289058
-0.015344234475827076
0.007292144053204009
-0.023877496196449494
-0.027837477870141313
-0.014839527528076487
0.0156193827777791
0.06015412322509503
0.030079445167877573
0.023788153180664056
0.003689703786489179
-0.008288115937710854
0.0005402645605921168
0.008800177063231001
-0.03183050711417311
0.008258873334669624
0.025823900057328823
0.027270481138995942
-0.014645896954255872
-0.021748820868666995
-0.005255309526828668
-0.046095611683440216
0.003238108029165319
-0.010446265616568019
-0.0027609649282503163
0.019199964717984585
0.025903387712613028
-0.07667652020632576
-0.25766034303750607
0.03473715758145939
0.05571888910879881
0.023679191105970904
-0.007962838139915017
-0.015252102329825807
-0.009765305128177693
-0.0013072717756729753
-0.01860778184802736
0.027332485423598136
0.007275875232675481
0.051458502479356676
0.026179796221231233
-0.014796410571003768
0.10373881662489148
0.08667550832114518
0.016511260522552702
0.0036869074710382563
0.02745305075834739
0.010725434052426848
-0.010840783300131294
-0.0001398113307135228
0.022732051545594326
-0.0010334019611856575
0.005566827819011897
0.036891292819304596
-0.0012846806327889272
0.020266619119768892
-0.01032406567371619
-0.003626220915802092
-0.020236237985935185
0.04207305431243297
-0.18727472676742885
-0.15794630854736105
0.11526425785302769
0.055590058173282664
-0.22773491673181953
-0.06283235194024131
0.0657860162967581
-0.0611722966448423
0.05835244374550323
0.005117083785040732
0.022464380198029432
0.005202462669982534
0.01584661496981375
0.019784882324892252
0.022684231616320622
0.014857690775096456
0.010448556903697151
0.010185833106285945
0.02928130983893998
0.0008080233106329107
-0.005074136153259433
-0.01687767333259226
-0.038520253606347324
-0.011633946061656238
0.009731517053182433
0.006300579500404475
-0.005059420546688066
-0.04127602946145682
0.06505074424307643
0.03690805119821576
0.10271390581235622
-0.026136282512422587
0.009245725459892516
-0.016403990376792587
-0.02824497458967112
0.020170018636035437
0.029409508626346458
-0.033976669269031985
-0.010367610967557441
-0.02525403591268411
0.03095748513511312
0.08487357940904795
0.023045507643081088
-0.03913974761666964
0.0013000220881874023
-0.026129959995441484
0.038022187715311004
0.045148112201374546
-0.0027101337718681276
0.029169476053602126
-0.04692884489006976
-0.03032686821788535
-0.013281259456060486
0.031305510183461234
-0.019588975851445395
0.016180870871676287
-0.024900754230041535
-0.040502500542036766
0.005269266185633019
0.022123197217518487
-0.03181444764623885
-0.008858943391059398
-0.015717667283057492
-0.019411721697212652
0.0019216886003331438
0.09311914279929377
0.08414106860001276
-0.02284216972731012
-0.05536665396420999
-0.0365399274313623
0.006696893853145195
0.008066920807387296
0.010179308618058897
0.004832409335482379
-0.03391239696981718
-0.028927552280924654
0.006957021370726018
0.036036424967077874
-0.011813472704473983
-0.016484374350939267
-0.044486425451394966
-0.0007227760158074345
-0.022602011519897287
0.0038987865785045034
0.000557895293132161
-0.013939840949718828
-0.06292491964319336
-0.027755880214002493
0.013671823529017645
-0.01430889459246994
-0.016035698537285408
-9.471542198380695e-05
-0.008935873440676792
-0.02691441230780403
0.014302656387498138
0.14249933174083032
0.01642728044661439
0.014502816734308671
-0.016920793551210605
-0.00850524802666783
-0.01211082134333855
0.011772311405371392
0.03303949515895855
-0.047542043213825644
-0.0399756913936224
0.001196067163128402
0.03155130919681563
0.004766309503201794
-0.0140861282960274
-0.043926620988983596
-0.0002527732019347582
-0.018036860346106635
-0.033629354340223704
0.07571276863100992
0.13273461331946892
0.036021250160311546
-0.019287919132149965
-0.018746461244619723
0.004076252388626889
-0.013593860749864996
-0.012781170590667825
0.023643100006247718
0.021384889998636275
0.02182817692677852
-0.09460803140182882
-0.026449192234932584
0.03875024960934216
0.012612505662820836
-0.02345216620171034
-0.0694333834042596
-0.010123939746342334
-0.009645005507830904
0.01168611845232309
-0.009231377941208901
-0.009291219675777911
-0.018752882780103692
0.007630719769503307
0.009537892007655108
0.02836906409346488
0.01419338140771494
-0.0011407315813621657
0.018187081948723836
0.04833775128083283
0.025481598051825375
-0.009574896342568914
-0.03049563826031545
0.020078735436146872
0.06106471761246309
-0.03810084166545822
-0.0036055836913145775
-0.008971027229226434
0.06426300471179339
0.003740984336295944
0.039533481126675075
0.014774353862245515
0.07738752170229679
-0.16218471048815197
-0.15522387962498893
0.04821583273746566
-0.047489903355759915
0.030960530454973247
-0.005643951928673503
0.006219469308548489
0.026460695233105104
0.008848133094070983
-0.035589399942053054
-0.002642997921865905
-0.019403598323043128
0.03679915707769226
0.058060499507905095
-0.022934501363537255
-0.015759361527011528
-0.0005511784770265659
0.005548255194077585
-0.0003014257907829217
-0.0007796980245449792
-0.027974022923083743
-0.027272434452252282
0.041248514229535106
0.03477704929389141
0.03356267052108134
0.04957033732115398
-0.0025600117126080464
-0.010702162302572798
-0.04072941210498157
-0.021482542089449934
-0.03719301722282151
0.004518809042007183
-0.016916437280226827
0.011273825972843841
0.002412852202100528
-0.06753857700367791
-0.05808671300096715
0.04287447331714528
0.13473907311381422
0.0010377076734572426
-0.008244907005765639
-0.0042561612840023655
0.007763742167552371
-0.025300325433033594
-0.03786398518305057
0.017631287565598376
0.06341704635291003
0.04472493804828951
-0.0638647378297067
-0.002934049390062208
-0.06953821265543814
-0.011087677714869366
-0.005175390401627138
0.011325432136401936
-0.00886001875783116
-0.01744533983336965
-0.006991398392040532
-0.009469741773998423
-0.048008248766522425
0.14731637470952116
0.07221296233677031
-0.00813076085846619
-0.013044793717186847
-0.07364856724713324
0.008451500033626684
-0.06495405804115499
0.01262739118556217
0.005412247831438882
-0.1441348577060899
-0.008204729090597265
0.0004099109207884494
-0.0013808111950230626
0.03262249302446507
0.04178018760711327
0.099804975812699
0.0530747022523208
-0.040399242813153546
-0.006940036348355175
0.029491989778350804
-0.009637435904939455
-0.004881102794889168
0.029565147927599632
-0.0007505925581108624
0.021129234450644244
0.13293509599534492
0.005046267994593198
0.01999318965821368
0.03046204482041164
-0.024537234887242788
0.0036403782009964926
0.09055822483905765
0.09072415504147073
-0.034093024458734605
-0.007389838089968021
0.0014069221908920237
0.006107522958728623
0.020535735498021464
0.0023948160687291163
-0.053801873628123886
0.009657986029602751
-0.11566627793007937
-0.19937525634133874
-0.0468266195596215
-0.04734325935005214
0.029305661039821487
0.0017771813167021834
0.007785900877175568
-0.007240438651881837
0.05992966494382959
-0.03491169993156636
0.043414789326493036
-0.07695641805490651
-0.03323538993510769
0.027328175531422277
0.020252931070376318
0.052561498396198926
-0.01793239511835193
-0.08736860573543029
-0.1647695823918726
0.036511606116204444
0.023338549448501323
0.03190793498914869
0.008282855036065784
-0.010795192016195625
-0.009714796898027029
-0.013677173329865124
-0.003931167360364817
0.014461846612107147
0.005239025257884062
0.002809956399372595
0.007506660265247331
0.011035066640529645
-0.00895699775647585
0.02769246654008363
-0.07014960144016354
-0.01236891957554897
0.009900236415613424
0.10350283099334504
0.008465645302699523
-0.026341240121869284
0.021936358373366178
0.025701375051455384
0.060750705150348853
-0.003290043946142604
-0.012816217183811878
-0.03483718546054974
-0.0035001252622360378
0.013569130559271288
0.0010132271211603032
0.03171270332304031
0.04183942985775244
-0.015141292246253405
0.023113565006963224
0.01712121886693596
-0.012219315314134681
-0.018182882903379393
0.06751658088188889
0.007512644835726807
-0.012818004625514304
0.016945606722343153
-0.006405589667943325
-0.09994358407168916
-0.009763062621627336
0.006030338378811583
0.06451087207047763
0.01846546642235673
-0.013429256664863573
-0.03754099246301852
0.03450974331625677
-0.02876138850803966
-0.02553539630389498
0.0514269255027476
0.16238236568070002
0.023562689479466454
-0.0849352103388249
-0.04349687590191298
-0.018407930171398176
-0.03443969567657261
-0.016067263686323635
-0.029388206036811183
0.02037996740568173
-0.009936521760809515
0.02352033745127998
-0.010017098824423832
-0.010003213281468944
-0.003400148798051562
0.010397763495173169
0.02366506990759357
0.003445627545394042
-0.033377522345466835
-0.03867586933744151
0.010619506116676605
0.029178310846739722
-0.040403421688903464
0.007902296869448976
0.02094793782951261
0.024493636843602177
-0.042417425881553485
0.028624395283493084
0.04682394016562288
0.03132962591177325
-0.0023475746088810934
3.661896193148991e-05
-0.00655702927376334
0.009639310050208256
-0.011723647802135648
0.08019335606342572
-0.026724031150961426
-0.1658315867844536
0.035122935588554345
-0.042257721512801896
0.01635412978491093
-0.0012362416714941365
-0.017533236966447627
0.03082749713065423
-0.022130864620568177
0.019308367788499387
-0.020679348186803836
0.05045984001464315
-0.10673593509152098
-0.03331871842850542
0.12061838000755551
0.0019478111892779705
0.013589135877236171
0.022434338603601497
-0.041409824801660375
-0.04681476994853625
0.006557714854429008
0.030077265979549114
-0.002558255136986156
-0.0353249256671291
-0.04325687396042738
-0.011799369814530499
0.004618852549736994
0.015711715890025804
-0.003080699077474726
-0.00379745140399901
0.01904120022648646
0.006350559208081627
0.044356459040126056
-0.030142791004140544
-0.030859489528249018
0.015003608333846896
-0.004238960495973134
-0.0057431386580452425
-0.016450088936113303
-0.016108959838430137
-0.03649708939092284
0.00012786390471557116
0.0014431919353772075
0.016907710368990667
-0.02589964878056458
0.03359640706513138
0.0024723279700826525
-0.02737627488454702
0.06481324370935602
0.1126803760171347
-0.030337427529604215
-0.013261496951477424
0.029835010264197877
-0.012364630119115552
-0.0009319236265267707
0.026455417711915556
0.03298729043509712
-0.023461754321194014
-0.020374666390383933
-0.003923145056344529
0.03554558264323752
0.02353103638160036
0.006270908579794714
-3.1720318011317686e-05
-0.0016885616145450616
-0.07135310352911325
-0.03885163755566189
0.0014363932056661983
0.03452740836820158
0.07904178165636065
-0.008774322104643356
0.027422747627501055
-0.0122281686550121
-0.01637747113317187
0.003160252023986894
0.007331311768474546
-0.008853607518268695
-0.0491295299486439
-0.042695266883206934
-0.01906891710096456
0.0047991098048536475
-0.008531168384507175
-0.028812466325027836
-0.005621010802288692
-0.05460452568615227
0.003150061605791329
-0.030394547026744215
0.005045970158304841
-0.049986767207435355
0.16590370505849283
0.08882245211619967
0.022620188517108338
-0.07928736402252069
0.14792525953602625
0.02813680456088348
-0.09015350326938815
0.013919132600501812
-0.05113048047035128
0.09106028738200508
0.011100184835234301
-0.055070140641136536
-0.024769838045992375
0.004523074897491753
-0.024907018989367362
-0.003953203542852675
0.024796601602808898
0.030647059624529096
-0.03455332133315945
-0.1263015724506385
0.020181963368404512
0.06659247167049773
0.00387577169059831
0.05090347002013781
0.013987175085086423
-0.01725740918157169
-0.00944247387318786
0.0213536404000186
-0.05324016462138312
-0.019494007498117163
0.007488172591672839
-0.014347165503274273
-0.024823588968499306
0.008234994674160999
-0.008762742543672786
0.01257847594603077
-0.017776190730520034
0.02623621171519352
-0.07210822872098135
-0.1470294050259006
0.05341368942904746
0.06845510450170181
-0.03511841394715022
-0.010346401243533851
0.006095833502912599
0.020881998780657083
-0.025000280793372152
-0.009809988429969625
-0.03527204417857897
-0.021415227409160496
0.005157640825702062
0.006280057316620091
-0.015286344695304854
0.042078913949343814
-0.0013091367325827837
0.05004732621657876
0.05491832873531516
0.07795247748739673
0.026266871602644022
-0.014640523329460097
0.002432265662118175
0.029460030174610432
0.04679634233076416
-0.007813957020890059
0.01826149756245367
0.008969651042304088
0.036933830645608595
0.009436299656522528
-0.01157282437312272
0.002598074436757665
0.02547413368815755
-0.009377343361925588
-0.03830055533682689
-0.07703556331417183
-0.06980308151785813
0.009684550058782878
0.03820951047219387
-0.013289493230897158
-0.015830598930315312
-0.020928026501801388
0.0059994582635680025
0.005405489085413429
0.00615328064960477
0.02290952630815398
0.030597748082999334
0.0158093994271709
-0.022213235168285043
-0.009274859103230927
-0.04837907456956794
-0.046048401826818755
0.040051665388812184
0.022087956235633106
-0.04601213601840095
-0.15765507689468275
-0.0012320343645653726
-0.0033770006977612028
0.009458140777704484
0.06945826275927078
0.018640898787464135
0.04828617268506649
-0.01862136150302175
0.06750765415156422
0.060856838442858024
0.029345849152919885
0.01133078880303245
0.02070471342504506
-0.036334400052519485
-0.01603578774389672
0.001479377011272383
-0.005599872069373828
-0.24076078526940387
-0.04247683517199312
0.11698606280820685
0.023993190054028706
0.030434981380280127
0.012432070641195692
0.038466140725333636
-0.06693447042111698
-0.01266029227224408
-0.030238815885790672
0.01534669223358488
-0.0353277824414067
0.02691841791248886
0.04534139083385045
0.17182121019724303
0.0008073682483881535
0.0012837771786228355
0.014099177635616923
0.009328411866639187
0.012241198793961612
-0.02700106687337475
0.029142107656729442
0.032544158332603
-0.14817950701693627
0.006611116869294103
0.02196188551489011
-0.020028993969624015
0.0014931315171228972
-0.05993758291407696
-0.042361152423706624
-0.018062715748638297
0.005006912092511104
0.004264399309718624
4.983434481287374e-05
-0.0011443139633370047
-0.02114399486801821
0.006048441162024797
-0.018482287209172353
-0.004403494231707782
0.011885941644046886
-0.034918262943184834
0.025324468807644576
0.02131307671651833
-0.034727625107972455
0.00033435206522494887
-0.03580453666748185
0.017819761955801837
0.02915779287964455
0.005642552794601492
0.0053877411652660055
0.04233566498706454
0.0434478942255969
-0.00859438455873212
0.023089078322737825
0.01980162168154519
-0.05318367133369168
0.026281930168527555
0.04336393451416379
0.030252454559456302
-0.0784008627803994
-0.022953585815560115
0.02095438371399555
0.02213514495570732
0.06393561673053558
-0.00461474923205524
-0.07654131380357988
-0.035421893575784395
-0.02460249900948677
-0.00239294775257754
-0.009856281290699785
-0.07677668813369491
-0.003835695173732416
0.0964570904764565
-0.008204600375566641
-0.0008547225741156147
0.000889749167416207
0.0006063170705865693
-0.018772014096694097
-0.012926143063588604
-0.029699302266614436
0.002921854062443665
0.04611755707000848
0.07078699770236155
-0.06517085605469451
-0.027717398737998524
0.0027302433992930537
-0.012712457547698786
-0.01186308819779451
0.05860219339924171
0.09757809566233591
0.013714784285787275
0.022676708512669903
0.06776495902386029
0.021981150325632134
0.03305219474150818
0.09006156502503121
0.007159966132057177
-0.11015817022934654
-0.07662651885021068
0.00835643292699312
0.003399380036022844
0.00898701242490217
-0.038102969396449055
0.02965565198051095
-0.0015876211524293393
-0.002424836157776233
-0.008834875788888487
-0.012244251600141235
-0.13716453709161944
0.01718682389318101
0.019770793539956234
-0.0025405401353094026
-0.005566116973343552
0.022664515366456195
-0.0014112041567173133
-0.05466722305812261
0.0036465467868417555
-0.022704009165675255
0.00694169553034242
-0.007922974119111834
-0.004679154497851272
0.015095767509266491
-0.0051877477424531375
-0.015327831435482617
-0.010304205931519882
-0.017498712033679968
-0.010822000392170553
-0.004922237438106517
0.013485559924556644
0.004708172695116815
0.0036279161929278596
0.009878613665481002
-0.011234039266561207
-0.0025235853870401387
0.0021927297453448362
0.013919710603070757
0.07603482115894401
-0.0012444376391485342
0.005067357778553395
0.026277443804600606
-0.03626467532223772
0.003187600900251934
-0.00824836065522431
0.0045397132697050915
0.027463848840583855
0.019597644791443103
-0.0024765568447478897
0.039097702426776994
0.010486306971297836
-0.008028394446892963
0.06452321645118747
0.0421298282310931
-0.037393745743084135
-0.0069552722883043
-0.1666894759012263
-0.04873781827016244
-0.02012372919749078
0.025596517887949418
0.09719411066436663
0.04860840017082016
0.043881807482365004
0.02773132494382309
-0.028117946793283565
-0.010078067149469273
-0.009707791593512424
0.024591219885198613
-0.11086479164536107
-0.04025971481982971
0.043113019797662896
-0.021499524089948607
-0.01815107170495637
-0.047990110702103114
-0.019784143417208355
0.011146936972719642
0.015176576742264235
0.0326134153000441
-0.03057429522763528
-0.0702829576710813
-0.02136935833511879
-0.013243426818435261
0.009414715173840444
0.002372294659129766
0.009535345806531856
-0.00012167867044304804
0.030908987792697337
0.023578071878617372
0.009557303038658834
-0.02652913624135582
-0.06340052098576811
0.03590823483177885
0.0447416314495616
0.14536586139274074
0.01906982955384314
-0.009857950081360665
0.09455314718051423
0.1155005397912897
0.02662584191672128
-0.056494940309497706
-0.05563336640894001
-0.04993046923043035
-0.06837496731872456
-0.022602624386632394
-0.020147755855330008
-0.030431285868258898
0.011409008229040488
-0.03258789783783346
-0.09518016858026154
-0.06811005172700242
-0.03215750280425629
-0.01718654836992737
-0.006410106654916539
-0.024141639322323934
0.12118902012674695
0.11808536780268099
3.734324353028059e-05
0.004806676932772546
-0.06068816467833681
0.1205242732136483
0.13007482114469687
-0.018483561862019007
-0.02067026488447556
-0.015914924423338698
0.07898830578865469
-0.05479965624460734
-0.14194246950443642
0.007714201162508823
-0.030137972799035906
-0.020660710320914148
0.11430757229956509
0.013179239324160397
0.03434820092011796
-0.05671349310261029
-0.1433230747278284
0.12402877076554081
0.009187212499195395
-0.019169361951382385
-0.030265417024446673
-0.07631527456096816
-0.007968646693720563
0.004959980287365519
-0.033848582693529215
0.031187746268075807
-0.04367709815892844
-0.03196019800930288
-0.018247220593449985
0.015112018901908211
