0
0.010193330422887859
-0.02637546223215598
-0.029865229081743466
-0.04566123751502762
0.038282291374297096
0.13195634009089902
0.0018957164170730382
0.05203842052604368
0.01431356055147673
-0.012297475439545215
0.006003979616629809
0.03905678364133337
0.05243788512669336
0.16725008547998793
-0.01538056383319089
-0.06114806144208516
0.008029382043515942
-0.00917112808759784
0.06227605062644341
-0.12220825891257162
-0.15429907803548426
0.03144761104674742
-0.02112209836053984
0.030974863881375908
0.027839044155365793
0.011558782762729777
-0.021701161308440933
-0.03111340517717204
-0.02151768033912606
0.0034435299569287726
-0.019144913810793283
-0.013243042311926304
-0.1612168813031066
-0.0646127221441199
0.04108217628125637
-0.05171868225517963
-0.010425945251151217
-0.026952164903819572
0.006439831034870687
-0.0018667955315937043
0.17026871713420086
0.03423066806391306
-0.025230358254116247
-0.021471882617023597
-0.015756387831143047
0.026106056535086013
-0.011652444925886251
0.014583561403306865
0.020930763997788506
0.035429551850068436
-0.002906720331975163
0.03727608176526755
0.011431746747032984
0.008371394726939766
0.05479095820233069
-0.024521571412546392
0.015348054741416711
0.011107975178242196
0.04072593881941023
0.022811770652647514
-0.009326478851404784
0.024001019773700782
-0.015287578352120268
-0.006017466438354175
-0.04728906106676042
0.011993477886923449
-0.013347078060412979
-0.017108555886312837
0.024417744299648412
0.024165882001326796
-0.017801450381471275
0.006702114330915975
0.0694214687922678
0.037926012734019084
-0.05111045822732732
-0.0058858107275124635
-0.0009595800002420667
0.03682985618371743
-0.03125010806570081
-0.019688827663684648
-0.06603064695316711
0.059818133727545214
-0.08563550562960508
-0.21641557988197416
-0.005678426681264267
0.01352279148215454
0.04188509152836881
0.09730347160874492
0.0009489138297038502
0.014752548346503967
0.033791913294906904
0.004317043017390352
-0.014351595850750775
-0.006608694979008867
-0.017639305875918124
-0.02355514546746967
0.010117974738663205
0.1257564644848505
0.022828631159604276
-0.006608858343954295
0.005374448999550363
0.014531555960137684
-0.010050759275864334
0.03673598419723545
0.05685210816640066
0.007934324535887044
-0.02585799704256715
0.05667133651696508
0.01105888917987026
-0.050936430392717905
-0.11322645680387115
-0.06849078963579056
0.03371755459242038
-0.020740179284954422
0.030896631050415974
-0.13817816385778198
-0.10696120069866433
0.021516893686115986
0.04609845366842306
0.07947543075814194
-0.07308501767397435
-0.012309602726294014
-0.045636483096256564
-0.0017912075758829845
0.008653368853071764
-0.0019622866620055196
-0.004357262955872066
0.026196611003289422
0.06283214234445533
0.00021652142117365385
0.07050546141548981
0.01460483325089689
-0.004082446788064343
0.0022719997751775405
-0.058243861509509554
-0.06199670185795397
0.010677810495606035
-0.012158496150732981
-0.005217782553931065
0.006199626066394569
-0.010442866694674067
0.005333291436913055
-0.04607210974287432
-0.015559807513726813
0.00906166100038652
-0.022064140629897443
0.18910149670023518
0.03929853658120123
-0.025785006967902774
-0.01674057246905813
0.004562711341410419
0.01562514111413351
-0.001714765608617152
-0.0006150021830522692
0.05663700015141932
0.04895414809367084
-0.06067716264331003
-0.017787836918052916
0.01011353874388326
0.029140878780684342
0.020026689218155442
0.018889376258770355
-0.0027371433035962276
0.0024977243501885216
0.005496983698471869
-0.00548330775282921
-0.010311298381790587
0.00018868612727867423
0.0017019327646315
-0.02592549621167659
-0.03285853399463121
-0.015299962272897568
0.00862464923083714
-0.010509057034271149
-0.04097518819789458
0.002959262337098467
0.008736494012749113
0.02865379752151935
-0.0031266449037205836
0.004312318340334882
-0.034854038526414916
-0.005631567034168944
-0.01307932089412704
0.017715600630064006
0.035296875502368666
0.028719963387649507
0.0003751070060861398
-0.044468203295288874
-0.004781866565940583
-0.008690164746063461
-0.026286889560512863
-0.014880901269880198
-0.010246701902129108
0.07875720297072367
0.06333575325165547
0.012225659456993644
0.00769173808492752
-0.021186085321593016
-0.03118447389969023
0.05499605608560364
0.04338424489039859
-0.01932147557940786
-0.01165932292418803
-0.010866696080990874
0.011898862287970517
0.019743954370070323
-0.006013427201562286
-0.012395727967876987
-0.0271979823626725
-0.0008403692973069597
0.0009406119934986574
-0.004276019499262924
0.06156790169459607
-0.013752533655552675
-0.03894127258096985
0.017221341271488954
-0.19971615404575618
-0.07580689918121404
0.030380666710005458
-0.04359478926378951
-0.01176910214935259
0.07601007690707816
0.017158720340349806
0.009954270042624227
-0.015224982273251827
-0.07189218760252107
0.037466969618906436
0.046128152924346855
0.06389200730790141
0.06594728822732754
0.027128833506178368
-0.04150257695017155
0.011155800987699648
-0.0004825342701920603
-0.010266298717079098
-0.04611131406206428
0.010316737038517071
0.019195572993501858
0.01944424287158294
-0.013524410643708237
0.055636523215070344
-0.02717414184352525
-0.06892934959423552
0.04356620050766506
0.011375258211565948
-0.03637696208835367
-0.009797577522117377
-0.019099519871770363
-0.06934171760665903
0.024443875373303375
-0.0017095371649299032
-0.002378071144609207
0.0037028411038911844
0.0024194455938138506
0.008461753949009184
0.04050842315919819
0.05168237356409894
-0.01054397732333299
-0.06328783049851734
0.017756759436105243
0.010125824902898296
0.03720189876898788
0.021090960909320975
0.005263073799979222
0.00593528999531165
0.013462247353087166
-0.009275316871867868
-0.022078136234167493
-0.004865403626724504
-0.01008328138369948
0.018169609116289887
-0.023089628445108628
-0.03407408277403134
-0.06777264544372895
-0.04100418421509532
0.027381851080960813
0.012675892528797012
-0.0007896765160376111
-0.027561931077752625
0.021368731282654083
-0.011024173358674448
0.05459104559151612
0.04774141291189313
0.002996772382252548
-0.025913752531373006
-0.028191284412882486
0.021147815344123237
-0.0014318652739834388
0.032075978478813626
0.024822026429006182
0.028725597431274015
-0.018456645299400345
-0.012150956988993732
0.000810447255071268
0.016751256947655866
0.031747787812204054
-0.007350034545053114
0.019097735395576167
0.04482882840523159
0.06770117014569664
-0.18619055412773336
-0.05916639348690748
0.032375390134029305
-0.03999092899138397
0.015201917187100981
-0.012989439558435577
0.024029006196851155
0.04688632224112439
0.04272705260812343
0.01789201449549083
0.006039529234586288
0.025308499581700547
0.014358518341589266
-0.06630617874838816
-0.010328732671275946
0.01094494051873623
-0.005939702226244482
0.012545440402045397
-0.005464087682303105
-0.0037008032068079947
0.005080240533106084
-0.01774123449591836
0.0107355202765532
0.007141646877365955
-0.017672135214472078
-0.029882450092862622
0.008927214883557542
0.0039054539060086623
-0.06183672849831185
-0.02070371210188551
0.019197181579614923
-0.01675277588620703
-0.005180108781395689
-0.015626995297992743
-0.022898428349906165
-0.014621176408411153
0.01506987644925161
0.07717687195523543
0.09132040355805447
-0.03850524245212011
-0.07110368819764107
0.089713663475019
0.03974323937506885
-0.03388693575041282
-0.005081721294010601
-0.02108710831105371
-0.006822077004187958
-0.010881692193308628
-0.009561210496945643
-0.02277557947879325
-0.0021883704154557204
-0.033993720842571115
-0.00843439933453608
-0.03435431548811288
0.04312162787303832
0.034773204381825316
0.04426934497483592
0.005010446394441847
-0.0246672258337961
-0.0002069948084517553
0.017016309017615174
-0.026474924661688624
0.010805600623836493
-0.017655365058795627
-0.012653703981186535
-0.017332151885320002
0.05673212795476865
0.09565736421515734
-0.06772591376424787
-0.0200936237465211
-0.05881809744083185
-0.02907515498447543
-0.015861314208471086
0.024658347597032997
0.03254786715861934
0.029790998460619417
0.0013759780994243701
0.00312409170160066
-0.04880483622672755
0.027308576782271162
0.04671008081965073
-0.02148749845279171
-0.021626552443496396
-0.02469729682081136
-0.02827427654785382
-0.03729000135656461
0.013456929354586011
-0.025695985649024294
0.04607606178288843
0.07516237270363696
0.012675596124702737
-0.03792493086881605
0.039791919980747756
0.05140873354738155
0.01827117963948815
-0.022523984537823085
0.0026460427409933933
0.07508533729271841
-0.04827524175583326
-0.021010857081300658
0.003993164352371927
-0.00420713282794485
0.007755975409411372
0.009044078295306627
-0.014359759243609849
0.002868855838408893
-0.03940127585729264
0.006951024710586472
-0.02997182341807783
-0.0038929362878914464
-0.010161984700697735
0.044563085506519204
0.02046315592182938
-0.036957575825112686
0.016552409157077015
0.02559899172758955
0.01308340483758282
0.0072921319531609
-0.01629693717051644
-0.025107288650433116
0.008029646270900949
-0.020817416625873084
-0.025839742243643184
-0.000443946594672247
-0.02667216836944143
0.0020804624963039475
-0.05127420757642179
-0.05241255943407317
-0.02778780075204127
-0.0179173760840425
-0.013286085752672271
0.0800078544215277
0.057476566899305234
-0.0038678741969557697
0.0062812269700941534
0.005395833549849257
-0.002133199103213014
0.012855705950764938
-0.015403667419307272
-0.02517754037997859
-0.03226293546197404
0.005998811046312987
-0.006296842153797602
0.009422017519484984
-0.059867257658443064
0.08220905250745808
0.12107487671283608
-0.018481277855578702
0.0387814493460908
-0.02417653620666501
0.027190079513734672
-0.0437958617744712
-0.03732855978769324
0.015012666329082052
0.07739499306964366
0.09405795993877784
0.04055085724504404
-0.09399408476710028
-0.05476763860363485
0.027060130467302632
0.00818756591309066
-0.006527082365339319
-0.023332178436256547
-0.04847253043413234
-0.0427746055267119
-0.015740543710969335
0.02532821740902048
-0.0464926990768593
-0.02953437207575219
-0.027472597855482627
-0.010509870098600872
-0.008072218526924097
7.987524906971248e-05
-0.012173993142171359
-0.013864128788065696
-0.020081356794336095
0.028268263698030534
0.01430884982096196
-0.021931531250263248
0.028050651583573682
0.014192942373859149
-0.01363085628845598
0.041391626065038344
-0.011778341343498831
-0.01846858985388797
-0.004103830771762097
-0.02624154276402424
-0.05026668540824313
0.05454394900249959
0.054676697519727216
-0.04183698595869041
-0.013808965844276981
0.004578652281450074
0.08783755445525401
0.03909384626854232
-0.012902052456232807
-0.007121216379771
-0.0023714931249513237
-0.030546521969223486
0.0011432242264370488
0.05870059230782048
0.153637271154261
0.09883613702840335
-0.015388873214392872
-0.03186459561026966
-0.01854675964723433
0.03264878235052467
-0.029815133585205017
-0.016508130944384358
-0.021699567193171353
-0.12310819959988394
-0.03325701303815252
0.04237535302948939
0.03653612171138692
0.039700543686623124
-0.011510127188379791
-0.00674892838936302
-0.011872430914884139
0.019723987043987336
-0.008767162089191913
-0.06509504871431471
-0.05524206592747491
0.007207286050701142
0.0004427506579484158
0.03283559145694396
0.019731475585581033
-0.010598083048060305
-0.001182910635206875
-0.0013475344870708228
-0.02346524032933862
0.012923892934674795
-0.02207700528847206
-0.02898912132733726
-0.0029306309692526955
-0.021453502107193066
-0.0490335128438511
0.024424595710777368
0.09555198409977723
0.012018167754190557
0.012133442707702195
0.014936698112875377
0.01641661225347263
-0.142079166678803
-0.07228946636864202
-0.012778190914332648
0.07655472120847831
0.012403295958376467
0.02076650940006722
0.008910811508440291
0.008762980821717037
-0.0012372865898257106
0.009443424559343527
-0.009682168051471606
0.014312793280437412
0.02903891268028861
-0.001646971914150754
0.006329132223352228
0.014694006759598978
-0.0015492737185528987
0.014004452765395223
0.039342192736885676
-0.0010668696649904314
0.02329548252066764
0.0047588803290352115
0.029135578757758043
-0.030271461605098627
0.0903752068333751
-0.11981776932274556
-0.08734771250611753
0.08082505145491703
-0.02877892131375155
-0.005403831673504912
-0.0009794728180984977
0.0004337924170107398
-0.01693910005349144
-0.01389415937114878
0.04009446271069912
0.02522879323115741
-0.04469362022896038
0.008044607924114933
-0.02575599707504207
0.06421963744828196
-0.07130884865465784
-0.10424910395860754
0.0185858360880316
0.01650854960064041
0.05871300404458437
-0.013655908005463386
-0.012316693617880107
-0.017313015668596624
-0.017084888763761998
-0.1211732477155767
-0.017933643720520684
0.06305260097908555
0.0011045344593707534
0.0060480292701126865
-0.010999895674638167
0.04241409032337876
0.05272046500735546
0.0032726501636488286
0.008081797763114634
0.04393407217409353
0.007773280996722066
0.016072717491217314
0.006175400194100845
0.035363568845064086
0.04980442097541199
0.027905794350544022
0.021290789013427878
0.0013470946430666647
-0.048551163339777
-0.0359483339640336
-0.03197444362916383
0.018798039793491254
-0.0012287373749775602
-0.13547413810275608
-0.036466055531740316
0.05277593009989112
-0.031215605235356145
-0.02221032678296451
-0.004446897424079161
0.0047801563121092905
0.024953674039534867
0.0022108385416285754
0.014914795571128764
0.012222800758711043
-0.025341701637788264
0.004663449265593695
-0.013738008216832931
0.014810902725738947
0.049578329830305946
-0.005224213520289717
-0.026502944957067946
0.060402427199176885
-0.01926998336439867
-0.07657906311168113
0.01719719548959964
-0.042470469892104505
0.004135821825554091
0.0070134485258908415
0.021777801698788384
0.008135410682752071
-0.0127215794717801
0.0014452837288306433
0.016538925524494246
0.04685410730502891
-0.012412078498808274
-0.05740040067918699
0.04373944173587136
0.0060199898209848226
0.05425543144487056
0.026001393426311
-0.02233704432676328
-0.04426306866443764
0.030961061748525975
0.1386693117235855
-0.033241743864018986
0.005671337458141683
-0.028452130157293833
-0.02227901761029583
-0.008405807471926704
-0.019366411589129932
-0.011811425229464469
0.0044313841773484216
-0.04101725793141414
0.015989302361043217
0.06561794736266184
0.006520971181907586
-0.013883004511073865
-0.034019601883975154
0.006394813144783033
0.06290647052439549
0.08300158538129108
-0.04728047189010422
-0.048446552323222015
-0.009879467916367518
-0.007553865456731924
-0.03752657632803916
-0.026460555495010515
0.014101078108841312
-0.05245886805427388
-0.0409141152243168
0.0065289578201970615
-0.03356119273397847
-0.05939357226633321
-0.02372886173827022
-0.019311925527111695
0.09498558353828397
0.11199064291102476
-0.026901414724183354
-0.034604560466124375
-0.056901854954913726
-0.030776903560599308
0.06982128444482973
0.07251703613923534
-0.006043285582297938
-0.014855385343365089
-0.03818728354167948
-0.030773483719276757
-0.01733076194311256
0.02047493511384312
-0.034058987512303227
0.003515368667225042
0.07304062615531401
-0.024379536190371524
0.07521167442722904
0.12290685681979364
0.053784760004447665
0.021130596448118467
-0.027603275198053893
-0.003747337212467251
-0.02540072971018085
-0.0033010922671657997
-0.06048726666761658
-0.05911861686103097
0.06635124270397746
-0.019016741715549314
0.04507380619066186
0.005056869392721453
0.003403941262906237
-0.006183593107220003
-0.03955257807113644
0.02519385216421087
-0.010227520857464893
-0.05413239377025226
0.0081841629585908
0.04701918642553399
-0.0012805898560828218
-0.021973248162718406
0.0228925173956748
-0.03751340527488136
-0.022724777171861627
-0.0034880911298823384
-0.07362699117008528
0.0296808673665139
0.02541120037850302
0.07580625958170885
0.02714885928433775
0.0010301108341856306
-0.026362181261450245
-0.07417232386536413
0.024801245764464103
0.031420109532067676
-0.03782509749350326
-0.032262240600372485
0.018051388562961256
-0.003282566795135618
0.026891690261561674
-0.06087314614876376
-0.04342289344695532
0.028916059173645026
-0.04797543758520803
-0.00977150491530831
-0.02214939403991993
0.008997552465761683
-0.004324834467467691
0.024167922442728244
0.0241554094017347
0.021952185253083317
-0.019427162010454295
0.0031596623024359193
-0.030569673646669952
-0.04227536363881707
-0.0021290004767285375
0.05739445643892242
-0.012126586652808875
-0.04478708937675532
0.030925913980005524
-0.014744816243907534
0.025732381283517847
0.03648611173584678
0.06553564806776155
0.012781389584777623
-0.0316266984117634
-0.018599458211708154
0.02034753789921206
0.013349213042593237
0.019044282393441213
-0.033168239064606864
0.0017699858893962942
0.014633570909231586
-0.015790687754735428
0.12088420824406779
-0.03033029023419652
-0.03827254743083693
0.009410363843831725
-0.05694199800380271
-0.0018471029549170616
-0.013282097245790074
0.023291050197786486
-0.014320007179458938
0.0023601014184697344
0.05215934066999763
0.03361237038756238
0.0007227449438280099
-0.0224329313746585
-0.0006266522972375505
-0.02769535379625261
-0.010956284847312637
0.00039373042653548994
-0.019005833664354363
-0.01508825534958487
-0.0688279081784047
-0.05605326846526633
-0.01651116579866243
-0.02152546163741844
-0.007662784952059369
-0.008775342962931035
0.026984292728738094
-0.021396851781446322
0.007326460478002822
-0.00921697538217452
0.05568999088459768
0.14080490997362954
0.0025041781914934363
0.030385840684976184
0.03207827508786328
-0.0713493602960217
-0.0124118207523964
0.036143850598138516
0.0051721616482750124
0.01422138212093002
0.04460933810847104
-0.013733195954042751
-0.008027083340495282
-0.01954569327036188
0.015319193340705035
0.021651139176206213
-0.04980429894324795
-0.023230692864885102
-0.07947818680503488
-0.025455369681941446
0.00512398358343297
0.02085820868192738
0.01596442205734956
-0.0037623882456051484
-0.04527494291908996
-0.0010557534795909002
0.011176896575809362
-0.042433965493415035
0.04351050103330231
-0.0203021788327182
0.07693739610715312
0.08184605235970864
0.01787404723760954
0.027171312431857542
-0.06141385858684511
-0.004324123725035945
-0.018492637695678396
0.042726990817510836
0.02462215959315866
0.01683906264888985
-0.023091666170773593
0.0665755573897652
0.07883559847585844
-0.06355178745680731
0.02442033991120877
0.005987764161104414
-0.04426215424268767
-0.02660158415350099
-0.03538527472813555
-0.034405268663866236
-0.027348381435286902
-0.003193595484508803
-0.003671869390538398
-0.015771692888358377
-0.01677827118491034
0.019113065098034815
0.0006659485018971413
-0.02373999866540307
-0.0038280219697376344
-0.014163625639350422
-0.029274575599821155
-0.025096607035705914
-0.02722723296152573
0.01334687167277556
0.025969814928513912
-0.0040389560499848685
0.030565301019567927
0.023931672386960014
0.0037061859304789177
-0.001987916901959798
-0.07472146227374422
0.01126392290012735
0.00836335345219309
-0.033263814517409174
0.18494624890108485
0.002651878043532898
0.006105027925287812
-0.03439392314574794
0.0020258505863061014
0.005613096790000571
0.010500670447381018
-0.018684335865433315
0.0010808928300973346
-0.0047237195164816104
-0.046558088330907396
0.02774895134903855
-0.025365896285171097
-0.02290981025752545
0.00728772894873151
0.004752719210328222
0.014795899126550188
-0.010027368282061019
0.024014779274220917
0.004434080590191568
0.009026766443291505
-0.02041380095276025
0.0355960499242286
-0.00536861844586119
-0.011853631674014833
-0.026727732503221493
-0.023063026660979896
0.008277619311616037
0.02494189138896063
0.08689658664506181
0.004300124008725967
0.026854592863950002
0.035724589641973344
-0.019823024814195282
-0.022116786440136815
-0.013236416007732694
-0.009910159302637889
-0.0072598653452703435
0.020957934587804664
-0.005089307736197678
0.03213949841825401
0.028236827698706547
0.024415165251484062
0.014466856646238715
-0.019368776853993012
-0.01392566786498037
-0.017396323147279073
0.021323120943659957
-0.08689382790393774
-0.07559224635924709
0.044484134219520306
-0.22382093408146317
-0.09057435012023611
0.033431097876365876
0.03996727825095087
0.04296555150453919
0.035086558147374054
0.013087875883909132
-0.02505725825614612
-0.015814288252510775
0.04890276921867027
-0.02677811538148314
0.06784856238492706
0.007028948783209319
0.05224225321540415
-0.003407269161233064
-0.0051239198686644245
0.026154880930346125
0.004959438079337138
0.004648596656006908
-0.05329065236903609
-0.029510198511372345
0.008917236063893984
-0.006686036707188578
0.023320107524304017
-0.011789193004848236
-0.015895152857886365
-0.010191617632176497
-0.04724024875431352
-0.057433989297491383
-0.005342118888318931
-0.032644576848740704
-0.02142758839271047
0.0017776500640685415
0.00761469284065357
-0.0072866213243646056
0.02431470718905427
0.10001359365252789
0.07845001634460712
-0.006816329828264037
-0.013373114254888302
0.0003018289747040817
0.004992867228308701
0.020230601336153727
0.010491457491865074
-0.04385937552464933
-0.051145145445396265
0.007338888824732778
-0.017106663814297537
0.06532307622529702
0.07181137525397012
-0.038482649205677295
0.05572972431063758
-0.057728392023270646
0.008777819557955355
-0.03746201081420676
0.049291494582612554
0.022163808779346154
0.015238952411000947
-0.006062885748833901
0.010296228761612026
0.058061054124527355
0.02284812531309269
0.0026702820874781453
-0.022017524139988937
-0.04799634200851498
-0.012427337721827901
-0.013618138246340662
0.02735874802055092
-0.025935232049175624
-0.009654771754729752
-0.044099518657079576
0.13164986055176636
0.1129209260963952
-0.024148434342002572
-0.008807956809044766
0.02729822281276902
-0.10784449654154167
-0.05240993538396497
0.010615377496537596
0.0038238069580469078
0.008909149685423228
-0.05783526716185406
-0.026507562956867597
-0.0012102331523698134
-0.017470300531768925
0.06820184374058139
0.010041314785911496
-0.060089776455167485
-0.04742561713257023
0.021920780999232264
0.031067944094147443
-0.010293269078497796
-0.01787474064833332
0.03251572790702341
-0.010833748166229484
-0.005933593341917168
-0.05553721215576403
-0.02925313203682427
0.012730419721068123
0.0023358552271085715
0.05673117918279549
-0.005379214645318492
0.013064043989060182
-0.0076083538476258835
-0.029450057428931982
0.006649072610661232
0.023438959804994643
0.01723739803031292
-0.00390756905220303
0.002119442229406534
0.052157222276868996
-0.014418661072847026
-0.08973993709306195
0.017796578783036265
0.08448616061817886
-0.02027337863975992
0.0016944038904346175
-0.0022567082483562367
-0.022957750634209097
-0.006080396032077114
-0.018429759736592926
0.012623923951405082
-0.024647544941136922
-0.010064977288130038
-0.03041238864421664
-0.005604668759708582
0.033749871689630714
0.002747695632555478
0.023906620812603023
0.04770814016701239
0.0037598501491685867
0.02840173127624355
-0.0895346732102786
-0.08350635310577086
0.00956909826316104
0.001479453734848799
-0.0816874105547101
-0.008853584649576795
0.14057350399227697
0.02479862592482175
0.0217473321801632
0.001983171261966595
-0.0029858042798702957
-0.02735600552671459
0.018022005201459627
-0.0183969263497918
-0.018581976120614453
0.04270871163237285
0.021294064952616952
0.028838453102126058
-0.017523313431204043
0.008738065326741309
-0.0847593921704884
-0.05534517551739064
-0.004881486113225685
0.08530251387621739
0.02384109450198434
0.0016552272419460552
0.027808929129646068
-0.012801048059828209
0.003870753010889833
-0.009494713047958948
-0.014338326764064543
0.0066531295162816275
-0.008736601820979089
0.04539896451033852
0.010094693495530396
0.004028041535740981
-0.04620104123874178
-0.0288674944013287
0.0004306315109516108
0.008381461468387997
0.036550684145978625
0.05059883867297674
0.03156770962671703
0.015042227217670106
0.04750856270252363
-0.021541162337634593
0.021266961871470837
-0.09177370292817788
-0.11447406564868305
-0.022298906218116407
-0.0183284264247615
0.011739920107305063
0.004035195586157207
0.003903327003646521
0.009683546522778644
-0.02731126519836456
-0.02485758440812425
0.0032080563581548907
-0.013531036344004066
-0.013301856816439818
0.021064614320071586
0.12719547329211547
0.031331603461538515
-0.01204411920135027
-0.004843659420384641
-0.0057255705439211
-0.008444723013484432
0.011112641052732066
-0.027588697451575633
0.006916397043213046
0.009525071038824745
-6.294149851219044e-05
-0.016447432500130525
-0.02054425617482062
0.029795414930614713
-0.00796805432000122
-8.340065834007811e-05
-0.015531619914160074
-0.009652561189533455
0.002985580050605634
0.010768577229169863
-0.035303864798171415
-0.0030485871636884597
0.03502636873172269
-0.009777621926290683
0.021824948559761102
0.007354156548761472
0.028609399448254413
-0.007149716428431219
0.013373808610214517
0.03569116713834861
0.017523979540062743
-0.03324413567955998
0.014175285160297292
0.05597803891874672
0.0344998782466061
-0.010360301165187024
-0.0033854760657725373
0.008344097066518353
-0.03650532575633642
-0.03602704477981161
-0.008837450545734107
-0.0022789904353272055
-0.0005379716445582934
0.010317792881009999
-0.02072943792113222
-0.038835768323394894
-0.02441847397994624
0.02105809530568317
-0.016138881110412555
-0.046091311796019586
0.0017954985648842019
0.011248153178621864
-0.05112023107223269
-0.03700494760312122
-0.012677139960602291
-0.07825847183333384
-0.008973784714706314
-0.0006270395305312778
0.0025899549155909687
0.02062468034495101
0.04589951214092572
0.01442638873378754
0.0023254403345031155
-0.002499418261865051
0.01614147851035918
-0.013161145368254494
-0.028769241792678625
0.014038974351766828
0.004170739180081633
-0.01946999160612274
-0.00422145444986817
-0.01065068704367935
0.04430722043367936
0.19196740060985715
0.020556773156184562
-0.09116255738458459
0.00998615744547179
-0.028356258321998864
-0.0007840792775060684
0.008569289417553243
-0.028095666593586067
-0.04210589455911991
0.10665672383701308
0.07025681246035494
-0.005758801607012448
0.05567173844606148
-0.0010761329147536728
-0.022573862029747937
0.02023456251757912
-0.005822452752141285
-0.049358312824502905
-0.042090838086774426
-0.0022648260485223968
-0.014857158214331194
-0.018924188015944827
-0.006360209208633904
0.009873496234313633
-0.012934564753661679
0.0470300432088285
-0.028168001985896585
-0.03944767397595901
0.048968800814005974
0.040880272371901505
-0.034543684830464
-0.023119292053701623
-0.02673532676112378
-0.009437558982846638
-0.060325172366878684
0.03201972012030907
0.05379565665098969
-0.11495376345884913
0.010637860374031378
-0.014658522288762965
-0.03143331933252429
0.03863706452047596
0.12536091862330953
0.051433575362046714
-0.008995266407070837
0.017128202886905423
-0.042503378921868985
-0.025387629485562415
0.015964993222991764
-0.008024422864036118
-0.0007405548807585991
-0.017766674824725288
-0.034584704510732145
-0.03747850189740379
0.023436782314955308
0.06036296145480292
0.007273631085035267
-0.01812953673929603
0.02032958849503549
0.008524188666041677
-0.025578786844110607
0.02038795692423405
-0.025076619211995572
-0.013283942522002268
-0.04498368541721367
0.0004912404702430024
-0.021627152591608082
-0.01927371703748856
-0.024933502911988474
0.060204560271570874
0.062307021413087936
0.043786222644193955
0.030005209865560746
0.02385145721887212
0.07232132157681892
-0.017391071108034915
-0.035849274341472157
-0.016778999718010782
-0.02261791913991667
-0.010927785405422517
0.006602764642492387
-0.01108672720179801
0.0011011010722066896
0.03255741675637469
-0.00564787943191863
0.007637378683882252
0.031512012093147156
-0.011570113591088324
0.023925846415415612
-0.016691711788609072
-0.05326124137401611
0.02416778918254331
-0.017736217921078018
0.008184120685960977
0.021248091654190858
0.005733255825353315
0.006416303367914762
-0.006612438699136967
-0.20852731620507733
-0.0755565472091691
0.028432115071027633
0.03213952056769946
0.04093033645874302
0.07635912959421111
-0.01419492571557544
0.004401828693236873
0.022095186185941876
0.008912450803618042
-0.034321128598534555
-0.005868933049480924
0.005510616417903115
0.025088566543291325
-0.0018344482972697173
-0.006872301138624557
-0.007449424918996386
-0.05180993804149941
-0.07514627543425194
0.040458265661559134
0.03535470715883058
0.012349339111836501
0.005436165381828034
0.054198456848512
-0.04270317687113374
0.022352724907397713
0.016834166979616073
0.0028387751627659747
-0.1355956953402346
-0.06332140974439818
0.048090267983926224
-0.0042526175549638815
0.004829656467825246
0.03437335229831999
0.10468874189094853
0.02239230333969851
-0.001006732290165078
-0.01898977509116561
-0.028333079007633395
0.005544998378588992
-0.01736553040556673
0.03720022377181393
-0.17287416936195443
-0.09179269150636843
0.001868143418081018
-0.030548625649996823
-0.03774019958807129
0.1185099314648368
0.19066524104139856
0.07874065597134533
0.018607754527367383
-0.0468609030910306
0.011608537315274935
0.0129414309198731
-0.021663297935819344
-0.03524703747470936
0.001719312937631591
-0.03101348901854735
-0.032852180041483874
0.11967947243208213
0.07133239791756472
-0.0586522920781048
-0.010835950204978675
-0.018440852751070533
0.04771961120705782
-0.005899219830915729
-0.020248367070761285
-0.0005660920590349688
-0.12672402058529336
-0.06043327118243326
0.033179420137170595
-0.0634411353208796
0.0007246474206156473
0.02594101244420217
0.017274815861587318
-0.03760765450686605
0.05443745894063814
0.1695528283266736
0.15296575047188626
-0.030014184620187276
0.007973640665252057
-0.02765309278006684
0.006150929817470503
-0.007666456839672623
-0.041053296478712996
0.033918386859918964
-0.014831664004893884
-0.04737991040997706
0.07914662831157473
0.0041217560483256255
-0.011231282203512978
0.022789317858366073
0.0447661439057114
-0.026468163227261362
0.01685221151509376
-0.025115545810918568
-0.20751673306704113
-0.07007980159763756
0.013465442561869679
0.0011386810452998436
0.01658343714083914
-0.04040970734158897
-0.03620011536057629
0.07281717510557426
0.028212419022302204
-0.009555694634565178
0.04337807776409775
-0.014017069062446683
-0.0757236138766635
0.05671348419347069
0.027849572029519962
0.03888312558951984
-0.024898729500842286
-0.09006486375815109
0.0182139934641012
-0.014420782226276041
-0.016688472088303326
-0.0053701664795930805
0.03165959300999268
-0.003109280233699651
0.001774235721719635
0.0003484791815322679
-0.03988073666404662
-0.11465886083841251
0.004689020451223432
0.031096304981558322
-0.019435030579679723
-0.03115077395026699
0.05534349942857493
0.05557472643613673
-0.012109094599569471
-0.0227964318178395
0.03703669725301088
-0.005744756234466258
-0.014040622377741884
0.01838731437589
0.011414151970552748
0.0853924169888856
0.014442139944182761
-0.029798570663275882
0.003386099119408502
-0.0015970813505560603
-0.01375771502040834
-0.013652373520307024
-0.020104797958298955
0.035550523986914655
0.004137866418864835
-0.018667111349675546
-0.016189941515659938
0.01631312106990282
0.001175907065002449
-0.046277426380020095
0.008909126500408437
0.06169697168380685
0.08403417014199732
0.05975042732395914
-0.06403329072588716
0.00044004134849437654
-0.009564495788079696
0.02523456907165233
0.02331016969074159
-0.051823501574906616
-0.020893534937324366
0.0489578626855262
-0.0045479469285682715
-0.02150673730426314
-0.02592446387336932
0.05076152924299384
0.009315857345349206
-0.01231194945799097
-0.05191436178984179
-0.04010984005000804
0.02478970938749545
0.019155175687028108
0.026419003964091567
0.03610306955587935
-0.004087435532512439
-0.008032218183350351
0.037175919491602684
-0.004144452270723564
0.0062187501897595365
-0.002006773567875557
-0.0029622785763911284
0.044380900367302474
-0.005015918789757484
0.02400041642238635
-0.015388522915464864
0.037575582193659085
0.014415728471607778
-0.00930681711958585
-0.01406523328228665
0.10395405426177835
-0.15090739622497742
-0.17209543415890208
0.059651647110862856
0.11593805393081459
0.06279098858187507
-0.0033290599106936066
-0.01970607812234929
