0
0.0014479145228922592
-0.08966949956830919
-0.09974726364778336
0.019865522475683926
0.18352511890406067
0.05789834493265068
-0.08623947757557007
0.019980834898671005
-0.05373980054248418
0.003913099617008958
0.037648202357106995
-0.025762483853162377
-0.017679264908361518
0.008909890790051762
-0.0034755302874225546
0.00787368799421384
-0.03689572909803866
-0.040124675911731994
0.02524084869116217
-0.005935566171167578
-0.01866862976123341
-0.0015774320789062445
0.015033934146256128
-0.019296205337251883
0.005488977218658063
0.004694095522343533
-0.0029044278341760583
0.010023684737078965
-0.019896893622510455
0.04134634421793527
-0.04787549532857329
-0.01581436521648972
0.012779557977904353
0.0026804069887862627
-0.015224647318756617
0.013266458217225097
0.0005226629508455171
-0.027209036236884403
0.02590656282765479
0.044524980687592884
-0.03643824852981136
0.03408863731747076
0.0031322692525154834
-0.010040684106979647
-0.009297835268448275
-0.04810040108986972
0.014055954088509544
-0.020934117093984236
0.053266511175914674
0.026181049302733017
-0.001970226279837501
-0.01399977714247895
0.007657089961974187
-0.023568164451081834
-0.01019370168398299
-0.029168613251001504
-0.07085578990034747
-0.02713077466828969
0.05951233765655518
0.021121386980775467
0.012186890046942622
0.04864214958365156
-0.025799834806825035
-0.1331243905656826
-0.014780032549760654
0.007044871435516202
-0.014658743399400192
0.0024071131825668932
0.015300451348681254
0.009340148414535673
-0.010319421224014571
0.0009272705457602935
0.01479135181668632
0.016223746689547423
-0.00811224747666152
-0.0161226435291492
-0.06677213141925743
0.012414559387618998
0.017042054342083314
-0.01976154466782035
0.011447995072730557
0.08484789099574158
-0.025368233505191684
0.08452198745995756
-0.004242869393398001
0.06040770648737602
-0.003062523914395807
-0.04812801443493293
0.001645725857383815
0.09378282413384505
0.042476150803692575
0.007765593977350547
-0.023304352252782164
-0.008794091209471135
-0.018650192720247784
0.03386222315867925
0.010521825193889495
-0.026286778494001094
-0.014261950923173571
-0.12647089661563676
-0.07086563941305861
0.002871974706814429
0.02144606420014395
0.009263752782451907
-0.008452340417870385
0.09793570978271329
0.04924259787881323
0.003871624370468691
0.015616617930200005
-0.0016081563170475303
-0.004576775040161932
-0.0021368075970953685
0.0322326385953079
0.02942154607548922
-0.10253938555300257
-0.028535794483278053
0.04089603187587001
-0.052973904528829496
0.005193796362612208
0.03351354970100776
0.01406001671906226
0.027431429202752308
0.010588785262241288
-0.011923631637944979
0.0071334979415519344
-0.023127661048897023
-0.006025584524384323
-0.007952871022899977
0.03167465330812083
0.011178283158511469
0.03256831446939502
-0.02411312951510807
0.0014848382025012628
-0.034400387524423655
-0.023388265156232557
-0.023204698017034116
-0.11347794833186366
-0.04247542070173866
0.01218028578970709
-0.02141648474271301
0.011996397931412545
-0.02555144169410705
-0.00972848948608704
-0.02719097581394651
0.01953135340317703
-0.009200695273476302
0.02219151980134036
-0.012431543541545612
-0.035794742747252
-0.00832918186626111
0.1864114912585998
0.13149497274924452
-0.05921592439302832
0.004362098120346197
0.034739035898632774
0.030144359469915696
0.04332262494838207
-0.02037852277811671
0.05769945983383876
-0.0008020128892186689
-0.012598290982513579
-0.03945667526135301
0.008305516317794241
0.0312732847818288
0.04312895030055615
-0.05697835201743338
-0.10746818506435653
0.04969716862808609
0.017358942988594264
-0.01767766867034299
-0.037233214221269025
-0.006108312946776971
-0.015204705204321127
-0.009699078870329838
0.020523841418870304
0.001836002512777601
0.004803509055121063
0.09053298952399813
-0.04614271883306696
-0.03151050970547694
-0.014843411821471326
0.013466395250520485
-0.05251585176730797
-0.029829569590455293
0.030626576232925137
0.0162006623058581
0.01990770591902613
0.012024749135558645
-0.007018739993876027
0.0027207853467416296
0.02652013606575819
-0.17481996259274493
-0.048099921305680964
0.05712674666271022
0.0031096969353471113
0.02677532638920226
0.021989458885601606
-0.013643574271829502
-0.03002574338333359
-0.0006880357569442474
0.015681599421973908
-0.010027292681735642
0.042554242991460815
0.09451730024492676
-0.0023262569644571566
0.043235413898213025
0.009384798046297046
-0.002679970006403941
-0.016245696132363385
0.007211959565231601
-0.029720756690048863
0.022017071480808836
-0.04906672649152849
-0.040350214675390954
-0.03024455359655658
-0.007954739935796611
0.0041438035390353985
0.01576472314359461
-0.029688231947633054
0.023440968399986255
0.00264419278560557
0.005954062180304761
0.025918718729501564
0.024432155587914617
0.008198006685709056
-0.0023839141033606586
-0.024365586311384173
-0.029354281623431067
-0.01825751174092534
0.039519040189963106
-0.03710142715679202
-0.056671164607214344
0.06622202820525286
0.00613494130923818
0.002184810121369646
0.0010721270904423973
-0.015580029197856334
-0.012597697018582946
-0.004727791198684243
-0.0033731354189101485
-0.0003231469624813293
0.023819035062598314
0.029342014237654965
0.005144811275274446
-0.02991243276309699
-0.04710175588263622
0.02383329690530042
0.015088947800158065
-0.030678520942083957
-0.030454181056175925
-0.005111662812423618
-0.004223523717404242
-0.00972859305933288
-0.05083237232592388
-0.09091049790147512
0.0587581515752872
0.01329656046076369
-0.0010101910081209186
-0.014118044312274213
0.08867111300630572
0.07592531774311265
-0.0425588342575131
0.03724089761045897
0.010095953309997654
0.024907032063761585
0.003149152159037421
0.02438474450192919
-0.011464845702596626
-0.015260990485926197
-0.0029804207044915455
0.010428658224328638
-0.038983845609300606
0.0918670058790626
0.12774414938144374
0.01475845278047083
0.023102073789807092
0.031925670902476375
-0.09886551238417873
-0.04605219188061405
-0.039494259306204316
-0.03795999200885641
0.01627089895870654
-0.029922546445550063
-0.018929821489977534
-0.01352271749636379
0.02596694228788837
-0.021790142662024902
0.008865131961355825
-0.0022100176096686423
0.02432695621771889
0.022803166834272325
0.04489981933520331
-0.013474534942972582
0.006448416944112284
-0.015554302608070779
0.005484739709249798
-0.03144090247576836
-0.014469577183709037
-0.011761125801243656
0.0050590774739005
0.00816708803142978
0.005306704803637593
-0.0007621201971124649
0.011618066423967262
-0.018410840670742664
0.016013291992501236
0.031407420131046575
-0.03485766672366782
-0.009555562615671864
-0.021429099051185334
0.002418224275052036
-0.032299583697711416
-0.0025245621932598445
-0.012950668077771052
-0.03751945381682436
-0.007044121772789958
-0.014731400124502381
-0.0162367461544614
-0.021838457591216397
-0.005440292051123228
-0.005745467459108205
-0.0181340519291509
0.012999663627164097
0.021044393726395993
-0.022859344186676313
0.010291394704109976
-0.00872990947259408
0.005141227821068587
-0.026313176776894095
-0.018952674344109667
0.07296507275991906
0.12166679844765309
-0.027226801152612997
-0.02385778202409834
-0.0029834884511887655
-0.018300569003994845
-0.0451390652003451
-0.030891213552143672
-0.04324307051778716
0.0639117870290444
0.17218566063923008
0.02111807589075865
0.06231714707020786
0.0011776962408143348
0.025049938262326626
0.000500088052584172
-0.020264715619789892
-0.004894757500436691
-0.04438375446201931
0.03936389104268187
-0.0010382095664464572
-0.026540742810091125
-0.002389689626550794
-0.020562913421970988
-0.018362081474219874
-0.009967370764058719
-0.01309510056469283
-0.018821401691655013
-0.021152014738730254
-0.013854513616418282
0.007105644904900928
0.05759216585182961
0.042486722714793396
-0.04007477710591209
-0.03817407345891192
-0.039722537661101044
-0.012047373096286527
0.04675741939298653
-0.013309774145242982
0.011229778218087448
-0.017889988613860923
-0.03245869315866444
0.03358146961172998
0.03496828380382347
-0.00039683717602236263
0.02279058789624334
-0.0009838314790055367
0.002711925533488277
-0.051180099577361506
-0.037977587860653694
0.023017713862179486
-0.037218938386832295
-0.013056446770245487
0.07246339765978892
0.00377106370537611
0.021620130871042257
-0.004050832124525731
0.008061496987548421
0.02430610628592208
-8.4897339275957e-05
0.011685102890358214
0.0057999633291092485
0.0008353492598824504
-0.0581145956395847
0.01843699639082411
0.06787656546075306
-0.05849788848362076
-0.057547586538672715
-0.032587631955111954
0.009619544719000563
-0.002421825783677059
-0.005889361732429996
-0.029203384498144365
0.02289523531052284
0.00014492652253870816
-0.017768688409298582
0.04107695759765556
-0.009639184084858157
-0.057598540596220264
0.0028404794839201036
-0.005433115352329605
-0.01615744566511562
0.006464676220777996
-0.0007522525326646274
0.03988100881042987
-0.01102943178605395
0.028156777011511036
-0.019782884238414976
0.041664808317653956
0.03836659994637558
-0.02220291403838452
0.014067024423348232
-0.027618397232268176
-0.01585100945441018
-0.011327725050755647
-0.019979619362365555
-0.03070898969270728
-0.03199598528930631
0.03551085636230431
0.0028556406170333645
-0.042595789329774966
0.04320197681318134
0.15468602966875714
0.010192882935159384
-0.02693434572841651
-0.019491060134602996
-0.01598796382363913
-0.0010972993831966616
0.014718679644104015
-0.0010199353942730986
0.009865660561496209
-0.06631665765313532
-0.03548987168203836
0.002293545636400577
0.08682811194258189
0.048938120480714054
-0.01711711565179072
-0.054916122425466965
-0.07803896114833518
0.0733564092718471
0.13059307465179373
-0.009005467593117295
-0.009182478091440365
0.024995457965019213
0.05144253141972063
-0.0017113585233266056
-0.02045382084768652
-0.0030387967990713636
-0.017712386157588477
-0.056373692457516895
0.00010599701466574617
0.012096942469747123
-0.052093386020720764
-0.03663991212653735
-0.0035828086973577838
0.010778703810302508
-0.00953307190400972
0.03445201795703144
0.007612858571214583
-0.0012644695971908313
-0.0029176815004230998
0.020092608698307778
0.00958363991093789
0.032427926518069194
0.0009129702402170042
0.0189983063199714
-0.02087188960793414
-0.014095106304598072
-0.01913254910769679
0.007246099893026803
-0.024011624247620753
0.008904691963207511
-0.051515892582299626
-0.01403442808183684
-0.10279925904075268
-0.046047484589509184
0.030033061051267882
-0.010479896544304297
0.016946740654314778
0.04118402458808748
-0.033124740649260555
-0.09269088814126519
0.025407532925483103
0.0064060172584442686
0.016367085499999066
-5.552315357553975e-05
0.015111732317646188
-0.010032278782283889
-0.005598065370172706
0.09370408552725172
0.0442624835348038
-0.016496656423269827
-0.007673414135308606
-0.012949160790502843
-0.00897377930252258
-0.007557493228689073
0.014707543053464158
-0.004631835804639867
-0.019029576173897604
0.02129059962161767
0.010580907288102796
-0.017131053378956436
0.010194958933675955
0.001726630800198946
0.027935612593783528
-0.009221971525852848
-0.0021937080102092305
0.003473520901361485
0.005806624156351748
-0.008325069167535098
-0.012812983029224054
0.023820087145325814
-0.002792719087766276
0.00881078540391377
-0.0008058207107905158
0.006442063746909107
0.06626703875125672
0.1034430268534575
0.08492231537111591
0.02954081714387197
-0.017830856442390946
-0.04225116086719927
-0.02569371917023745
0.02663281914958031
0.024418044941323488
-0.005961880565843417
-0.004254033189086488
0.0009122933837080203
-0.019309053162149942
0.01245596890284036
-0.09405691577449339
-0.14699516844959082
0.027875819298937694
-0.07279880313084285
-0.004283822804272551
-0.0632374473509119
0.01201354677248053
0.027888988234767903
0.004904982608136952
-0.013257899040854936
0.019486318481071244
0.02072730431600876
-0.012002152905049005
-0.006518002933584157
0.008445414950830739
0.057132257335065995
0.07137399660802883
-0.14924874125523332
-0.14692696552504853
0.12417187397267258
0.06590265347749939
0.003912200868299339
0.03616018186617195
-0.0028180079526867407
0.004896161976642567
-0.005476050712624132
0.026668304236102898
0.005021043272891242
-0.028526474949866463
0.000506990941253515
-0.0025570120574522916
0.0026881279294592108
-0.005609549397968964
-0.04364840447293072
-0.003201643505927832
0.0042405218990807896
-0.01145714038389799
-0.0006627771964590938
0.04916320727400288
-0.013573667810556252
-0.003908454785833573
0.011100540162894294
-0.006115365856820209
-0.015629295472471168
0.034944587142438435
-0.01839657041299141
-0.027434747160111555
0.013500329061409353
-0.017281859844222845
-0.0003357516808303902
0.014733861182995755
-0.002511507370835453
0.0006962236269017861
-0.00033307154513447223
-0.024392740673390204
0.016846791473553432
0.02637687106632597
-0.03475789554499375
-0.006471671384395607
0.10032180729104336
0.109678666650002
-0.0739484301670003
0.10280321477120277
0.13748219734936062
-0.006887071728350762
0.04498663434006617
-0.016653795776640216
0.05109196402387061
-0.17474981369886883
-0.1303528707713205
-0.04728391133457466
-0.023703938862269413
0.0015945568957443298
-0.045922719730345576
-0.028870939124230065
-0.020863625270362295
-0.027140919894169675
0.004860439357609729
-0.012323992994293816
-0.00631401542361678
0.018109650672075886
-0.00012796057663794707
0.00011691423475951795
-0.006994994061572947
0.09752296256602265
0.05653835700121734
-0.0301892961022267
-0.028173215165590893
-0.034055478899296804
0.02330406771040627
0.038398847867674356
-0.055874006007038415
-0.022452472944800305
-0.012394851868270159
-0.0002293324724771331
-0.024116732722346164
-0.0025019781455405247
0.008898429505158583
-0.029944231811315856
0.022247422235523517
0.002981833255856722
0.01246082538805696
0.04069817738960245
0.019944104898143473
-0.028563332206215354
-0.04052176712090957
0.10508062149797702
0.046871734557493716
-0.012048123118639299
0.003939597722417085
0.012870628663831029
-0.0555888339736074
-0.0027419087906250736
-0.0300483097708291
0.11219414845247368
0.09426280584897258
-0.038044726892312114
0.02026933826677454
-0.004413298920321736
0.006429135940560138
-0.003867332592360036
-0.01144041008892234
-0.019676024077362717
-0.00493058423801901
-0.026552214234257774
-0.03516137597215781
-0.018048606583958716
0.0103315175630184
-0.01349662054006568
-0.02176729031223226
-0.018331916458177056
0.00293124507575691
-0.036278233796984236
0.026720861251903195
0.04530504561356981
0.02053549314521515
-0.005509745343929681
-0.012138988674180676
0.00580037760005326
0.010599273727951511
0.008958715084963393
0.031694147030749846
0.006109779883192934
-0.014548356867407478
-0.005989759628872488
0.03949397945960418
-0.03924979485970267
-0.19773330506136935
-0.035275447956117124
-0.02997264322402775
0.003302770218198097
0.002895654468559093
0.0015354484264950053
-0.007874228627026993
-0.010793724542035105
0.02624846442825072
0.1185107563742897
-0.003760789346040571
-0.03160766512419265
0.027754034227432483
0.11469114253879892
0.020052944509646602
-2.9408282634944793e-05
0.032194388498407646
0.0035978839672023036
-0.04029403048827742
-0.012297314732484719
-0.007231512808558637
0.019921698342873388
0.02992790340715487
0.006590045325998539
0.01944347635788793
0.03371365646392722
-0.0005730926716240483
-0.03662912019501596
-0.057522349945846075
-0.014938395373274115
-0.017272136578062647
0.011431517362169246
-0.01590831045446692
-3.222275295091513e-05
-0.010160233119379537
0.01264870986782948
0.027220710339207227
0.03529586107596214
0.041293590281849896
-0.0075369864716739055
0.0033350218395440706
0.01929585776841264
-0.006821134670836571
-0.0019498356112550353
-0.02245870317382143
0.008164881055982096
-0.0008420904942817117
-0.008858992446946224
-0.031019980386086787
0.04502329440955749
-0.12228520110137489
-0.20647859014831163
0.07715327750426382
0.0011010010723257967
0.0230070685137123
-0.022010719236716166
-0.00363918049977544
0.0036569551074257483
0.009746699293881575
-0.022300676289528667
-0.0207340552747996
-0.058008457291346335
0.04277959181675703
0.0015183055191099308
-0.029085912607759678
0.0028667254378103722
-0.002160181617676265
-0.016296645787785387
0.08748139220094397
0.06516192620442249
-0.014037179532184607
-0.028403283979938073
-0.01623748139835817
0.014569014644216848
0.07695739263186348
0.015442139776954302
-0.035546588469709886
-0.017048564582958257
-0.016787921618937426
0.006889521365446106
6.190774566546022e-05
0.0150297307274646
-0.010947085715485798
0.006192860034349448
0.02815971663483256
-0.007423533661834963
-0.02363231256550966
0.01822049133471953
-0.02157425897628698
0.013019485554931346
-0.003754739299581229
0.004954002776211235
-0.03735833478042826
-0.10390573615168466
0.021251331569497278
0.05046177157580872
0.20354197721409892
0.09515524291022104
-0.011424352889700442
-0.036302671714554355
0.006418685377563816
0.10439835349657191
0.00325082916808008
-0.016911464405221708
-0.00570415574218243
0.01820561452863091
-0.005210245791719549
-0.0682666136419027
-0.03511860453274519
0.032288559827191594
7.55674298017319e-05
0.03212125822673235
-0.003822129291061752
-0.015403278224335031
-0.01960411738102367
-0.007118174102649775
-0.016268636473630436
-0.01849753065461861
-0.029709117459456678
0.056199660417173725
-0.05037899312170733
-0.07702176528537456
-0.060356027630564926
-0.029390340767952897
-0.0025971996817665964
0.07676962626107539
-0.06382565137426188
-0.1450264066471494
0.018461198535968955
-0.02345656262017926
-0.02299897208355461
0.04558421178032368
0.11468874319728845
0.02054930500591322
0.003490017449010676
-0.0049881939513487985
0.136693076724008
0.011143576946380204
0.02396514405736288
0.007197978616128488
0.01003247536319305
-0.01794773606902297
-0.00879443620912926
-0.018242554406777498
-0.013400524995037947
-0.03444387588377943
-0.017840015756777818
-0.007891134408612126
-0.036427012838185835
-0.017781647907935114
0.015493405660062761
-0.00824809747951601
-0.011162811271976308
-0.02871869388542706
0.0007193370837534237
-0.008536580138838287
-0.006199192954939927
-0.014241330696022472
0.049281364432438586
-0.025815947675412433
0.00568031824964328
-0.011891058495302476
-0.014566167531408124
-0.03143185028127925
0.06322418736452422
0.05522435132331212
-0.016968449538521186
0.0026613886058694707
0.04061712282622424
-0.002421627361629366
0.022106781299934555
-0.0004245135377967051
-0.006211976757284079
-0.010123303268164399
0.024383251239616672
-0.013538030311525218
-0.07660231566218673
0.027400879682188087
-0.02405555647626584
-0.028098771520219806
0.029226654157560983
0.024347199229761
0.02382483825014161
-0.008078214493318824
0.03191897251524227
-0.011427264533284033
-0.005874336552402287
-0.014801153695265456
0.007616416573318814
0.02188960522361271
-0.032201703534489874
-0.07667348621096316
0.015747268749681336
0.08369945901001306
-0.0015933679738974135
-0.01349917287945458
-0.013701344980749637
-0.033554743623286594
0.009911207193736261
0.045369949541336635
0.010680132045462472
0.02039490062891827
0.05007050390626118
-0.027789305820881818
-0.004199586157222547
-0.0006723835760351607
0.04002035932226024
0.02199774893114942
-0.0031185331551000263
0.032956725809531184
-0.025214737607928136
-0.05280014906766805
0.0019524879221850973
-0.005469701295859511
0.027326651831149275
0.00793801076659939
-0.01400163030673281
-0.018366700154543034
-0.005016743391289771
-0.04560654169659658
-0.012307441752296262
-0.03215754914874945
0.022588115017224533
0.01818984514989935
-0.012024842765083603
-0.04374874339622871
0.018700843080964424
0.026874058201054908
-0.018834650449424128
-0.011472123834087331
0.04191549381172319
-0.01354215437380371
-0.013990164856260324
-0.048084251566299016
-0.02380761340868902
0.02730787285581648
-0.010552531338088682
0.006390449127120501
0.015054289271183864
-0.024290968995914538
0.02649946240477186
-0.000770566533928606
0.01448614264962605
-0.028694635932043615
0.055917525560164404
0.0677870190787333
0.004576348720449161
0.017053858177527758
0.004690127669098774
-0.03057886959578892
-0.009757046039016358
-0.03921883953404165
-0.022672437024004476
-0.024300988307221178
0.08893102742223227
0.03482082429080487
-0.07287719239063928
0.027463135071310384
-0.010591078917865003
-0.01495119594978682
-0.025118104562621178
0.018992505476542892
0.030025762600885433
0.050718604687457536
-0.05352114047468574
-0.08780765985779472
0.019335872012316038
-0.0002748216522638346
0.029068086361317295
0.06252013341131256
0.05838039220368166
0.040777943934931574
0.04885760356488086
0.018662675594308325
0.003916785905344336
-0.009390597889421195
-0.006865054606096693
-0.02442216860862898
0.02376625568687174
0.016797025059231967
-0.037822457645761184
-0.23693936387326883
0.0074963329880671425
-0.030408308553461067
-0.11829030444278854
0.011349508600303041
-0.01995551805973394
0.0009874406581340779
-0.011840046823751185
0.05195484018307251
-0.013747349702580689
-0.16226188154619894
0.024816948124718317
0.021608138725036714
0.01384041528615316
0.007645160679007474
0.12716426074667575
0.08947687953439747
0.015473222384696554
-0.0015841698935722243
-0.0003654223482354619
-0.05694719644057654
-0.026370027848466197
0.014200853623882117
-0.014312698293129094
0.07851776779693119
0.08598306218116651
0.039033606230800454
-0.04577859523811935
0.016303912806877735
-0.03694873209565717
-0.014172402868037302
0.0008994300712146394
-0.017223866323299464
0.01204939732358164
0.02829752138013884
-0.013462444693433178
-0.04960366473136914
-0.020398756423716455
-0.016213060109990317
0.009874798150642794
0.09626776196956956
0.0389457998687401
-0.020383551837625028
-0.0033546281663005923
0.013290035968145483
-0.011063885850573245
0.007307191615901898
0.03741746946392007
-0.011504293217630336
0.0032241256246555695
-0.014842062823683617
0.012644537557918894
0.007783522623962162
-0.030548345285352566
-0.06756436021562956
-0.020276223935822738
0.028616114423291063
0.00814636403300665
0.05630391112935792
-0.017037968548409135
0.0015454885917750454
0.014351918931897995
0.015759579978031523
-0.0018652621047726885
-0.03232886685955849
-0.016915256180000435
0.009181628937536686
0.01276497795336959
-0.00013544686639589183
0.011937441694728369
-0.03400293379476571
0.025337990480390187
0.04396329074362991
0.01814815320197421
0.0395374799002258
-0.014380793360756464
-0.041364058558823406
0.03152220958913126
0.022146646853808256
0.003285739279594208
-0.08386606098861983
-0.251129201079036
-0.03265659628044863
0.03759731390325724
0.05293112309390076
0.0021267808927077957
-0.024358187744931346
-0.001549932025612322
0.012365020772148934
0.02433537556332279
0.019053524191551298
-0.011786231771492952
0.08003423384097123
0.05143629273845928
0.008004604189575017
0.00038312749663107197
-0.001891221524964443
-0.036319117178307124
-0.04398129365215121
-0.0036756296382977767
0.04447774471373256
-0.008218152206678207
-0.03653710671496135
-0.013970007754873911
-0.05360728531222649
0.012783395813954535
0.021258002553639594
0.07758206060229537
-0.006140454301302634
-0.05565934675503697
0.01293425883199629
0.008440550410858443
-0.013490054488244531
-0.0006779700180954257
0.011763816453047854
0.0838611146730317
0.02248107626260394
-0.06132593584223014
0.03788714289337276
-0.013689262725044431
-0.0686064190748322
-0.023886658051347927
-0.019606147344708617
-0.010601218112292192
-0.0438804220994851
0.09861062778598817
0.08212588131945195
0.007031828576871765
0.017831630405173608
0.01249428044656904
0.01816078247522172
0.009112861546011805
-0.010803177274213357
-0.0012279350043230201
0.019951272761352088
0.007970981746730778
0.013290125727797723
-0.030251330191898518
0.008449755841179631
-0.04310331034412564
0.01779679797249343
-0.08392600577861892
0.04310211614184906
0.05283949609303867
0.01788648788372335
-0.089593577169686
-0.11365552378074399
0.023911717752737323
-0.03217441484525979
0.019538508430601124
-0.01129571249302825
-0.0015343328039247237
-0.024597191728115704
-0.025142686848380797
-0.03415523537568321
-0.012243397622212255
0.004795597814245797
0.010653478865375043
0.030359008997790708
-0.024695142999727377
-0.1535375428699846
0.014700231213259666
0.11918701081739547
0.03944184675810613
0.05529866646196993
0.15312231183781394
0.011794119857084286
0.035079873681727484
0.025831184414413188
-0.0028156624976176255
-0.020501126589745674
-0.016671592178614063
-0.024648457668721986
-0.02281016813092838
-0.011432363890405604
0.00886116254807738
-0.01195300584758563
-0.005347968161970036
-0.0015566515129326608
0.004848232603288681
-0.00019674384846599677
-0.09017509490007818
-0.032170895500750724
0.025911094143582735
-0.022830546732859437
-0.0029540823272489938
0.015094013850004749
-0.029092127008354014
-0.005278429205036192
-0.018688764686012008
-0.029057480313761277
0.028911908947020264
0.18197162411558565
0.04099097459601135
-0.03679426757840612
0.030590762511833722
-0.05568754557859652
0.04851535959284302
0.10099364622664374
-0.037142549594661636
-0.012076545283597579
-0.011670537023229163
0.06422290030843769
0.004187439399651195
0.033403926533373936
-0.0009891026784422054
0.03177829535899217
-0.0687209006788328
-0.18270866860874188
0.0027246219455580247
0.0115077610986989
-0.07030643608241702
0.08952503335496813
0.02342416107717969
0.005081370008088674
0.01069626885084562
-0.0050851963382505146
0.037405331536860854
0.021649731101519513
0.024223187647115958
0.008904840539411228
0.0018135349922698061
-0.010750828018930672
0.02627309315403971
-0.04245563739197781
-0.039857177162137256
-0.0025620154066716143
0.02011955630643799
-0.031598509302900535
-0.058589074709677315
-0.026963288606463263
-0.0306213220139956
-0.00025963984422336703
0.0035227985558741377
-0.07841161515294726
-0.07509149049990944
-0.037728077103951055
0.028971254423086547
-0.03137160939808977
-0.019420817905108932
-0.03352234256750209
0.004082299927641538
0.11299554566537649
-0.0403566099434618
-0.02914119578435031
0.03597198103145044
-0.016429618586841166
-0.031036953132529462
-0.011755816219029368
-0.039252329452715985
0.05385098090411425
0.021737612989228397
0.018695775820432397
0.03671654738415884
0.011597022033215295
0.014236511440510085
-0.007114134556453426
0.11462966641788407
-0.007327980812754408
-0.05822618584595884
-0.01605958284466805
0.0007713477090530982
0.010841779186958373
0.14997044853630473
0.060585159715470044
-0.030208293215819967
0.01659976789799451
-0.007732749657379594
0.014229055440849719
-0.028521227321048087
0.015273108930016266
0.034042013288521425
-0.02057933697885041
0.00013600853736092894
-0.03319691871651286
-0.002112459869187232
5.747317764135841e-05
-0.007691117357276739
0.016670275782113272
0.011598755800029196
-0.011016519774179613
0.005473986308244072
-0.0004424806542710505
0.029789846251086737
0.046776852242314045
-0.04218253492221056
-0.010316285019820197
-0.05260325171361726
0.05780318743451125
-0.02479658539137036
-0.13005639116491044
-0.006263913846373823
-0.0030042415458058996
-0.010080008187599134
0.018388534295417234
-0.015856376656588133
-0.0028481072436940436
-0.013925124690530085
0.08145511036396476
0.045862237878133025
-0.04113292376604192
-0.017383905638959734
-0.0325739037159109
-0.03152395597466444
-0.019141522442606817
0.13094101223445526
0.024484163110517553
-0.023955797195273056
0.035072743743377106
-0.027128897564114567
0.004133160265475594
0.019670924701667522
-0.03354858220503877
-0.007110555598784809
-0.013013962679115199
-0.002043635514782966
-0.014266600761172048
-0.045267186871797836
0.0010036941680553778
-0.00830714289494562
0.012702629953160635
0.00296731823911908
-0.006690692407529251
-0.008745226046742114
0.04210559807359332
0.008441725444877566
0.007198451197432339
0.03694157240916961
0.010756469800828132
0.001440012691365775
0.0383684106269997
0.05807888392996292
-0.013068563173618984
-0.01713033806088912
-0.08265562069212647
0.02090725353466145
-0.04702904380565863
-0.04305419928053794
0.0511797379721674
0.011381250260136594
0.0059336860674584005
-0.06452570466673198
0.022423096691940356
0.017243290929134774
-0.031871851271302466
-0.07360673881733
-0.04306852459454893
-0.004485012081108298
0.0021315213018738574
0.10410174902347255
0.05386090821436254
-0.03371823977428242
0.008226875314184687
0.01736928348130414
-0.021186239690415134
-0.011640737457778537
-0.021559657317156363
-0.04331948689777418
-0.13401704233447617
0.02677507088400279
0.1290675130237852
-0.0032006395808100207
-0.020695805510677883
-0.02834380041338496
0.0037435202952843514
0.004027106872277452
0.007761788695192703
-0.014128228176203196
-0.01602856709918238
-0.009785501936059246
-0.015906314793798573
-0.015588883192742656
-0.018089476628248027
0.06477929706941701
0.13826317239713665
-0.027264017673982566
0.020205639201354843
0.007160487446398866
0.006320134776628615
-0.02373161602677762
0.03505050136791751
0.008449381121448725
0.18396400316707046
0.046008757050840544
-0.024267458262494466
-0.015666279286528514
-0.03370886825347682
0.0030575806274094185
0.008313364986150632
-0.016977960212743094
0.03673345969076739
-0.17114057013006087
-0.13628919041192988
0.06158837713830824
-0.029769060846319265
-0.0236959413359399
0.0020505315129398303
0.03175945094841273
0.043097244430644346
0.018500496514381983
0.012708532186802924
-0.0007733757865934619
0.029146026258064242
0.028501533002529233
-0.006263043901250393
-0.009800909054078606
-0.018754579366240715
-0.013146532798290375
0.038459151684965207
-0.01373193396685214
0.030791091633798767
-0.13816328895678953
-0.11239203828990195
0.07045064132316614
-0.02875433881466327
-0.027980121853686715
-0.055180131701884336
0.05073275874556373
0.01630489394567266
0.020866472625689858
0.026026389113335116
0.01813412657514379
-0.034063642757770074
-0.0359333025753017
-0.007628632280956093
0.0314661392612555
-0.0009645471392284052
0.007414838625870078
-0.03058380086631644
0.014708237086257772
0.01005083694603691
-0.019914414525107015
0.11067535312410677
0.040387642720575136
-0.005012775442813146
-0.008055114275132853
-0.02375507216805834
-0.006738125096360149
0.021370607425355584
-0.014773583053874648
-0.03860610256248058
0.01596602813336099
0.0012554305024839217
0.0077607300999288755
0.01717649089319637
0.012190078755873435
0.027743691386509103
-0.003513725541275115
-0.020641174806873747
-0.005688352576175882
0.011623411257357228
0.013974713541137313
-0.0738075498989491
-0.0006054204751612407
0.014818664341148109
0.028242097471643926
0.011269782817298632
0.042289090685554614
0.029098742056943933
0.011485801686586437
-0.0034949263619522353
-0.04283322685961637
-0.009853306906469097
-0.08179083231581204
-0.013151492629077204
-0.015681190734709242
0.08815602879689693
0.08966872317659201
-0.06621726372438748
-0.01662808244267405
-0.03421406643647447
-0.038878684379737544
0.005414161716856434
0.05599802002820538
0.0015063539385382775
0.043906275325494244
0.0313471500253327
-0.013538132472719127
-0.016832718225177495
3.629635001336905e-05
-0.03691585681660252
0.015191508345475436
0.007362492480854836
-0.02577715107499636
0.004028487307595569
0.003944753295604335
0.00232661784652574
-0.006216617904599226
0.013544717607376388
-0.004989024769568971
0.0043372378472466755
-0.007460345918084201
-0.025846547577859237
-0.023888535264580554
-0.015704929745387175
0.005884444925766463
-0.006092946973201103
0.046323760486314224
-0.016322917597677636
-0.008577998647577653
-0.02014642177473217
0.04124236461825441
-0.014129227113295971
-0.03943467353333238
0.021400959813788943
-0.0016558957778494623
-0.002028723607338321
-0.00014487264558626095
-0.01277014748460869
0.010717322064153776
0.011381187601365337
-0.044252770839018914
-0.004324145167444197
-0.015097917524489832
0.008239403627432971
-0.015972381131855153
-0.02043537831000054
0.01628531097313122
0.010714217244004553
-0.03646663827157257
0.06817336340870839
0.060785893336530394
-0.0023206749837696907
-0.034338701332315716
-0.06061906875534392
0.01142071997805414
0.025819516954138227
-0.02464997064506633
-0.013521608359258855
0.022841199760727626
0.01870616112167516
0.03818875414229151
