0
-0.02847873858397774
-0.04263316555382022
0.01954775697592094
0.08127787159972846
-0.006306835833488539
-0.009336950194506663
-0.03452942843167996
-0.01310329877688926
0.0073880255482217305
-0.05700007541338138
-0.06603287892980796
-0.0010328098449186784
0.009285848406210348
-0.00896029477098982
-0.02096552688228272
0.01450609845416958
0.016397886452688044
-0.012436321923758095
-0.018686255674984952
0.0024696060743769925
-0.011624291812514922
-0.027053222311445763
-0.0357338290662836
-0.013536951532764692
0.03696113660783445
-0.006206307731074325
-0.011517359881596502
0.0375703483124092
0.02913248152591539
-0.02548644898534893
0.004454900396087269
0.0011515038251518584
0.0021729277326378157
-0.026252698150064084
0.0016809413889266544
0.029129977572053517
-0.0038379716080452226
-0.02956216358086958
0.01011642655359414
-0.01439287055800568
-0.037715885208347164
0.008494068709416418
0.037695129644273295
-0.018730992760504758
0.11639169739923287
0.026620299696325355
-0.07131960171444816
-0.021156974329157228
-0.005293109690665649
0.029411014701729587
0.013048591244837825
0.0027807478419413154
-0.028751338149927697
0.053613148156726735
0.11323431944079254
-0.003033789535326154
-0.047229153451949564
-0.062422775553506095
-0.0008286257923233965
-0.023809180683152374
-0.027774908224140287
-0.03313137376725316
-0.008859017121334762
-0.0025577313287281234
0.04357114540601938
0.021504622033575747
-0.04333675632441919
-0.011056193233048317
-0.0799693187021644
-0.03443296887914554
0.049319151595867465
0.028726280629637568
0.006140244678912083
0.044338102521505524
-0.002840456412753169
0.01570881239887354
0.008388429311343417
0.026628254352450986
0.02962239673096384
0.009893911236351824
-0.028511012014927208
-0.004510482788218205
-0.015831433575622934
-0.10639231999306847
0.022376362975008064
0.003967389170789084
-0.007107678780015297
0.11225836238998517
0.004317357755653646
0.019254208674874717
0.002930485015854149
0.01339725973541052
0.01593217986755369
-0.033256782117417526
-0.05942379123495054
-0.0112620179675574
-0.052808187561150084
0.05278321653948214
0.17058790177476182
-0.05015490502757073
0.005842775754569783
-0.06037608389832534
0.01874733314210404
-0.07919877919565553
-0.05511979800425355
0.006998845997769746
-0.04573347739132769
-0.026504125044495525
0.055504512351503096
0.03370491712110665
-0.0720071792010518
0.005056026335339522
-0.025797872631024982
0.05646196506410751
0.10069160730031625
-0.022952668654076507
0.013574904893317584
0.03991193431162109
0.0026896019793000987
-0.0019867539361095084
-0.026277606287325544
-0.013523191918528476
0.028800547119517544
0.007110072677403165
0.06230413970429401
0.0573442817171454
-0.03415115072440936
0.007172313726533286
-0.009963578630612955
-0.03774907282348984
0.005424663691333643
0.013135412588098014
-0.01815434505274503
0.01754865599788239
0.040284177776569154
0.015440701500917402
-0.059880848941299324
-0.1247276401224154
0.0015246621171402814
0.034281504722973616
-0.0305022620444764
0.016902412237262292
0.028963989378749604
0.010882286818171443
-0.04885619301744292
-0.10897517711883656
0.03374940465408289
0.042978385248738205
-0.017862058419941578
-0.02719828549199465
-0.013175181292591336
-0.005817646075465773
-0.026714654070443888
-0.04872079173809182
-0.018582894961619002
-0.0009192181968001009
0.04824880565965012
0.018937695604583697
0.014619867857636134
0.026553814413354415
-0.009757536237186646
-0.023178550374119693
0.013530483698850326
0.018037904541440955
0.012711580283981774
0.03188918919309104
0.014969736049281744
-0.010837547903378552
-0.05909038133072594
0.07527973578048167
0.048924139857779395
-0.0044084914562082566
-0.010664773953610904
0.03940066359705224
0.07439046711559118
-0.1325998558919986
0.006046072168582914
0.025509424021751236
0.0026960898127801514
0.00854640301040862
0.013700020340792315
0.02093139296588112
0.013369656321223465
-0.0019384172752655038
0.0042403393998566245
-0.012235249753326382
0.07612656527091244
-0.05781895192489571
-0.040410958993900126
0.010168630902000972
-0.04855078659912804
0.014387239191519139
0.00020226593418796635
-0.01569043391802636
-0.0033245577271619996
-0.04220577187379158
-0.006210968516559407
0.008227116661379057
-0.0033708675095822055
0.047666278008027564
-0.0642617146771913
-0.13155885299381748
-0.03766938337939014
-0.03134825520207142
-0.002409122329940309
0.0515146682784968
0.04542782979796921
0.00793689662564681
0.01579277817878443
0.01823360592630859
0.04061129685354176
0.006702166457656584
0.12993026745002256
0.08381125112142003
0.009171264940707895
-0.0015124560891076352
0.00396356018308128
-0.00237545943284249
-0.02484248156343684
0.05554870739348663
0.029475807512744447
-0.017604296735822488
-0.10801578096105738
0.0018239964917108956
-0.0904761430327662
-0.027853174684539413
0.019935774106522666
-0.007001970504682159
0.061497458834109266
0.017189651888516917
-0.008674433912424992
-0.013595072222264122
0.027666938187943566
0.001187017251524644
-0.09199497831926069
-0.012152782196498615
0.030150067652213418
-0.009853836564626682
0.056279365131673816
0.015252911835912635
-0.031657634604654476
0.0032660645246896177
0.014224594174084728
-0.04216293705204094
-0.03608299152836679
-0.01127167259583247
-0.028885466665007426
-0.018390958338807134
-0.04440418585728294
0.02138662138617064
0.01590853751731809
-0.02671733796293975
-0.016713716553554598
0.013310523226156319
-0.039914009169991646
0.020996933175470998
0.02985309767230275
-0.007033475621380328
-0.05249663781734813
0.12407887539041854
0.0642847741662804
-0.06882860171153606
0.056841305522885965
0.004654459542681187
-0.02570368425231242
0.014316066934924534
0.015535694019340959
-0.008030037427605677
0.016541579123066096
0.00308452566974859
-0.0520400406745961
-0.05543135552996233
0.11604441005588517
-0.015556666965139397
-0.0034197101306257527
-0.005587906332402746
-0.010055122364584671
0.007358639224574242
0.03309621860362988
-0.023560270283922945
0.014518303026095901
-0.0030616044620792025
-0.002444064900056902
0.040329822006965464
0.03604866421409337
-0.01622068584310013
-0.004296816749578623
-0.010899621628007507
0.02876802234626382
0.009267110921924717
0.02401426363033842
0.015996676991157036
-0.003451091937977938
0.001844628188361266
-0.031856967953172485
-0.006179083841679929
0.005531558779582024
-0.008218827807780648
0.0008091375172759362
0.029951852336923653
-0.011388203876064602
-0.012382968148111274
-0.0045869014354803245
0.004988559529915413
0.013029361777387049
-0.16180685853124246
-0.05334085085482345
0.06080070226680906
0.019078879468059626
-0.026484974675725075
-0.015322126180448498
0.008450728616096744
0.04549900580201345
0.0359007226063988
-0.005974591252832872
0.032373493563909284
0.06460704520967345
0.00026911359869647697
0.008003727446936478
-0.05172245183151425
-0.03831744542567724
0.001366631489769014
0.008344202972379042
-0.015170987566023357
-0.053865586204988866
-0.05933258480234345
-0.007785277098745818
-0.014776864907672748
-0.005271760904695151
0.026491640449347542
-0.010921701726000169
-0.009272104939993545
-0.019060406160227725
-0.020680264633859805
-0.020033555117014608
-0.0015276750071162087
0.020321347551025402
0.0278311771361886
-0.014526101302968473
-0.04186434993876923
-0.0226290950108963
0.016486653329398946
-0.0410657196061072
0.03716337669960505
-0.000714703023255036
-0.008681828357150916
-0.014524698241163
0.0002590369748866737
-0.011969957694367695
0.00025444759132236535
-0.07896502831471479
0.10091270696723253
0.1581922408595315
-0.029129192580601624
0.01475321689662513
-0.018213495888334156
0.09886779810446605
0.07629731934916162
-0.05454274956072194
-0.05902562644658597
-0.0216567931396286
-0.0007741019560955382
-0.018600005071869048
-0.020958322036052558
-0.01557468814917174
-0.005242107724134969
0.07005292489295997
-0.04242233000894848
0.019328343672257636
0.03544033427248468
-0.038619906739705175
-0.03386752929190939
0.018781107345365696
0.046851831757505125
-0.05048281341625633
0.05331143260041607
0.1353720135897907
0.06341204232483796
0.11605583129298182
-0.04208126500281002
-0.017561128212892234
-0.002973360556887238
0.016503862606211436
-0.013468355489221127
-0.07645619583626746
-0.04578877376901689
-0.04008636750140127
0.009456245270340759
-0.00143630668461511
-0.0010788529227519677
-0.0006073302234793268
0.0009502899489738178
-0.021356885114907104
0.035097721822380065
-0.0016038260546143745
-0.09571440538187526
-0.007212693412627278
-0.03811873008419197
0.0861786095765874
0.02376464801399822
-0.03731756406864135
-0.02831687920158752
-0.003036429750752319
-0.015846162712376644
-0.018571123199338326
0.00866944414980692
0.00785278853277874
0.02710293749633026
0.012307335956395486
0.028764437832847434
0.028392439802437833
-0.030515243898909496
-0.042226237491335264
0.01867598661093028
-0.04627521200836717
-0.03066762203169993
0.03349198566262169
-0.02529180508571563
-0.014607435226713025
-0.028444938540077642
0.04869659159208893
0.0677418896071941
0.002923707218795885
-0.002421945205343616
0.07408927958723278
-0.04309397280959966
-0.22420447089529597
-0.010704250281066401
-0.006963393214415397
-0.09365487821727593
0.015377583390821185
-0.00690692615050285
0.033070745532056474
0.15192612223692104
0.055354755034171095
0.05800189698548172
0.030769304364287892
-0.032575828251315865
-0.005820988142873965
0.033304595852351654
-0.020900294464155287
0.013926357034115718
0.04239784354503003
-0.010229538644087578
-0.03406584036701556
0.002080977089182435
0.0010342137379218783
-0.016255014023423036
0.03299288276498548
-0.006930988866828675
0.010768063863834665
-0.011591046179020202
-0.008419003277698274
0.0032679685854583346
0.007818838656905329
0.020483048042239802
0.027406244822621603
-0.007296638824887289
0.010098405069794437
-0.05218087148959816
-0.11882518441470127
0.03428223780439074
-0.004800684402033339
-0.03229254361292762
-0.031799522858635444
0.027605451434856716
0.006899740816162445
0.0024730386364961617
0.045127562183805224
0.0723095851993577
0.0191181543440985
-0.009959944375634387
0.02131721245350246
0.009333091310537476
0.03725523518884469
-0.005513795778827576
0.0010897064306083489
-0.06298128259979423
-0.071855778535983
-0.03168831153656378
-0.08605457036876361
-0.06328551490583505
-0.015438166327326266
0.013755256795037259
0.0045661331938457285
0.0052582293120287315
-0.0430860642148598
0.023650087230467375
0.036308528363404376
0.12822087446837738
-0.0004665149916819346
0.07256066132186811
-0.11686513874933983
-0.17497201017512715
0.12327403162342933
0.006473442961904137
-0.048293612434177215
0.07715388054873562
0.0650993882118649
0.06798595152073984
-0.0019932348221960603
0.0012258743319429584
-0.02774042731471674
-0.003583031563750931
-0.004264677410808196
0.1758881683325193
0.030308015190229493
-0.017558636614709053
-0.025552227832497054
0.018268903505464902
-0.04227719197878651
0.05653352238188059
-0.22934624518271127
-0.32509165093022635
0.07302810019375353
-0.042478676864427724
0.013503630341473736
0.0068240000883055705
0.009878346460715361
0.02379428550399618
0.276386705332962
0.008921227737060906
-0.024144973798549723
-0.01430038622234992
0.00583885078256208
0.00492292446173669
0.07278059617743754
-0.01794514126180663
-0.0033833065977708584
0.0040322027933528334
-0.0016601641411499754
-0.00705635497162166
0.0014484946909730893
0.016171449452097513
0.011602201761725803
-0.011421854215199697
-0.007218865609582568
-0.024860151557757216
-0.032458209965093326
0.004804491261674529
-0.01968885330037515
0.0039498801990785455
-0.013347100154155056
-0.02239139208090928
0.006753959196894773
0.005810859278325426
-0.022244468035963222
-0.034151141861253204
-0.0003987749450074446
-0.022239725306755012
-0.011376838159699719
0.004834399530907163
0.013748276558074615
0.04962485664293653
0.04200125962665727
-0.00609481551796198
-0.030203398108533997
0.0038877092143737853
0.10782373166928312
0.06532763653298979
-0.02323064164142705
-0.048122626314512314
0.04437346885337428
0.017397548316896813
0.016174377290732296
0.00961244158328056
-0.017543685859818157
-0.007784511135373733
0.0007100248950613083
0.007544338746189191
0.007059206591270437
0.002451996933321221
-0.03601894412480919
0.012771193866213334
-0.042432462232329826
-0.009255936723844485
0.005776789343820684
-0.012961721584215356
0.00343817933951969
-0.0024823040224224817
-0.02230175027343561
0.014437881976592112
-0.04487633573224559
-0.008765233314648988
-0.04132656392332468
0.017416165673737688
-0.04078904725420049
0.016841871730787716
0.005516860017118379
0.007668685318469217
0.009747972740003517
0.03279405511095934
0.009004493233276586
-0.01532320684888555
0.003263779121534802
-0.013227462515927187
-0.020028074654756613
-0.0035299405113873475
-0.08076657902877381
0.06764015741190918
0.031269209783885026
-0.017759235788800187
0.033567624707912296
0.012773438837142595
0.0018388710377536255
0.014659871417904919
0.028639316067566343
0.024149107078486123
-0.00418762801798162
0.005161975377699174
0.00034232003427886893
0.07079775148387508
0.012397227806417358
0.0046909947459692234
-0.008706925817076945
0.004235206214051984
-0.18037486726494076
-0.04449971950348761
0.0011086738075657685
-0.001443379309020799
0.02513873561880767
-0.011763889266257275
-0.01405542535463772
-0.016354258628388168
0.016598644227237915
-0.003629525670465117
-0.012718315507988057
-0.00567460187142688
-0.012235951997589206
-0.0791403192247108
0.03563140837543002
-0.01418754238521214
-0.005354576524570838
-0.02975781758831578
0.016807492398441613
0.08300143552523469
0.036692429885512
-0.034638360648009826
-0.032532558139466185
0.0010144184639714223
-0.01735683804997597
-0.021781033582650954
-0.014191459212487349
0.0767124447555936
0.09634477989547607
0.03221008167996768
-0.0034926202173448284
-0.012750555986234676
-0.0021358528775376456
0.021763578091674844
0.02160976795175493
-0.032564378939338924
0.005621354642004555
-0.036288704322822
0.009632095145766137
-0.027093839810642697
-0.017737561553156717
0.08954730429311947
0.006802319857822902
0.00044601444485142306
-0.008513766475852065
0.007774843286587148
0.0052264278732121194
-0.009695921413451066
0.016548545071436754
0.028149495177251124
-0.04609110689039311
0.008410251332359588
0.0245460270965783
-0.018716297593494614
-0.0018782062307646156
-0.028352967928412645
-0.0012736173259998154
-0.03448057097504548
0.014269911304462967
0.011817927063642208
0.006094083282999095
0.017494771107284524
0.10442890511668614
-0.035648130679923784
0.02324982004428817
0.060489867140906844
-0.02620832233316121
-0.024746441486538536
-0.0019652911645826297
-0.0324166394531054
-0.02366274981612647
-0.001994130181366494
-0.01269140956252436
-0.052081400988898977
-0.1055510767714944
0.012322637882207705
-0.02321653422519729
-0.005194721576826957
-0.05335948562919507
0.03561843666735762
0.02345191384512643
-0.02139917052914764
-0.011352673120860489
0.11215136329837255
0.08972885934381934
-0.021789179219560896
0.02446759907126198
0.004542641840317954
-0.04074520063865012
-0.061114797035024544
-0.05547789912591195
0.004064452911366171
0.010694904434710956
0.01504835983871364
0.008922013624498971
-0.009660766533705843
-9.265265377297106e-05
0.042553643606354885
-0.005209531471943817
0.00339551953218983
-0.020053320794219075
0.06917186922208338
0.018865813785946837
0.03171461225023748
0.024652277513942344
0.027269913381120305
-0.03203863159868439
0.03553443919025689
0.038355578494071514
0.0008115528622765585
-0.0250726527004974
0.033048197460122775
-0.16807262082245986
-0.14297405691537957
0.02947308896798795
-0.01324232158017315
0.013412940818498592
0.005831992939835745
0.011492051771163516
-0.017964437472967124
-0.01182460177177622
0.016701685733670257
0.011081171275243832
-0.00454670476189719
0.007317142473694978
0.0060877748439598
0.0063942151131145064
-0.011540068570859669
-0.02193258123446241
-0.002087268970298793
0.059118421394023936
0.015206700705577725
0.02786985873837593
0.01582423074235626
-0.0434224748897546
-0.005058464676326623
-0.009734339565587374
0.015060956499436921
0.03825494640272476
-0.013041252009287824
-0.03280790549815068
-0.02098504863862682
-0.00775307782546688
0.02925279318356577
0.002491252591970345
-0.07004321402937376
0.0283518276340399
6.878166719476652e-05
-0.0315291527871232
-0.008284634713705065
-0.02213761048672176
0.05083382849635468
0.026341538802974372
-0.00027060254533790054
-0.01855727536333198
-0.028277067987936767
0.01047404797198775
0.014168128353750255
-0.00534012291042971
0.021106048724245798
0.04779870463289012
0.00976080952551756
0.046799357330745986
0.0073302481091172995
-0.012198959250340603
-0.01415073552835037
0.03126237747584298
0.011305518335287774
-0.01329728916921125
0.012313456173695383
-0.06835025598092578
0.023875832503253463
0.01011585458108729
0.029913774962572425
-0.01286317444892105
-0.002488740415755884
-0.036012365960096514
0.034169837475556304
-0.10031939364219965
-0.0735517452175849
0.11925216184662607
0.020052065847520874
0.04197621265155861
0.00015469408380371086
0.03463029258181773
-0.028080327003660376
-0.0003359847884679309
-0.006449842648806934
0.04880459222129755
-0.004649298829122021
0.0004226376675047401
-0.003519397418235003
-0.022803402362001207
-0.010103297478407783
-0.006023625927626888
-0.006626756095755774
-0.04070296807370116
-0.00010773816721739139
0.010533425938686463
-0.009859350467028308
-0.014536691565810304
0.04014447990527099
-0.03322796493273121
-0.049165277173018794
-0.019859536647685944
0.10357571487585625
0.08083632840549003
-0.008789962410293355
0.04033230514671293
-0.019453710220288883
-0.012286556777983635
0.03931839893047628
-0.023321805917054152
-0.004141762356724328
-0.170611050073532
-0.13678339115622373
0.02266952807087223
-0.02493328240477748
0.016728619160375956
-0.027556245405680965
0.015500576846708315
-0.004392853498332496
0.009175075204043908
-0.023424199627217323
0.005390793133727271
0.008012833721869587
0.00245435054671233
0.0038314194915745723
0.02905735153747595
-0.010178290247201393
0.09029743225723409
0.024991609973447744
0.009541274706498414
-0.021659942151286245
0.042623947397857125
0.025528196282528524
0.007849068115609524
-0.0064651398009974844
-0.011501163916500346
-0.04175388004784424
0.0057170784845358355
0.009385649032528533
0.01622760039426587
0.0001915792015095089
0.03075057977831249
-0.055163945281094175
-0.00626222753307952
0.037001211066093886
-0.03203475169224966
-0.011452982953537498
-0.023165908965410847
0.011061264001356935
0.026777197613019162
0.03805792774628586
0.011313309069946922
0.019172162431999446
0.054470506970284764
-0.019721271538235097
0.050329794621616256
-0.006519117804807922
-0.018218907725472275
-0.05005617720922567
-0.03133646419347564
0.00747563032650338
-0.008792334537759176
0.014399679674294962
0.026048155958538904
0.021214953150836085
-0.013534004394532041
0.0025876887975501473
-0.015224885371528697
-0.01967951514989403
-0.005121372597803762
-0.010295193456196075
-0.023235455851187768
-0.012062971769344111
0.01169361869852971
0.0073464249658014786
-0.05167732056656217
-0.024996610607020565
-0.036470417432265326
0.054429972583506826
0.07102600883624413
0.010504100750361504
-0.007255487745470592
0.053095207977408486
0.07334924931436007
-0.025608012492202455
-0.01611606142967163
0.00663110801532761
0.015194798628545888
-0.008210087015685085
0.0006415876930614429
-0.033500923966152646
-0.03641507456065687
0.004633862283789494
-0.02102282373398898
-0.02745430345884666
0.03290747600702404
-0.008827161271777928
-0.013121606767051727
-0.027934832333062855
-0.024294518733388136
-0.009457930471286796
-0.002643188125532562
-0.0005804319637454508
-0.06806358504095679
0.0013952417608058436
-0.020180502346541635
0.015858224807007017
0.08944184952538942
-0.023496219025242442
-0.004367972118792296
-0.007938247409408409
-0.03468522467610833
-0.029603930146468914
-0.019998519146470696
-0.016261622502616445
-0.002840567418179847
0.03572389247903342
0.04093791895691587
-0.03424667560992409
0.008012996936521626
0.002860942361236667
-0.018671034072140845
0.016656315784114608
0.02250825370612857
-0.028738712494297908
-0.028746486488683012
0.012826728645573462
0.019676992032514662
-0.0033587441006200963
0.008416430091501365
-0.005257388151117603
-0.018946740184006147
-0.004277470179929437
0.09440442470475997
0.04433068684707449
-0.008026289081439462
-0.008528090877315696
0.05143877019703678
0.05037814821347281
0.10576282587593529
0.039213381704574383
-0.060906016933159994
-0.03326050248570457
0.04134627266645913
0.008657083436831976
-0.020151126951480063
-0.014285068652062284
0.015359274609135713
0.001988981969295467
-0.00686004567495277
0.009375030884102879
0.027633862096320908
0.0006807600004849932
0.013525733609900633
0.08025661580637755
-0.04537156338469224
-0.02673248465474727
-0.010208615508273943
-0.05923088705044757
-0.019540638667988722
-0.1081734700451274
-0.0723193122442445
0.04882530127127553
0.02157281578766001
0.06265055907915831
-0.010104179082800802
0.02040847626771297
-0.15254906779769087
0.0028784081972944176
0.02018209201952872
-0.0241896429254824
-0.008965458166783928
0.008559165695656562
0.012663751136532243
-0.01458539619215512
-0.005029085887128963
-0.01475471740304603
-0.0042104954803265345
0.004522262022273058
-0.008095176773567773
0.025074988294087757
0.028602851196265783
-0.01694002081640429
0.014506029022873195
-0.060070489016059075
-0.02666532443246257
0.026988683819892684
0.00020291851611409491
0.01974318017828827
0.021625805790374226
-0.011210805535534121
0.024867150823286322
-0.007517280123601519
-0.015670025093288492
-0.03216254150510358
-0.021729817495314406
-0.038716931358800215
0.0543179540937382
0.033828398981944605
-0.024258532072430432
0.02535747273750192
-0.010451150440235363
-0.03691304384013896
-0.018162991758456443
0.02829927411039668
0.041976155489821095
-0.009290898255980564
0.004529509907180622
-0.009848899882536122
-0.0011035988288004338
0.006588716452865079
0.15871598457465314
0.05008548896763244
-0.04866271664164995
-0.04554722636446376
-0.011814054739747544
-0.02388340651089781
-0.006672458286426669
0.06681745231403986
0.06314740112117938
-0.036122933551068
-0.03470508003889735
0.0038704593057819607
-0.0026118278813808534
0.039745902820048196
0.012778180425803337
-0.003907328920886795
0.01649791913855689
-0.007573251748867586
-0.043878314607291684
-0.01051977665405646
0.03259043414620386
-0.03463385464197105
-0.02594367044862496
-0.04884646882911661
-0.030621768557809178
-0.005267522380620115
0.05671678208867185
0.031216144749475958
0.014250798310660057
0.02874327388825668
0.015043931598979958
-0.022337072455434617
-0.020555065941439174
-0.020712141745365644
0.009992945065551893
-0.020429907481317244
-0.046206434691961666
0.0012538883323012554
-0.007828051858001043
-0.02606371645662953
0.00205211214446474
0.036087878167164376
-0.007404966504665105
-0.016264734257319516
-0.0116046666063581
-0.026306492609029536
0.03300987022251299
0.01653393055727464
0.03490485483478402
-0.053416599384744884
0.009252368105831223
0.009867482670248362
0.0009615016371680442
0.00010015973199310316
0.0726966567288706
-0.06258004393787202
-0.058360759079779535
-0.07397548891354823
-0.012071272578034357
-0.05301813852111495
0.04941339405239866
0.12034715350969974
-0.01976193696531385
-0.017430138223331424
0.0010140342682590587
-0.039596725870509844
0.04029267543170158
0.09099635674188702
-0.03076068342113953
-0.018342546000217314
0.11997063589948666
0.055888933274491244
0.011739447215147653
0.010228700220189133
0.0011383399439029147
-0.03141367495071831
-0.019399324283869118
0.05148670876125284
0.0036277142957255927
-0.0103252045019026
-0.013989982613459968
-0.005703101952179415
-0.049839721904346254
-0.005617532607526685
-0.026714537647517207
0.002878251864079598
-0.008336386344145163
0.0016995200902159328
-0.06860831433912952
-0.017369347471082906
0.024913314047452388
0.010196855532138196
-0.00044279428166827837
0.014856034456020323
0.010655866879560601
0.0027200172034668956
0.014741657733421447
-0.027647982618040152
-0.011874939894843279
-0.016214830371793592
-0.07073952419813542
-0.024587533482671328
0.06737610337150196
0.017618374948165816
-0.0008277210473256097
0.002027852090860598
-0.020467275241388815
-0.018336643109808058
-0.02962384913103347
-0.02266985079165925
-0.01252439662799684
-0.007260678093456452
-0.008630908040742716
0.03311147662943951
0.07227064265608428
0.04832864080655813
-0.03959275215638681
-0.004707457132439988
-0.0017907004329844746
0.0008305242355219467
0.0019351356858761193
0.021707896558358013
-0.03061531275508014
-0.01455368029315333
0.013286370106560197
-0.006577751449425146
-0.025380316978233158
0.0022319797711394217
0.011013980857865589
0.016044144719680447
0.0035134513168127803
-0.019422905502628166
-0.019411899676664127
-0.031073700231186822
0.19209772386102514
0.09288014527835337
-0.05215982114478881
-0.01281237181398469
-0.019997249527702755
-0.015457092784220344
-0.041960616913356084
0.006316797628930402
0.019052581823952693
0.017797682208228367
-0.003576889198477737
-0.018864457502347262
-0.03369787927193634
-0.0031109946077261807
0.03706500627809235
0.030721356560237986
-0.005526472806715244
0.019866902290918646
0.02125422752336347
-0.022517900815906128
-0.028678688725509403
0.020235161919600175
0.0006493494032487204
0.014532156617664821
-0.010965486165174461
-0.03632699611035815
-0.04054749892378422
-0.011044022372565973
-0.050340624136969915
-0.022104251500761514
0.01194685014606336
-0.008640397771490976
-0.011804261677455677
-0.035380789556244206
-0.01711884673666195
0.007029514324467137
-0.02534280244018881
0.043747235855687565
0.08413995396155292
-0.026636906795206278
-0.02706372229565989
0.038629081035665064
0.028295413306545555
-0.02405208070229823
0.0007851267367816596
0.003299225995850952
-0.023117373621058725
0.010738983613507948
-0.02645265093779577
0.06138043780910669
0.14667822014313317
0.021488807986224694
-0.03133352041382207
-0.018786044393468256
-0.009885580070366622
-0.014033570620257212
0.0036054518477317892
0.039624235310311486
0.03476913542101833
0.004805185197020698
-0.012099111629251827
-0.027993903322136755
0.026612904913321533
-0.015087367283532185
-0.03066248917849901
0.004234655460876926
-0.02893287245764714
-0.13528358342088947
0.06402186392699272
-0.026659496309712778
-0.08951237520623405
0.04372424622549887
0.03805609956289971
-0.028662118516221424
-0.07255103568106509
-0.010013529935613177
-0.015584600487589514
0.004651499806633316
-0.014741069007510389
-0.0012333632748492524
0.055508209401463456
0.05337344158419633
0.0064246898992253824
-0.0027718646550202474
0.04876286635655501
0.0002927526683048329
-0.02909250038012723
0.009228110842038341
0.019238865446395997
0.055142336024092
-0.01480759012446448
-0.03269142759668582
0.004299985989845635
0.036096013550653325
-0.006863022337842874
-0.00927470007832571
-0.0417644945165087
-0.022727381242604865
0.009747962536990005
0.04326012066255085
-0.017968516823374477
-0.02706374930920742
0.029343488440448668
0.05839840934683061
-0.028301262814946278
-0.1405590908549971
-0.014696417718885395
0.011790469978506036
-0.007199452666951182
0.014449619015272995
0.06435768164313797
0.06428893362479822
-0.04195461531124263
0.004965885774256099
0.021603720982855637
0.014524419023168053
0.012303078185005402
0.02072366984963547
-0.01644174545438985
-0.0007816381091821202
-0.025933071048530047
-0.042166699719788904
0.06963857447198006
0.024152397825821945
-0.06434560415057931
-0.045976577787978944
-0.009055100001151459
-0.013205310025668047
0.01681416409216739
0.003608253517709354
-0.002683468140759206
-0.010634339389086839
-0.019474652209712777
-0.008911230041190207
-0.005853761418005005
0.10519106531795437
0.03418067580741437
-0.02116937888901281
-0.01776563504215772
-0.006845995174088733
-0.006187740086704907
0.0008133384713502897
-0.009123129325441078
-0.01982781733702641
0.0019238587184180794
-0.013497930982597387
-0.04344893974880867
-0.004379784550175928
0.01754985276221367
0.08042548524641746
-0.0036653399074175644
0.013153431701899119
0.009436345342838067
0.06961528744845179
-0.11371612504443242
-0.054776001110877055
0.07567992659141709
0.02396841642749121
0.03856966084192698
-0.030072598093031283
0.013341975103228295
0.019162581058989683
-0.007770974092869166
-0.031194452163177747
-0.10004514513581059
-0.0020452636671641077
0.0245457247035761
0.020980650069563803
0.02064224958308889
-0.015125984733861645
-0.06778223351431222
-0.031242577318990123
0.12076246609626376
0.058965448838127134
0.03625515765295453
-0.008477102029414305
-0.023341397692890585
0.021991646385952416
0.0008983013032956109
0.02604296364173873
0.012879642345036794
-0.00574113349773295
-0.08105071260011212
-0.05636291913389248
0.009020751198205766
0.022191650561884962
0.01043052497509107
0.001403849715536113
0.0008064693408429874
-0.03253144418405528
0.0324861863414493
0.04159380996782482
0.009583014553039374
0.028933680723138865
0.01151122495673178
0.009422264798580425
0.003898935098985536
0.008412839555524328
0.0225816152221969
0.030533157085266466
0.0011760889267500036
0.01479721413057716
-0.02794801120742589
0.02673686707996664
-0.15736027506779804
-0.0058360267318937195
0.04111058092568848
-0.007853072831931788
0.020388049741461356
-0.01434224973676963
-0.1722253799908717
-0.21054719489645293
0.026323833237258325
0.0069506980926421005
0.050973833036593474
0.011486650427578283
0.03939897910748629
0.015848362732180044
0.028331707595975978
0.025689126062900622
0.0502033675199035
0.0016428482165786974
0.0070872957877294385
0.0009565422131080858
-0.004719091701188413
-0.029365940369354894
0.008429240434699005
-0.0035234549743173257
-0.010753725410628533
-0.043141438720240254
-0.0070648581245834905
0.014287360771458295
-0.01908487115425109
0.004791599182557666
-0.01634541993328013
0.05425874439430316
-0.1794721741576528
0.045964957119091626
0.20545180157499962
-0.05897558137125562
0.014627080118543698
-0.02798321977178924
0.012039648016109994
-0.06573904430043864
0.005366598851548695
-0.017889525265210277
0.023680254388173387
0.06731654864499553
0.018491224241714784
0.0006166225599529486
0.10919605561532933
-0.020472653881512724
0.01684596534551888
0.009441689596999595
-0.11288969491676487
-0.0341403765342349
0.03683604426203965
0.03177988410339412
0.10545615262691015
0.11267574707742306
-0.06123921960249348
0.04517410534788674
-0.034597019659296145
-0.01166233015589901
0.03051116529492992
0.0014715156531278726
-0.0500822315250045
-0.011468717567304897
-0.05970077723681404
-0.10313775738301639
0.007637861976158213
0.056234368483023975
-0.015396306583480603
-0.04599575226516181
-0.02867869723862124
0.03729980701021246
0.04890972964182879
0.02960353720163156
0.02162692458286943
0.0014993421060630408
-0.012442449351257717
-0.016397698989242135
0.006659111877040713
-0.00999301155753937
-0.049196085301348655
-0.007150012408831411
-0.011537363686974752
-0.018487582858340026
0.008205706280601589
-0.0013380122552496205
0.016289449799100693
0.034579104143055955
0.011347798845519137
-0.007263245572852397
0.0488065817543642
0.02562352987677438
0.00727404990687095
-0.035190286955288336
-0.00484480817388294
-0.03366916750773159
-0.009817871951401857
0.05504497285220252
-0.009097426722908905
-0.008336744531419051
-0.03575303815414471
0.03294240525509926
0.0003702466961766346
-0.01226428522622937
0.006630550455439536
-0.008570878665922217
-0.005524497010647311
0.043950508881647685
0.029097601653533114
0.006214973720732127
0.005323202079532271
-0.015686510150303163
-0.02786341871336715
-0.0038650221859247175
0.027009084906419314
0.0035283636654005602
-0.032762159735721004
-0.04062056651939795
-0.008939384731442589
0.0012718325692058015
0.03913092753505823
-0.011021987894741144
-0.0675164870562777
0.011263382355429268
-0.007141575918406056
0.007333576591909557
0.010937646089268003
-0.01722926495307074
0.002830646747046364
0.036797047654785274
0.0036334410659261576
0.010793547244579075
