0
0.002922510616374879
-0.032181798524367866
0.08760471772497973
0.02483242419847682
-0.009637196493636353
-0.004770274367617294
0.022571571301416196
-0.007058703009617381
-0.01789253810776758
0.0331347864646156
-0.014451859253910232
-0.08675231896367773
-0.010903531760263334
-0.028499773957694225
0.008944717449332456
0.08270237374835436
-0.007336289845184938
-0.031165051952945777
0.01276271027679047
0.03644639201926186
0.0043109721207987796
-0.03457784642656182
-0.03461937820283385
-0.02030599056235304
0.02852631451298374
0.003537886904751249
0.023017410786897206
-0.024189354023783916
-0.05170549468897753
0.10262675507755616
0.016275667386013066
-0.007260373301085921
0.020603769938090565
-0.010632152998446985
0.0170076436340973
0.0007875681548102365
-0.004379559236160587
-0.00035140289215672063
-0.0009412818969443851
-0.022649803598515792
0.029361585582992535
0.02944801741224205
0.013361760358902089
-0.015834146594374585
0.1568450799622717
0.010070756757244165
-0.05658850142534566
0.00935454121872642
0.002067131605893329
-0.007353280228917752
0.0011908406819397803
-0.012995156668602754
0.00038596771749646553
-0.0013058951857014113
-0.05983654688941413
-0.0123730601179236
0.030488164417194246
0.023076718503968113
0.016766767323270235
-0.029633262222429024
0.00632446006596788
-0.01485350663120555
0.012605905344679017
0.0029515402426346306
-0.04612159289825684
-0.01763884043559925
-0.001175551844975132
0.00398871559424565
0.01369159633522
0.011224138898457059
0.00033418921364024084
-0.07016488275801071
-0.10075671168851752
0.03553829385696526
-0.004170408925202924
0.0009454834595703835
0.0027350233458025555
-0.011309731034507248
0.046306253428167944
0.048883930618647
0.04610005103869426
-0.005102807004031671
0.02397623595626219
0.043508621395022935
-0.025090156490749752
-0.029825371221465165
0.01827099045873996
0.03513364363498896
-0.017880732417359265
0.03236234641153153
-0.0030423571614826878
0.043808262917002266
0.0016599331293612471
-0.08375865750646583
-0.003741452931981376
0.0012795062748401794
0.015038295924265447
0.0913147648702125
0.04794049292965392
-0.04373124130090286
0.03039659475354119
-0.012370636558169236
-0.03595648333176338
-0.0889500304972163
-0.0035448027605222243
0.037115837692363644
0.03129295552670378
0.011044397841934436
-0.05476144256431832
-0.287714410981593
-0.02036266125296661
-0.004857500087122172
0.015401870442606764
-0.08148950809541111
0.010664996446347932
0.07202204196384827
0.012741996780440709
0.0222050414406003
0.011950201310895315
0.018666187618022516
-0.010582590716867568
0.04536299579017508
-0.011030103944367821
0.09521186092213237
0.04618097375225114
-0.030870086010277506
-0.006992198647209051
0.02938493835829981
0.007577936469521743
-0.0115770604267949
-0.003896820151428203
0.014504531429205578
-0.016857548387677418
-0.05486719221304709
0.03169720198986334
0.03855578682868395
0.012089878094575155
0.0013969300603037989
0.001451127232727728
-0.014655876214297009
0.018739333712967723
-0.003312353474648769
-0.006950866693258744
-0.022032664867824004
0.034456429123491054
-0.016124867772360454
0.0073574606520203575
-0.003408697761628999
0.042690734971778076
-0.11019548829685409
-0.04811188297586793
0.008814986718646445
0.05363068418327131
0.09312138796557841
0.002895787307273414
-0.013333072615968054
-0.09721423984180128
0.00849175347892614
-0.022812756095435847
-0.03068319023869819
0.09651280406029336
0.017455312068512606
0.024576421610604932
-0.1028772127522354
0.0993011337691296
-0.15770726481386785
-0.11984211266863365
0.06849788157857643
0.13885340598581192
0.1715282094286923
-0.012853327408370165
0.08841510720795392
-0.05782405312676326
-0.014889275325270731
-0.019658506668119913
0.010084271329236066
-0.030192289116595415
0.052512900685267414
0.006159800473499198
0.034992004750648883
-0.11177669852552582
-0.002878623787824683
-0.12609722885240462
-0.09863277505504801
0.006752599325834855
0.042327585820693146
-0.01621528431252119
0.1807119479125053
0.109342590933413
-0.026595602547007793
0.020727283705981963
-0.09683089873901309
-0.04905374188885288
0.028571497041554313
-0.016963208081767052
0.023438496114466145
-0.01291154563898701
-0.03636906180575962
-0.022295211225301276
-0.028697071217067775
0.012402220797531657
-0.01278703028782421
0.010616773415449221
-0.006111389219180565
-0.029903513080266626
0.036382309699677505
-0.02087111555620592
-0.06274327820955702
-0.0376349990182963
0.07521509166238408
0.0037285882281833604
0.03179473300212394
-0.024159501367817096
-0.02448459072929137
0.028703670239854637
0.025266683303419177
0.018772301107946015
0.016492366275567414
0.0012592697319191311
0.054904536808992786
-0.00014445869416393448
0.007938164651898358
0.04233235583991622
0.04459893691653533
0.027748851682733975
0.006445929005200652
-0.11756006399364914
-0.07479393135198514
0.04390029443839544
-0.0044526469993052455
0.04267748778006467
-0.003378296721596522
0.018984872889652147
0.002010865624862138
0.05020026683556311
-0.008558868044302469
-0.05302067695609649
-0.04000750531205711
-0.04250122598209469
-0.0748454607353026
0.005130628613982116
0.02306278155849471
0.011742389360031552
0.005815157067227841
-0.01879731846557864
0.010996674897937405
-0.1343497384941623
-0.07851458166893953
0.011112216191722245
0.02014780267998268
0.015674699653070733
0.015771226302387947
-0.05947963162452426
-0.00954550495015462
0.01831279536099203
-0.025930403027933174
0.013043792808422192
0.0030155601341959317
0.05443666407091137
0.028110385772177917
0.10666569829605929
-0.004532570027249955
-0.027980475115106478
0.055571525136133705
-0.014359453680633285
0.02096558450420396
-0.004801125302085013
0.03008962463285554
0.010370210283491716
0.04225859120146072
-0.003714120562097562
0.0018925952829076127
-0.00822015989235214
0.006982426378920205
0.011802329413704285
0.010810287994017127
0.029024559498355355
-0.01397879016365055
-0.014721250377073189
0.022312626970454705
-0.04390585699776118
-0.008621342698658038
0.020389905846386072
0.030441941019318228
0.011548538362421215
-0.03808834684332967
-0.02686405449974956
0.03751827743912909
0.06646652888042431
0.0028362879342806757
-0.004153339293967104
0.017233943258462833
0.004973374012270188
-0.012457879960730712
-0.007827930159249239
-0.007848001450047496
-0.0002996351898122178
0.01239145605163
0.03943374474446426
-0.04018990704485312
-0.15144132343142835
-0.015493753254608134
-0.024174773561779234
-0.019229786358479294
-0.011277403719981474
0.010239331073461084
0.0021008051085239666
0.028071460826568088
0.005107430696660923
-0.009472237062505664
-0.021651435635116224
0.0064425856945421935
0.018709244934226314
-0.025099518078869197
0.018265792027197487
0.02665184059924025
-0.016864367703870477
0.007038070089805984
0.010722959388155475
-0.0012049549948556929
-0.011874992505611942
-0.003652236817230234
0.007085863342619649
-0.004236746710334544
0.020653553441132844
0.005118950331122802
-0.0039428893796172055
-0.015688279976674803
0.01886805412726547
-0.015232700939684877
0.006231973303348093
-0.10552684441444911
-0.020796574150050495
0.004587607683414099
0.01843336725457358
0.019556303436059384
0.0030398723774124883
0.027463537835793184
-0.025663900121185815
0.057311322109850626
-0.015579563971666308
0.007292379614510593
0.03922880435756009
0.0627659163921515
-0.0007870833169037893
-0.021849867286069184
-0.033643451564561375
0.0568954449295148
0.015683518339146323
0.03290357319504121
0.035025467074916265
0.011472997997721848
0.02328351370609951
0.017689815645524232
-0.0037456174512329353
-0.12076954135134195
-0.02809889060376803
0.024418869777312363
-0.04006547840320968
-0.02859919512968947
-0.03560884273642783
-0.00604899716368634
-0.012489647529389709
0.011618643593197633
-0.006363464623057811
-0.013269799803643439
-0.01793503662328164
-0.015113350278313778
-0.008785516143900366
-0.014943982697077389
0.019243720732807258
0.03566585139159622
0.03283827390458152
-0.03522245992324453
-0.03433478527179278
0.03712668704059825
0.029360293296088483
0.022628393568469372
-0.0009694705985222507
0.07757849021409768
0.03374368144161524
-0.013965697049214704
-0.007293861444026958
0.03195579144284011
-0.08534268277874087
-0.004914209913195352
-0.03547286016131799
-0.03191855266069935
0.0033783661656549375
-0.008441843976499407
0.006149241421790929
0.011408129335731269
-0.03856974708157899
0.013808094690392292
0.017484110481531624
0.00945458801178438
-0.04199059170741385
-0.0009430938385236875
-0.00852724838138296
-0.033728034014950885
-0.08961343846834267
-0.008399129875332909
0.0053677929819849896
0.011632953103508559
-0.003547399236677342
0.30134627757439525
0.06131940168035971
-0.06117379946528529
-0.024312993957057442
-0.02050955398751395
-0.016868545410221283
-0.03947707821593698
-0.04700760508495856
-0.02540460064487783
0.0045991127395172285
0.043100301848658346
-0.007710991623991894
0.1317016471712445
0.10944585570487386
0.0018228165849497307
0.009032214848345417
0.035940585828487547
-0.00923155390867944
0.012747634286930942
-0.01763925347059305
-0.013355150962520261
-0.10467024162715083
-0.09961171753512549
0.02324462608122717
-0.024782113291659105
-0.02371186578441807
-0.042704124491894035
-0.019130045005616277
-0.043498075238364624
0.0007907699135950428
-0.001366110000460228
0.0020380356684170397
0.013308573504480054
0.00869708246287468
-0.01799332687442787
0.013587331300607798
-0.004988005146245093
0.0004919415412256233
-0.036799454871163866
-0.0038745854412253165
0.05134041826070704
-0.014636424342753968
-0.028013440806149478
0.003326105088987021
0.22043891192442444
0.08766877192160849
0.007408705228792811
0.04678240155831498
0.02121901634232487
0.003455603319183287
-0.027589763341286797
-0.04341466650056239
-0.08856648849124395
-0.16613973860009673
-0.02397500869601937
0.007087565951870435
0.06111535280431749
-0.021009606113294412
-0.021092358622176816
-0.06114184219566291
-0.04241094015008441
-0.027755917298287247
0.06901906185132448
0.041734194159504426
-0.021346203079999758
0.018609458543147793
0.0857480882436455
0.1815443880540155
-0.047378830463824656
-0.01636582170307611
-0.14444140881500075
-0.07472662078320307
0.13108104019775194
0.05212872559729779
-0.057301178416469
0.014469418657274552
0.018558978888309596
-0.01162515944747473
-0.012534161423289534
-0.014080813205551192
-0.007754818700985242
-0.05698584169295699
-0.03923617333594432
-0.003257298287238005
0.003721681116187944
0.009060183137580486
-0.019600825307486535
0.025076727035609075
0.008867105483522755
-0.024328250303872936
0.023937673915185403
-0.011093624685160544
0.004137078249210263
-0.021872814200605533
0.0904883381909216
0.06323245450512455
-0.04808322037223121
-0.012724833607571946
0.02528754034290798
0.019342071036523995
-0.01102789763679485
-0.032924827149900054
0.0035802480480416825
0.009883661199101184
0.014716061123684584
-0.020670094373427088
-0.0065764669899295684
-0.012778505674587815
0.021795376042859697
-0.0213747579539452
-0.016934340213172947
0.021845360831170904
-0.022216184825820575
0.018245228915633075
-0.022813510938176136
-0.021477124865514025
-0.016346405970629294
-0.007407590655982687
0.06986315231714467
0.04634560189607572
-0.022898392529416747
-0.0025014487464663647
-0.012294073072186704
-0.018830577291056128
0.06658946399991728
0.05649478081864828
-0.06649558777458865
-0.06030808657885127
-0.041799286670357816
-0.07422634088460485
-0.011344799834772967
-0.03746899338327465
0.014041642073548967
-0.024568506220434393
-0.000221889771088595
-0.02342294905005318
0.08780736253796988
0.20733757286480212
-0.01998820070908701
0.026160678776601717
0.013315890630830073
-0.011988239007798671
-0.014064450601928015
-0.0013252897635942474
0.05983604464005072
0.01178049600166005
-0.030517185092556923
-0.06789635019300087
0.027052754974327613
-0.021084619706853037
0.005331680687326803
0.03435173030464044
0.045729990512631956
0.016922636074847335
0.017486553752990307
-0.02609907561538964
-0.007947334270263614
-0.001809193382597835
-0.011259155123267047
0.0712273529095845
-0.01724180130345081
-0.0031732631215863234
0.053801661827232415
-0.012696935721397861
-0.041685354918430804
-0.014271232104908117
0.0016378188821714076
-0.14553179740733427
-0.1468775926966109
-0.006991407938750381
-0.039705388204447994
0.0010682013370091456
-0.004512347923285593
0.03548467242781902
0.022003665582473603
-0.008753661285635546
0.04866889915333876
0.033132009460179225
-0.002851643855596035
0.01749316037586419
-0.0036581338272429274
0.022349684486840517
0.007977457156227209
-0.06239132026812459
-0.03716475194562369
0.014244983628178227
0.017137416908904628
-0.028962262819537902
0.08250857440211294
0.09459508073723098
-0.019903032656143328
-0.03555803652742284
-0.029426710064127587
-0.05668879865821217
-0.10372871786876228
0.036809336019037124
0.031894232624905726
-0.017980437337569623
-0.007665047103903412
-0.0037458010771074532
0.04338361930793814
0.0874153198046264
-0.04191258739930085
0.00451110388458726
0.0012624754968066148
0.004533847234628771
0.1816063250578886
0.04868494579941531
-0.020343710201163382
0.019009941120024323
-0.03169136617398429
-0.012200187549500257
-0.043805682603603596
0.010866047225355918
-0.016361850451728412
-0.00829006489361028
-0.023723621040157513
-0.03149281180212217
-0.0269094180587158
-0.0903887018716757
-0.045630192481229695
0.01408157142031144
-0.0983713725138193
-0.08223686799090255
-0.012447835474869266
0.020044677339139262
0.0011973107438772344
-0.008355266288186539
0.02652322697664607
0.06036254311390086
0.06033816860649259
0.03376289370487053
-0.035815126182941005
0.016190568171296518
0.0454700277002141
0.0027275830352476937
0.0730622964135662
0.015504651827522586
0.012082009991325552
0.0016398522600858721
-0.05545022055059398
-0.01968560884997476
0.13116780525299485
0.07621844085870853
0.0021503099463023156
0.027042122402798706
-0.004575198255870651
0.0028211020964045534
-0.03605153068356465
-0.03558523455111651
-0.022113840557625313
0.006512526544939641
0.0019719718405716725
0.10964485074352374
-0.027435347713549014
0.02950403889258869
0.01847824580232991
-0.03923505255050552
-0.02070366116577549
-0.009898389263987378
0.034486691631304425
0.02557918437667474
0.0054888355577957315
-0.008217708235866417
-0.014388215740770049
-0.11177613872770163
-0.07664752935131891
0.012168658401177937
-0.0020375215118530704
0.03459398951898384
0.01861306469601583
-0.043780271791237384
-0.0031199908996633013
0.00943901664343121
0.0033188653299676806
0.007411858947655309
-0.05785369448527371
-0.013890195800093227
0.052300899339469936
-0.015917819508300752
0.0028427222083564616
0.029808939654486662
-0.020906912786438178
0.02142958575177298
0.02956438617167045
-0.0025552309244942666
-0.022172732361625598
-0.011099364313819951
0.01109878794864267
-0.03348943909113564
0.012577006218283168
-0.06121679695169975
-0.0790589023098589
0.008562393705495174
-0.01774407849147943
-0.007667134584178633
0.013175167590097193
0.009397339243933201
-0.04410826309924748
-0.029588638909950962
0.03533921194438156
-0.11943832979157089
-0.04932234334592746
0.04634359074820181
0.003693294114766007
-0.010521877093327709
-0.03918675381194672
0.10337792172254334
0.19287150077135606
-0.012712456636239418
0.004866502191199395
0.00325929272036403
-0.06073663234842613
-0.07720450267343981
0.02342403314372486
-0.003630482474866033
0.0610476286389829
0.05216664861473032
-0.02362298817703922
0.008281358213647852
-0.0005336633109909493
0.0010073967669039256
-0.0011950912030773524
0.0690201392360192
-0.05180923567852827
0.07904014542086718
0.006379620824985212
-0.04607233411831036
0.03609993109649213
0.017598479197936313
-0.028048612057976097
-0.010990758462332134
-0.0022348224543153996
0.008677812018320399
-0.004884215895733717
0.006826490097826479
-0.01963331914501506
-0.028090674472361743
0.004560956590009511
-0.004948628618560368
0.03264198983594923
0.17009263672616923
-0.01726050639252906
-0.04118666984847573
0.005234490752265981
0.002232063212989402
-0.014476317992702829
-0.016182133981833515
-0.02548310072611663
-0.0034738932124899658
-0.049462961466396754
-0.07614169811387982
-0.02305467958265428
0.0114314753639961
0.04305445951663959
0.06619040945869557
-0.05215279703980053
-0.11263460536523107
0.006370407957268365
-0.00951529026149543
0.00384643452851455
-0.02852330309367567
-0.01478789905608076
-0.003682187716325566
0.018308620893230005
0.015115987243208607
0.05977426307881794
0.2535930239335527
0.004673680743058412
-0.04516133636707858
-0.006072994471201624
0.026706186710715302
0.002112767531772257
-0.02492999933113866
0.01787732046586027
0.004925958165992784
-0.03466942595342874
0.0009103715920544276
-0.012041156980176479
0.005235235364543719
0.003041342165022363
-0.05080790596794228
0.011592336755623623
-0.07669085067548452
-0.17322012339351786
0.03410422729837306
-0.010296355749260406
-0.024663224819685064
0.02876628725904244
-0.0010788719554671489
-0.0011485561742358309
0.12687731950484119
0.0008213061263608752
-0.0030816324296380573
0.01778038540871925
0.009014657318117719
0.013608573837319619
0.047383435761537994
0.0028582169613091428
-0.007518573548279842
-0.0030036507972123904
0.018444088270721897
0.03386509953949149
0.02051043376480659
-0.007321146355044204
-0.01233101896802235
-0.04784743303686887
0.002517394307423378
-0.0224191517329154
0.014935003553375304
-0.006987178335348572
0.006536379744071843
0.0010428383318265607
0.034108878184662655
-0.051273832502009196
-0.0696735567727544
-0.0227859431045656
-0.013902902031955322
-0.025261894660957185
0.001852727906145319
-0.0019400946484701787
0.012055852193578147
-0.007682692579098923
-0.020433159789423585
0.021595613577690378
0.042038154497184725
-0.00583765573209153
0.011211681363276464
-0.0061679416896904616
-0.016824656368146073
-0.07004458353137921
-0.03272937957537692
-0.016030450373862817
0.00964473683821644
0.15074174588236158
0.03808100039376214
0.010911659440646093
0.01819191914364694
0.0002686912902562203
-0.006612829809454433
-0.020851334457615646
0.043882994132100124
-0.014726702139104968
-0.04237804145546997
-0.014981398462154785
0.005116911160938985
-0.04045366203556212
0.0054023079530476515
-0.00011500819017862122
-0.011994644780050846
-0.015420756031430425
-0.010385036517715766
-0.027414475377413407
-0.0028238935347764905
-0.04666073084751946
0.04084805030315494
0.13678745704679174
-0.03323363500442149
-0.00797490920611293
-0.03571616670430435
0.02373302137758392
-0.01842394172284521
-0.07530966602545293
-0.005641914749332332
-0.022576689452470333
-0.019535132090088135
0.0031698461723734628
-0.058699130003096324
-0.042774989722525074
0.013719067914843515
-0.008236982915078758
0.007318110291749779
-0.0025563984018645344
-0.012157372301957787
0.06579600560375337
0.2377667690396489
-0.0036391570318523637
0.025729336895286888
0.04706183155995271
-0.003327893631201318
0.0005741892480006365
-0.037101709449834624
-0.020871849622048598
-0.028805820391741527
0.1399960453099579
0.019545183320763753
-0.031022896243798836
0.010138520096719032
-0.004122956189781154
0.003971473199869838
-0.04397833296460852
-0.051773829220915786
-0.02624775386039731
-0.020116795533018882
-0.0010674715850892468
-0.019155386787541227
0.009666901328024021
0.031591110657762045
-0.01751821377104962
-0.008885323967280099
-0.004011082962120921
-0.03966804333240207
0.009090185386993112
0.02446309882879168
-0.0036312059243478446
-0.019677139969636506
0.018862353992959026
0.00689503645216296
0.014893082591441698
-0.0012418885991439903
0.008537780238778906
-0.02328516283171532
0.007840812598160012
0.0062443712438652885
0.01428935939069208
0.011410358044192723
0.014928297508835847
-0.020538107391071547
-0.001492327504245138
0.08943866233560142
-0.011602559234949152
-0.04684044522005416
0.051540118062014195
-0.009082671933205744
-0.04107965558968877
-0.05256847299932434
-0.06835859924998121
0.013833802958349406
-0.040051318285473654
0.023827779213622297
0.051482854941003214
0.011106782378252212
-0.018736904746568226
0.007813863394577762
0.027467407373249805
0.012371165342686306
-0.014100025295689725
0.061219317039096666
0.009581610952403561
-0.015006322662365066
0.01063954306523333
0.003552124022582845
-0.009191224740334406
-0.01449430208546417
-0.023715826214255872
-0.07785175356336131
-0.07736164925427255
-0.03040237444176473
0.0021172447696710447
0.07279629476234281
0.010104849486975308
-0.056108570814204735
0.0165773979786098
-0.012878120408068587
-0.02201517562764094
0.028939368600028718
0.037174277662822434
0.013808929042520053
-0.03019162659502514
0.0023780196186987614
0.03700479560074629
0.044207232067641676
0.0013243103304640166
0.01944533374552
0.016789502298291254
0.029971571946336487
-0.012247420398698293
-0.030042466673516226
0.011237745685099863
-0.0172109650491129
0.014594776716223652
-0.009646795581833092
-0.005639459223857893
0.0006622219449480295
-0.09127004116117515
0.0008191343662699195
-0.06650316862118023
-0.004763122638887364
0.03407764233022188
0.06514992283020642
-0.031874744146325844
-0.00015240492254079636
0.06808077357844906
0.07335581093955912
-0.026979543646438408
-0.022104697403002672
0.006426700399094364
0.02901930454745842
-0.037871764841335594
0.02799189737671974
-0.0375701592530957
-0.12829966054885703
-0.0740198023977827
0.06989938497087798
0.10796133724374089
0.01524122626535777
0.032207214230004104
0.08031102266435008
-0.06180518423705205
-0.1429931534139563
0.004526611791361249
0.036520181425071116
-0.03729965563150937
-0.006162705826993199
0.03895107402462376
-0.018177962471451738
-0.025848434326476738
-0.012410267457652549
-0.018051847209568785
-0.006217574864257073
-0.006630616199116136
0.01431414210472608
-0.004083064503658631
0.005998532414296744
-0.004349986714497064
0.029901181443161083
0.01102988968075923
0.044504449556505704
0.09109547318039339
-0.02955339764963578
-0.025018872444434733
0.03850411797297875
-0.006176291574820117
-0.0022089745499768608
-0.0078542007420163
0.11933349716395139
0.031178368637259445
-0.0068955106899826575
0.00033799341632271255
0.009763678962672365
2.0514244595284155e-05
-0.0059901165906608555
-0.01158764883478992
-0.05447546449778612
0.008894829582326636
-0.05165454897407498
-0.03786881957690105
0.016807995595288058
-0.004157241788404568
0.004533523723900152
0.04526983104149385
0.02386866458475132
-0.053011992650892466
-0.013614041580229386
-0.03779237852986243
0.09433842878480762
0.06478223312874226
0.008062117333209688
0.07805602991015197
-0.33066644102844717
-0.06975637993943641
0.08726153159503507
0.0182584207549541
-0.03233527179210293
-0.013671472852080535
0.014319661760078222
0.07191742996589347
-0.05269461673011048
-0.025280034253981835
0.050087173267733424
-0.019630016256715614
-0.009901582059987205
-0.008782547182107046
0.06966895011720448
0.0574532922181618
-0.0001307329539439631
0.011532226062104864
0.037732545935203386
0.0011572413157116843
0.01169789724192579
-0.007020579217468208
0.04446482634706297
-0.0521908652197076
-0.05650004137838418
0.01610767282953854
0.0047170176382514886
-0.0227015780895053
-0.0015805132724703748
0.02767824850634177
0.038334337585163414
-0.008099490587114129
-0.029067492616397333
-0.056266786379357704
-0.11970772992198371
-0.0045421974070898145
-0.004102213777248046
-0.006370203537390021
0.005862495436993145
0.035134601366424933
0.0213254859238272
0.03858914412955122
0.022135588644951378
-0.00809870462056899
0.030568145471517864
-0.15892260939283578
-0.019883320615374914
-0.00406196127310447
-0.01122659827909829
0.03549757752125888
0.01230804712665125
-0.026862094182058514
0.0179747216962232
-0.010040416273089289
0.00702419070028029
0.07757444693417632
0.00022706783971705865
-0.034941168421709995
0.02920260118977768
-0.008608810077163218
0.01787270145347773
-0.02631042978689967
-0.007289269120378446
-0.03013726915495676
0.1074473349356077
0.0863847976191591
-0.012723584288486786
-0.03715849142238188
-0.1622979418180512
-0.007728844920864508
0.02098498559344115
0.010664934644509464
-0.018087020405128825
-0.01278192273208439
0.05009106243963775
-0.019485620090512166
0.07387774990703885
0.14088908695876856
-0.014812489522016017
0.00952436617580203
-0.005768030075444137
-0.0004516569847416042
-0.013288301541924112
-0.016084151291281223
-0.056671442366541556
0.0066733747813029045
-0.03858919341833128
-0.02179013114318236
0.010914791959403213
0.03084135408877109
0.044348243570563016
0.02812116449907359
0.004834118910905802
-0.04152304126144947
-0.0021622944236005994
-0.0009940253690598054
0.011769114634752722
0.013070270268992223
0.036524407013904164
-0.006697855698674942
0.03344297012332941
0.04387731741718482
-0.00555438274611446
0.017596663541048
0.23531703441739782
-0.10071089467592799
-0.031245510267810018
0.028739256192200056
0.017887169573629222
-0.07102737420040907
-0.08172540440733791
0.010711495416336361
0.019472915973326725
0.0013741268240848167
0.027065437557728476
-0.17309211592561918
-0.17012321106064637
0.04406511538396303
-0.016080836292754898
-0.08732600669504234
-0.025637210700132848
0.018199150302255288
0.0066779742257177584
0.031751840296016166
0.007743110045608125
0.05312653181523747
-0.01677608720520509
-0.05099214644662912
0.007363603798179084
0.03673469260845006
0.0066213043534772914
0.002565683859158269
0.0017944517526198996
-0.008153855316719862
-0.04706740675069656
0.02755212070548649
0.00034583661601716515
0.019949863385068337
0.023634965242846473
0.010826720785395883
-0.0011669420004765463
0.0012304267001091154
0.010364124135273507
0.03326187603302711
0.03008251634427567
-0.005040656633035593
0.04545593932418513
-0.044760668433564244
-0.04458396246743925
0.01121770920271207
0.003958557525785334
0.06350267247152923
-0.00420404510884757
-0.01635900013084156
0.009888550388861127
0.030533351490415306
-0.0005996933543202673
-0.030909052865068128
0.031448047968703916
-0.0014595779870507572
0.01757670090832197
0.009583125797101744
0.009191882147026584
0.02657605297326274
0.031018463794268522
-0.006388955876349812
-0.002819783268224979
0.03656202576875036
0.046641892529625424
-0.028019708692721884
-0.005266468868158472
-0.18506438998791427
-0.17179034879069235
0.05899142095533355
0.010539520827714645
0.03736852671160398
-0.024584175259013602
0.03965284452740738
0.03732179523898326
-0.06232179254706043
-0.0436124750330295
0.029053493531643316
0.020504816530102523
0.06894621395602256
0.016191134654338215
-0.002110744803654265
0.0109676732186916
0.011614620084032667
0.0037311080991396994
0.01891912434249686
-0.001857890233611339
0.0030393293820814896
0.011113860112464777
-0.04779208974354848
-0.03661167671798746
0.00705632988185251
0.009716511333140533
0.01598353449001907
-0.002960677076556705
-0.010520401685982316
-0.05168117643830986
-0.004877241065127058
-0.02598774102198012
0.1138510280593377
-0.0024760141885521478
0.0003920572357027173
0.014538340142768823
0.007589878538128144
0.0083513763185274
0.010599165041225453
-0.13201438212598554
-0.17709077945465462
0.015949738363695114
0.05147262588176807
0.016506332439998862
-0.03431920598585164
0.008795650370880531
0.0019356620640659885
0.03759615489864222
0.07915906020605394
-0.03663316535378715
0.030896165487733638
-0.0015794134360822593
-0.012142387912750722
0.0018393324160110257
-0.039564788156650245
-0.0025431791074447506
0.051024619185046007
0.00027963043439918254
0.0092628999775679
0.04626122219936756
0.013657561366935165
-0.0017691707559974546
-0.031105162616348124
0.07078799456240255
0.06599165384397059
-0.07565114900020041
-0.006302548233917376
-0.01880364749736697
-0.025278576598074195
-0.00810762211350101
-0.010058777381432646
-0.007971577566937843
-0.018962601092599733
-0.025913020726511943
-0.16536539301264847
0.14946958584410966
0.13343455183927377
-0.026601225470845823
-0.004455861234249996
0.01688804279075026
0.02725823586752295
-0.015538635574338574
0.001226037685054419
0.18322453839030314
0.08212009369075464
-0.07276672897429151
0.02888083559981112
-0.05005070763678204
-0.12910566053375994
-0.06662099474559706
0.004983155057989752
-0.0066963997377052715
0.03991276159052917
-0.02965441356570488
-0.04235638653616505
0.009103774987999556
-0.006945655814380517
-0.04185436965131341
-0.009467073511813995
-0.04745765486592659
-0.03478015553911149
0.003413083390591826
-0.014679825730279197
0.06466565006344639
0.19972793224773727
-0.03036794026479004
0.014285971405871241
-0.03638193394146004
-0.012291330340339798
-0.015464415043741945
-0.01384167660086051
-0.04711177880847769
0.005426987581103487
-0.037560268293709384
0.15262354764980615
0.06816103168340873
-0.044239449228729716
0.0039430462025256624
-0.008429335190051818
-0.03552385084972269
0.017666759023688885
-0.0006433350469631566
-0.03142666561793865
-0.05142727007537825
-0.010104263425404972
0.018663039175452048
0.030110632916031277
-0.03941868012109269
0.003681484610948141
0.01581646907535717
0.01810749434898805
0.02831574196119175
0.0060210281381604175
-0.038089631319252436
0.04265303031828112
-0.01863504516969469
-0.018037552230594143
0.0058855104879912985
0.0116994996792944
-0.01321995056598995
-0.018920290977054097
0.012705071606801345
-0.004633314520039887
0.004423785866303957
0.010517091555096048
-0.01866263784699637
-0.05480378387841413
-0.03810714760818587
0.017011290307927435
-0.03099801097162945
0.02989801740618319
-0.007557140320527078
0.12697562278890562
0.11086597533830436
-0.039511737459206234
-0.018046800236676604
-0.051887773486494274
-0.029036234083751777
-0.1822693225461334
0.020589225561436456
0.0429027804499058
-0.03662439068992718
-0.015370076378637139
-0.02799099502856255
0.028711144830790892
0.02032575040767002
0.02999566483398589
0.02439015063930582
-0.005349094368285073
-0.019813711914177464
-0.01723515146737137
-0.031936083117758134
0.042479976709807646
0.18966819809329596
0.01155957025955838
-0.00421285246339197
-0.023338198031277936
0.007239426566376911
0.024920807453750506
-0.035125274657461035
0.004636128631723439
-0.022949153350458544
-0.0003026918040702684
0.0023299570494041124
0.019866131865683385
-0.1221629376090779
-0.0038790259990438176
0.01217391734970379
0.013966977592304631
0.045125058010816725
0.02032315160838817
0.0031408006871472423
0.012460304337450552
-0.018843578115093327
-0.01392588590388569
0.006868432011257909
0.018572279285527266
-0.011540880869754454
-0.022091069221146974
0.030217600902991075
-0.019877906937958066
0.0025245014388089885
0.005809637397274673
0.02988822800063903
-0.07135385778901819
0.1052934004371485
0.07185100919090594
-0.2305816921096305
0.043656801251449405
-0.01957218947769721
0.0030805940850915313
-0.016144802430619873
-0.007531343284651446
-0.049775473479616535
-0.026176276964893778
0.03786399902408098
0.016296959689601192
0.008356466675733617
0.020236779065091668
-0.023035896014130496
-0.10592044710686335
-0.040544977133344276
0.11163489714980433
0.0691876187578998
-0.005599075235100023
0.018745203188194226
0.025772615035255367
0.012524080631604761
-0.00927298174884572
0.011731502009257048
-0.005067983391577215
0.04405129794599179
-0.0025777542858081955
0.034222016774045384
-0.005596055185120533
0.020889655489281254
0.026854029840043838
-0.013329437879441765
-0.02691508303684494
-0.021353867247385236
-0.04415287511710295
0.0005504496835453943
-0.022905591026929895
0.011725884460765721
-0.028277035976456415
-0.003231954954450768
-0.14282147956587665
-0.038007362128552644
0.008706582107692297
0.005162409077507628
-0.007147496593513046
0.018195223365772686
-0.057108241071647796
0.1324081734832793
0.17919787547339408
-0.06910281038651345
0.004465230251883964
-0.026084585244180572
-0.006175728823042704
-0.00703211087927959
-0.01301777410918713
-0.005531558728612275
0.005203273507382203
0.00918014609526389
-0.01693516625731988
-0.04200760777094991
-0.0473188438027013
-0.01348013003344857
-0.0048929823675727
0.018407707692255262
0.20670719316889996
-0.049127876866129225
-0.007942264710891085
-0.03900288072701853
-0.020931188242235988
