0
0.003533043939885526
-0.013406984237293416
0.00938302930673047
-0.0135316129665646
-0.026065922578817187
-0.026333189787331398
-0.0036142395345152368
0.012921367793153497
0.0070258939275408385
-0.02389988985504329
-0.02103041414713337
-0.010469722426281325
-0.03126185270586916
-0.06527134891543367
0.013935491072662036
-0.022702519194183708
0.006215041977951093
0.009726600560899228
-0.010348140426666848
-0.01137237810958192
0.0005868422509141435
-0.045341178323697176
0.004091408970927971
-0.023016030068636457
0.050356374682194574
0.08063509273904548
0.040584321355418514
0.17873886625108
-0.01403274786636683
0.0038473777233550823
-0.015586516210676016
-0.010001473477258094
-0.005517243737054168
0.011080460587060885
-0.019030007318969668
0.02106814381101386
0.0935240549640084
-0.02706764221877266
0.02820358810761007
-0.04561850073073189
-0.012101051723359941
0.0018869702887783285
-0.00430936528808291
-0.0918994272374195
0.008575207450194034
-0.030371765266852962
0.0720959752492369
0.002012642245584065
-0.026166201692662427
-0.17857446012034908
-0.08477111071044299
-0.020434379400564362
-0.033675785497574814
-0.008091979773508574
-0.040582402843766914
-0.031885114117336445
0.024660676127686618
-0.05276147705399521
0.1669735425108427
0.22914838546781638
-0.03334987900434917
0.21989243835169012
-0.01718667005349267
-0.02383985371317506
0.014182515040134657
-0.0041604867847097994
-0.04791470425804333
-0.0017433168760177043
-0.011792655016019815
0.06055178039575136
-0.046297785968098276
0.001530949152181044
-0.006324806887169741
-0.07356055054298694
-0.03969213548599395
-0.07842119675765997
0.007432724994678477
0.0007886003258043209
0.06747535722270212
0.03571361073172952
-0.030593056303038216
0.004883670307177221
0.05946322128648528
0.004034181222921312
-0.02720460650103461
-0.038222993143655605
-0.018852561921127584
0.029859519319906356
0.050657913367128576
0.03533248512289882
-0.026536528433044288
0.027474153089167324
-0.05572206370939299
0.018519272666370216
0.012756243465239491
-0.012131000399823202
0.010715235650355258
-0.029910104879413032
-0.022274449237830465
0.016307184405823724
-0.008163492299770673
0.0024003881927046953
-0.01736431945727858
0.07005165551316636
-0.028328926632387175
0.02390396632828526
0.04900434695863134
-0.01939958559426619
0.010604359588531747
-0.01875265416115319
-0.014926020494566867
-0.03455151994579388
-0.025839893715381226
-0.002346665759005763
-0.026258613277816232
0.003197328355039771
-0.0706361543977748
-0.00745452853346152
0.02050816196196801
-0.0005916587764164882
0.02242442586537831
-0.06406456536835067
0.0002555212823744246
0.02193531812779919
-0.0049665934598069
-0.02567287062553572
0.013016505135935946
-0.04339960636720282
-0.05860859196497365
0.049850489601404264
0.02814835086265888
0.1355570841148411
0.08312888697262859
0.0328862826663283
-0.0467616525674885
-0.05064254677292323
0.02115281797182121
-0.00916122392809321
0.013096801724724614
0.023990511677723068
0.004423992291558755
0.000153007892300594
0.0007005538315354439
-0.004892128168361234
0.03737228146910846
-0.013215347160480747
0.027060628058409402
-0.09426200405002834
-0.17313244757604274
0.004901766337917922
-0.027314840582804097
0.04163839443621614
-0.007038182312637308
0.02297928579648217
0.03597517746886001
0.012727945754703172
-0.010333450460877493
0.022134472527268214
0.03165031459510261
0.0009832804636876352
0.009546763300638895
0.02615851906590463
0.007973463328042349
-0.0379260406258256
-0.01825939787643946
0.061909075220667034
-0.01326422812294934
-0.06718911036617456
0.031305774709876236
-0.005554582166847041
0.02556831097498267
0.05041879169397021
0.01187872449547781
-0.1238341019839546
-0.0424930468449024
0.03395526144844583
0.024145517893372055
0.01570105919034302
0.00024910919665284875
0.042032654626554956
0.011626113800104481
0.005369424708406225
-0.017144939624427327
-0.009948778938582866
0.016231872741490485
0.03640073687523843
0.033687733206417304
0.004569557653021653
-0.021716608002116097
0.012178792954702386
-0.01950922573615477
-0.012838365804406867
-0.0811374057142964
-0.23525286953456995
-0.05601576393321857
0.052091070817084126
-0.007039259571677815
0.06152348157484997
0.025792824984708678
0.022578726189168893
0.06314802892358092
0.0001574749426542549
-0.03444399374455133
0.005283065186865398
0.01187742600374174
-0.08663855549406893
-0.030071458133714146
0.06645298525433284
0.020587739945141428
0.04994197719179265
0.005086618342850322
0.02381056339231137
-0.0023905783072893285
-0.00669476241150141
-0.01042067685058763
-0.0005334059610531951
0.0023337543704973793
-0.028993559328508882
0.00752741390590241
0.011194123158248939
0.02745248796218073
0.049177115930734025
-0.028406314301634927
-0.016899195656848547
-0.07815065487016719
0.19453013631741306
0.05697899787453615
0.10982701585670414
0.0118322234449568
0.022586974490536565
0.022596558847382358
0.05287473276015882
-0.0013103551160330604
0.004022509487985616
-0.012902882105699974
0.0399102043307692
-0.1703017941653935
-0.12200195861458861
0.0555905626938718
-0.019074596494804637
0.03691517084660607
0.033567116128155515
-0.00852288366087793
-0.14069748100563956
-0.04370865542500885
-0.025004970970857285
0.03749562344401362
-0.00013074763075184584
-0.03336792648839677
0.04072521211832739
0.033685312372937745
-0.03527485662792814
-0.10124430283523403
-0.06482421591527657
0.1303568935186219
-0.02325746687261429
-0.01663343622773837
0.029179388268446287
0.018409255100178386
-0.005404131747146602
0.021031619984331465
0.04738456301267204
0.011210524701997059
0.0007935342614693022
-0.012945597412511566
0.0007928761142180885
-0.020419081866281517
0.05434498293894598
-0.07601739638592156
-0.17152699585866235
0.01241138761616525
0.00025267490891435815
0.07548891556429617
-0.02184854069807316
-0.1248419704079191
0.01395888152486101
4.826633638852358e-06
-0.016136143292548775
-0.013307069458648586
0.14017674297583407
0.04725407381602084
-0.0565517393224376
-0.03171421628716352
0.025598002432466776
0.0954339198187513
0.0034622447709942174
-0.013980306721118331
-0.04739987306506219
-0.010608908260995255
-0.01314676726309345
0.023569724848134632
0.016630152332348696
0.0055409777493617115
0.006322198522216114
-0.006633736298271961
0.006426715230166269
-0.016266031906226282
-0.041548965538691286
0.009708143198129612
0.2509412302440043
0.0885030361487273
-0.03936182916869526
-0.017866165627244482
0.0012390647539250517
0.0130262128442071
-0.10153515005894327
-0.03826824526318163
0.012041418412679682
-0.002557152028669147
-0.028358155312605028
-0.017221495474203544
-0.015633635008909602
-0.004602239155841229
-0.002044796414897584
-0.0059250311079519615
-0.005190591588003285
-0.06394941426902516
-0.019066323238557125
0.1697418883344145
0.03356590375895134
-0.022764294382197087
-0.03346652509844832
0.010371481789065641
-0.04844122099505633
-0.05093591188992847
-0.03228805992048216
-0.0017768038998992783
0.09620597892803077
-0.050486384945365184
0.024286990901574254
0.0017416573713057903
-0.0076611827563981515
0.03163509855806138
-0.03436322667910604
-0.01433010456998858
0.0036617941572728847
-0.02595464110907985
0.004915098262506799
-0.05173389263732355
-0.036523043131720126
-0.022710618694837856
0.003084314668831125
0.03538382790547964
-0.09955750450605262
-0.0014987621156582452
-0.031633972249553645
0.007189346101739317
0.012927019943207793
-0.03854804840173187
0.008803516127163872
-0.012337397143267634
0.01103575107652653
0.00812677906191687
0.11129809837866912
0.27506680087729685
0.06706699070477504
-0.057848618754821106
0.062342197910553544
0.03926925736397419
-0.027423687194063504
0.023252993526186976
0.02211152048329717
-0.0025205067904552803
-0.024449527246323596
-0.06109482231272039
0.0032591397474975923
0.0013285055461005105
-0.017227667127022964
0.0020029832128004156
-0.029974058172046646
0.020681424710300163
-0.08028852976972936
-0.04508391309321881
0.03483611759361351
0.023647458992463424
-0.06614167177511479
0.007604540541023757
0.012994806937894529
-0.11223683532933959
-0.03081815427265843
0.0020934765471998127
-0.02836754149830765
0.021082146353933677
0.006271924708065405
0.03288574688514223
0.012491202513574868
0.040600138914382536
-0.01564231886789262
0.0818382431271947
0.04568512232830074
-0.00851184513364772
-0.003478722115653015
-0.001560386437968758
0.011774660613392378
0.013181291716040424
-0.05924192892828
-0.07630888822382796
-0.07658701739648457
-0.04737800756819786
-0.056549914137991535
-0.00708171484717781
0.03267511554341465
0.051406393026497736
0.021139777798455488
-0.008572035127806096
0.018807319945749044
-0.0018579119157285347
-0.005864030172924264
0.0041118220510917005
0.024410085573915736
-0.004662481082899769
0.016307288998521532
0.01277267593836683
0.05610695751678879
0.025778318385480555
-0.04209018231018505
0.015889070604961714
0.02858418717931449
0.038715098560217404
0.008171296892553241
0.038575895258029375
-0.017881089735970322
0.01404842471758937
0.0856859528618657
0.007294392498831488
0.030655267921474494
-0.0149067097697732
0.024448763825805617
-0.0399957327174392
0.01579413451227725
0.02503140987871303
0.03567872197884181
-0.07423239666156806
0.014629258979520676
-0.1311106538507419
-0.1760124925566065
0.06705445561674184
-0.037434998281047786
-0.020439660979357635
-0.011260555982063847
-0.02487274752522865
0.04254352524255965
0.05145523829163203
-0.12166352735273656
0.05671869991240181
0.008571337293452375
-0.011440534444270671
-0.02597505411553074
-0.020606744300044444
0.025504577917829802
-0.0117774493608141
0.013255352900586728
-0.005244126677446784
0.051282350474973835
-0.006794673239136566
0.04804344815387703
0.0397855610188216
-0.1272055398042049
0.0020139529650147377
0.04639638439239271
0.004311138129348686
0.012164138550409704
0.030876915158001516
-0.0963449342917614
-0.009560030917682113
0.007979891881838045
0.005588806647053641
-0.05325819149023779
0.009335715788098504
-0.004672205573172598
-0.024075875125783203
0.02214205580896391
0.023360404951954277
0.0013373656673949233
0.016289010459825157
-0.016175414720046365
-0.019033974113593147
0.01389186147688321
0.03751714977797099
-0.020361652275401165
-0.014886038948490008
0.022766855423162553
-0.0061032093320687614
0.009611935170779656
-0.011904961571809047
0.022248709450923564
0.01665934396477216
0.05249816251677984
0.0706046007464744
-0.025722220946440385
0.05219088291072104
-0.011295772267881933
0.013540138972662326
-0.06167485199925615
0.1611287649141735
0.0749885204690825
-0.0688992714323722
-0.02866486883943762
-0.02048091944350293
-0.016806742673141403
0.009975879498817265
-0.00337572999332664
-0.043114580411991676
-0.034517514379131614
0.010840420792137146
-0.06510472800997279
0.01581534301161242
0.006005096995705703
0.01980565352175358
0.06735438485670166
0.028283723306932008
-0.01894314729537516
-0.06069286312701347
0.020501385155168573
-0.009356578217959663
-0.02059766233641134
-0.00423833352150122
0.027876380663431843
-0.0035069283150382623
0.018489528346073564
-0.031605723778150074
0.008669763710424463
0.026890421509290573
-0.03511408633357298
-0.08224835257843056
-0.059367723311890865
0.007911809360007271
-0.014764615449235064
-0.009934203377061943
-0.01783366288710771
-0.026268942966946103
0.011970435047286286
0.03747684869308236
0.021740453101153797
-0.06005141749096511
0.06796735460933961
0.029883608514264533
0.04764116355041423
0.04179265965295663
0.0025650691974091993
0.025089105166714636
-0.026170945593781168
0.03618263672736162
0.02029195181015254
0.018430736344106285
-0.025990441477704303
-0.03059761808512481
-0.04073025819556332
-0.00379619311077119
-0.0617252534309892
-0.030892489681284732
-0.00736845771730708
-0.020783254620769322
0.06791129329019154
0.00516697254040356
-0.06729648802181384
0.012638552467378139
-0.007055262611017821
0.011924728122921446
-0.012690770056696018
0.07222170571471048
0.0036724762712516414
0.06969228240680919
0.023426025323028427
-0.02865102572897066
0.002253176971142187
0.012201563614103012
0.032604712920374694
0.0371675150512412
-0.002500494664691056
-0.12334805991439021
-0.06053348282980705
0.13970927460397206
0.011063079314405715
0.00019164605557624498
-0.012684264269753014
-0.049353009480347626
-0.04108402667503992
0.010486923222565425
-0.054739397412612224
-0.09273179039097408
-0.0062621141420140525
0.016820656407805588
0.011835740944043325
0.04658576265876104
-0.021538036813776636
0.022767055614409584
0.019851782095838374
0.0010763168590233493
0.045163105496764104
-0.04015074336566608
-0.028152812587106855
0.0034887621817276597
-0.03210611457052875
-0.010030773503021468
-0.024559432108725122
0.013113099660158617
0.006116923002513231
0.14745697613068368
0.019179336409589538
0.020776639120640972
-0.005246307586548329
-0.011008279918055407
-0.02336687150666343
0.0031762606840097323
0.03907806478150364
0.020675932971477042
-0.07412053127868375
-0.03680164820234801
-0.003114668912805368
0.016923101455667028
-0.0005921278211883091
-0.01991456775240087
-0.009441076841320438
-0.04546503541911039
0.0016454820723624255
-0.02309710480565372
-0.016925701848782383
0.07403790178832005
0.08913962035515494
-0.0023373605508451053
-0.03203703526284687
0.04729999004990254
-0.014038713585467677
-0.010055043729591396
0.10301941235507046
-0.0014086416227642765
-0.019780830658678607
-0.009243524566280215
0.002206015119437488
-0.03416287826928282
-0.06999163077603085
-0.02256751923285244
-0.022566995076153614
-0.026433708944550077
-0.001354073845551069
0.013432198495808062
-0.021426693095272464
-0.0018257866854691355
-0.004964667734896441
0.08457336610015616
0.008868301778683156
-0.005150702759266152
0.034441537670229325
0.016854080038240852
-0.010588092963417148
0.019633123772749634
0.023498821730724793
-0.008273213882185295
-0.013760484001832909
-0.023633940910119007
0.012157856831164231
-0.009701252068694023
0.007754274802489179
-0.013336432411345153
-0.017401061979240802
-0.011536051969717803
-0.003972630886171652
-0.02591406401162396
0.014950844834962354
-0.05131544132064736
-0.006788647938553813
0.010636085329940212
-0.05925916743539254
-0.07420664264229897
0.06440045097180455
-0.011715631985692978
-0.026750531362053832
-0.011657334151097074
0.00844806075957842
0.002189404935987955
0.08838387102627311
-0.0004058256051130913
-0.04053188748593879
0.033618496563053955
0.03353190185729854
-0.015553575114098168
0.16826335803404732
0.14339906048982712
-0.04761611214435785
-0.010286625222998131
-0.10451296304330374
0.0031454346984748525
-0.07097209946118543
-0.024784355705312015
-0.03860178110589889
-0.00428688395261163
0.003160945701988538
0.013581611217616252
0.005829416031803562
0.00618168090543422
-0.011665200569895107
0.010281968229541133
-0.01644721445039555
0.032077873408463506
-0.017399522757652143
-0.025955822666902675
-0.011629153475762898
0.002221671276068666
-0.009291401333021384
0.1840473516148208
0.03575292303909734
-0.07890943719425933
-0.004076183978458184
0.014988059034753858
0.009870592587557474
0.010002728276271527
-0.007233401523267626
-0.02978813744885347
-0.009113984180229594
-0.00786964194917247
-0.011620001712646485
0.0007892408114065711
-0.012288512016880436
0.012012747802411298
0.004859066040299498
-0.013686069139110262
-0.037712990433906586
-0.02479113519385731
0.002489502322837434
0.05200772673817116
0.02181911341591099
0.009117349834019206
-0.006036512697264623
-0.10948192659081639
-0.01840826137761882
-0.05102524336393059
-0.08218941048069274
0.04731652712802408
0.022188923569824263
0.0956672947768345
0.012929040438929978
-0.004553166931662206
-0.013168387653572184
0.0003537460809849022
-0.0024116793237630016
-0.03357519480581716
-0.05013522839343932
0.007237913503966083
0.10624075435556848
-0.015408066121674903
-0.002289175545551649
-0.007384641669202045
0.058048176558220116
-0.008088600368040304
0.019727760747476324
0.032892164188051146
-0.022529228545339407
-0.0004421732512791504
-0.03316782910073945
0.0008307001001817042
-0.09688587995209166
-0.044149742742386026
-0.003497357522050503
-0.004083710433755858
0.007280120933139898
-0.010317047667993543
0.08940886766947577
-0.02978912313593049
0.06840497170307434
0.13123016936602153
-0.024381522359645247
-0.012884792786344761
-0.013171475484993825
0.018759860100599
0.025270516122583596
0.013036555106230328
-0.0275218103398366
-0.009893143508977615
0.009570787249951624
0.01385365867189832
0.011825799219876486
0.00940380334023278
-0.011139412477667301
0.009561637746929521
0.029939643885452037
0.027118680442570032
0.0010889466301704656
-0.05769240634520521
0.0225987053717806
-0.027122171712954737
-0.05434491445160949
0.01051641562786565
-0.02607999100890879
-0.03876613882866562
-0.045917064667922294
0.008299285884399273
0.008424167514688913
-0.0021647387762281306
-0.028379097391556155
0.009351631123222709
-0.0022133786035159887
-0.0171757917555168
0.04168842341122491
-0.027137488465883784
0.10389958286845498
-0.10516772689502969
-0.13030792418159967
0.051086956160983785
-0.007372258597124311
0.01871047529678359
-0.004876268089205318
0.03952789916840592
0.001172406819438528
0.002591019579328246
-0.01973225320608522
0.042697674570704905
0.05065561545754146
0.013554317029277294
-0.014111253398330281
0.029222548058509476
-0.004714383313437304
0.01744480055314281
0.013743994600399906
-0.00022626963219458124
0.011331929168087475
-0.0020111836489241615
-0.010613019782280159
0.006030596721325832
-0.011210771214230421
0.013953137209054932
-0.01790320447502506
-0.017916849557196975
0.012657024412791488
0.019582910895353026
-0.04804474677096188
-0.004097801442801607
0.02424918564874757
0.02112564457804172
-0.00483774799560316
-0.006227677638439787
-0.022520568098816838
0.017669676578180773
-0.022442258969977206
0.027326317676397528
-0.016711727855019853
-0.0021636774502293713
-0.018579814708737416
0.056683012606063565
-0.20294739544506515
-0.10099000094543233
0.03761481730069752
-0.008459753395795742
0.05428713909081928
0.01191119159006034
0.030583043656591688
-0.015729664779774003
0.010776092800645329
-0.04073713123061047
-0.010429959531284116
-0.00031188857614404726
-0.022438404205896857
-0.012306521717397765
-0.024908237839832516
-0.004238911905089609
-0.02589381331945123
0.0931605226787683
0.11837859010299645
0.07142466591672242
0.01739511062109477
-0.012395238297273722
-0.013265598011972227
0.024014255953483082
0.08233809067827295
-0.0026945056940601815
-0.044213404349169434
0.04935330913457529
0.03135015697744026
-0.03490639773515245
-0.01746533788237194
-0.014196753346777951
-0.014409725207704874
0.01705875920897467
-0.02219285739027473
0.14838054014959792
0.07566138337823816
-0.012257070081751987
0.03291098850697804
-0.015237136282619055
-0.06642333069718702
0.010762845162223023
0.04234321036413862
-0.006763246514039446
-0.03328856231720977
0.01026099391119553
0.01567556829774058
-0.03991810464317207
-0.05083613623787467
-0.10612620558226038
-0.1220848861038993
0.023540708841368156
-0.006164008782768382
-0.008448392845071382
-0.1445132406591933
0.09487627643603834
0.10631608397176927
-0.034671954983217075
-0.050162408514963036
-0.05250469307611045
0.018369901052146965
-0.02036727926352115
0.004149636490835074
-0.017435657693980557
0.00456714717411874
0.011361122584385673
-0.012205360195304537
-0.027433877849219423
0.012684447072134999
-0.002452755485575422
-0.007654499235193716
0.007026635649078512
0.08374857112424128
-0.009127466933947224
-0.00246648106720079
-0.013991121134917071
-0.008733206348924763
0.03408207871639525
0.0025175058124284133
-0.03593177197565063
-0.0007713152487475355
0.009196471618541346
0.020503248968866197
0.09179511791011062
-0.001741630558702216
-0.008157141167505612
0.04289516260665801
0.026674830234502348
-0.018206586938981126
-0.018223236601892453
-0.0053753725308737475
-0.003924732504786875
0.030739338255397812
-0.0057747072002243644
-0.013860524986679007
-0.00014423389946535467
0.011653570077517876
-0.009438138089684226
-0.028234503201187176
-0.03915617966122362
-0.03541656685439255
-0.00426980490357608
-0.0014180282559124228
0.016810336212687117
-0.021341775928786794
0.01619875662081413
0.007292321606583961
0.0034024069405384945
0.00017496486728078278
0.04717242837445412
-0.02088552782020141
0.11082817266960382
0.16479105138857114
-0.027793933663728218
0.016367610368970553
-0.01431397474159932
-0.014816508418043528
-0.028378527953739845
-0.06204796045812599
-0.031998015648927895
-0.0028715600008808527
-0.0645168065172583
-0.01768972051256756
-0.009480553522741833
-0.054711986391521
-0.04567534543870165
-0.11612009594190169
-0.04527308211260132
0.2715752020220826
0.001288730121900935
-0.07322890280574859
0.06670043218569248
-0.012676057680513234
-0.02112382321760242
-0.027446467219873233
-0.03275303407285306
-0.0010560992403073068
-0.036613072249240236
0.02411828700075837
-0.010273656709521338
-0.026793385313038355
-0.031194566610803907
0.004128869530410795
-0.0175995194461889
0.0017807773342716196
-0.021280554637141524
-0.019134917971527436
0.0008087427323880856
0.09213801428643652
0.01499253892995508
0.06667684843661639
0.005681086376774208
-0.032453837487290395
-0.0001878350723662362
0.21501083565297865
0.10276395779852447
0.01953407077318691
0.013051105997633147
0.019295867754141948
0.018672842807095892
-0.0040792217571283184
-0.01854744083795323
-0.022725842225820216
-0.02396939301074015
-0.02768538640223672
-0.007188132715321819
0.01577159131917976
0.013582630021060534
-0.014965423344794759
-0.008980225391936901
-0.03984559452701958
-0.17681378193433123
-0.09328047516101198
0.0442815157776297
0.10182723759286451
0.010819665857662648
-0.005228578436634177
-0.025494954773952513
0.011070286017961657
-0.014868592335377491
-0.015248521838157347
-0.03740432255708386
0.009452122849026686
0.022472085118096372
-0.03263057006550555
0.04844206380376661
0.04351461024228594
-0.020967389725568743
0.002283573903486406
-0.023934877733116214
-0.27866390072051284
-0.04657980626673724
0.021700269872218347
0.019410018473292923
0.024892351827444387
-0.00047340539608386025
-0.02861680431789995
0.0003990586385019187
0.029387365467661828
0.04353284345831139
0.04010206895630557
0.043372677302317864
0.03540335309747563
-0.013464229253686011
0.040030210114419
0.003684897774660606
-0.01490190316734683
-0.01006913124630361
-0.007422380859078698
0.0016158678872517421
0.0023496311920120673
-0.019374406620163848
0.0895710191930661
0.018787994573899795
-0.07303583008905919
0.0072653979805780535
-0.0005364995491800179
0.06424693169560204
0.047172628045819336
0.01714617354323755
-0.02220024071336843
-0.006742565579292623
0.0187866076731167
0.004747437931338532
-0.009565129689507667
-0.018091707892460184
-0.018881663668200876
0.031100535554297523
0.01780197323223208
-0.030653367007220038
0.007269811047649026
-0.007938249582438132
-0.010336830272219323
0.05034158488214638
0.008455411482152902
0.0192008476848739
-0.016055342981614883
-0.040502988010924335
-0.023061438885115314
-0.01084385559830745
0.030508226612413824
-0.041740075286477024
-0.022507100461857714
-0.003361351178013186
0.015726321904962526
0.03722508149954719
0.016129030346700227
0.007843608677494934
-0.019043642275553396
0.01029983527849217
-0.010794175724734149
-0.02286315784712955
-0.013677769001255774
-0.0008383349730210438
0.013908411836793847
-0.004494478799528807
-0.00791494549905207
-0.017971293333124132
0.02127585736777134
0.0031546210354129684
-0.01004779654428481
0.004572571197301445
0.0120408884390206
-4.465358555347402e-05
0.003781910816186838
0.011920370327621268
0.001285112499477669
-0.0002232201071901405
-0.029879214083712545
-0.15128095834295086
-0.031179854092197007
0.04580524221429293
0.041164825826610484
0.006890440095258839
0.021293782048227818
0.0158053866478346
0.025284597886046346
0.04845841560987266
-0.006689602918905809
0.02207644054935261
-0.011583287094855269
0.01230935586998061
-0.03266608038176413
0.0034940775548792653
-0.05594222992201599
-0.011762666032844094
0.004518843621848355
-0.002926459571608279
0.007188685931603853
-0.04360553672765996
-0.01049445134587888
-0.007347989724074014
0.011782832773359331
0.030164275919537163
0.0038233921451429438
0.037610167108040195
0.05003693847713296
0.006627311589822061
-0.012382685422823121
-0.025472134913813966
0.02681221409878628
0.017109200349220713
-0.022551790850050945
-0.02259944545419913
0.003088901738433254
-0.01637911099905666
-0.00561912969593828
0.026237717101869104
-0.08633070017719899
-0.05309578460812021
0.027187452459876613
-0.0357389411280463
0.06385165579383857
0.05680486270919703
0.00824413324677234
0.08838910165513884
0.08081426736622119
0.04622946976163443
-0.014468567819349087
0.029146471235570594
0.05447140735060209
0.09214369424347682
0.02719778927535507
0.006469303927790398
-0.052813792626065635
-0.005795725801260138
-0.0343462502573298
0.02171439312856824
-0.019692292062354927
0.026196160330101834
-0.1677263118511384
-0.1631821038135529
0.018040055361929614
-0.03807471940766448
0.02046919252453169
0.0030231212689209434
-0.03459868758764805
-0.022716439771728936
-0.010362729131869202
0.057419300000783505
0.06555526448229386
-0.029513029722158052
-0.01234424834417806
-0.01885858319577663
0.02210493953132055
-0.027094325064373845
0.00676507916198772
-0.10029684250635901
-0.11035509685997463
-0.07499259225349732
-0.19286934373796416
0.043929722113680986
0.005834133635608751
0.00817517949416723
-0.05612742557057563
0.08695439781987965
0.11409822692412898
0.0012626066475554362
-0.044866722766950286
0.10437138651768771
0.10956322190962955
-0.01281933399137432
0.011735750728241349
0.044510468019280006
0.023277124250128244
-0.05305828067452049
-0.014694513706323102
-0.03861894582312084
-0.005784142774755279
0.06835243398030029
0.08389053165873755
-0.03482523306609224
-0.0564217101766742
-0.013038504857209149
-0.014696830617564684
-0.012205541376043634
0.0010253188989325394
-0.0030503762492398857
0.030827952182485553
-0.04526341644420996
0.010285375006958487
0.1583659521407812
0.017289690366659283
0.0973885212173245
-0.05542080659397528
0.07415239684830126
0.08398230552174463
-0.024465131427909476
0.026318497272071747
-0.04390861793201696
-0.006870974905841982
-0.013051336047015638
0.008028009797896007
-0.03252233936292865
-0.049017789891211735
-0.011027235304234844
0.020842920415295736
-0.016095699759360888
-0.010579621413813136
0.042540844742593516
-0.014645958652067654
0.027120136043054827
0.009919381014990923
-0.019389507078116954
-0.0365337640844402
-0.011594424216639547
0.016200561258361168
-0.013359328867814222
-0.0159942086943045
-0.028190739177812615
0.011043208320214095
0.0015257677861690877
-0.021384280486335526
-0.0012579164634739532
-0.028354564517444062
0.01048198044310299
0.007842599464016985
-0.029806372703960034
-0.0002968324207952698
0.0005225645161306543
0.007885209956249563
-0.012135310650302105
0.04197871211951539
-0.010120121549680595
-0.019352957979913744
-0.012102052163566402
-0.036674131727667175
0.008623240128924414
0.06965402344222114
0.03263697544617599
0.011372693042883625
-0.011318661956617456
0.010899161069149961
0.030191471848690834
0.022006522867424168
-0.08430347936658582
-0.0412644235780785
0.04190467530164539
0.03221712031274371
-0.025869480588855426
-0.06737692255299212
0.031611971323764886
0.012060825100290136
-0.192481854871951
0.0009770086029310167
0.07130366375299022
-0.026493614457100637
0.024419954196953985
0.021954595492530243
0.0065663490568296
-0.004627703236916553
-0.020019343916206054
0.0062419988788230815
0.05760540749664638
-0.0818771707913883
-0.020716216422553415
0.031450333382506246
-0.010910502926068334
0.032241094475575646
0.0332099231976834
-0.042126456528585696
-0.02320666606954346
0.0014141450968193873
-0.012499928803962727
-0.001112666243424142
0.011373642311925782
0.04429154597927668
0.02273800870042046
-0.028982815233202574
0.023754829028077552
0.002503974471803742
0.029985197086794618
0.07441377564049075
0.03111150578222726
-0.019348724781442422
0.02658780173535969
0.059703242729300186
0.00041447069384910443
-0.03921834402754544
-0.04720473074945072
0.012989477541484653
0.03209447772704341
0.0148859461690835
-0.006836544880877165
-0.0387118680291555
-0.034405869577056034
0.0023378287756740854
0.026347151851914927
0.00438126615327247
0.003600077803630336
-0.03224928350040915
0.00838258403384364
0.03612910728378547
-0.009753600941030718
-0.04190528830584455
-0.03547430058486732
0.02146626665464157
-0.000304731302949953
-0.017849940754423102
0.027881906057949726
-0.01638939338003734
0.014760579222488657
-0.015441469997667904
-0.023436827778965406
-0.027799511872507978
-0.03348736794379088
0.008409177000865822
-0.02923081484134576
-0.008873954223371153
-0.019798455213576614
-0.07043178849040826
-0.008186295633367749
0.0368379472367794
-0.037488637928984554
0.09148589429845097
0.049112718784637736
-0.011961028350206697
0.019744700753792716
-0.05029064133622933
-0.06494787413048442
-0.0066054126223076895
0.0031844890543911305
-0.0021977466932156784
0.034228792134678075
0.023993342335946098
0.02722564030492175
0.02497150799418996
0.02855035242580318
-0.019401483691648725
-0.01558345268647703
-0.030819159647212085
0.010982540629329029
0.0780609470402388
0.043969696805205856
-0.006983455936925511
0.01755966619416631
-0.007070882233033157
-0.018855118327360237
-0.005299186060107946
0.0019140437841914837
0.012109556329383488
0.006449370793010033
0.0025513076586841568
0.014986167347964346
-0.016996373055529406
-0.021982141932942848
0.03881159762505511
0.0274573906695949
-0.009176339379888394
0.027365633923889146
0.02806709328573016
-0.009958793750182451
0.019320364680704628
-0.018091756004156898
0.054833964890375744
0.04747180601151155
-0.058720339199582264
-0.008889545080068076
-0.018876951585307007
0.03607792101932511
-0.04739707687459558
-0.015804386955109356
0.01052575024522319
0.004589997028063054
0.013577875231792552
0.015373914550303971
-0.004754204555987327
0.005511200344897858
0.0022143153351581717
0.0014404292666312833
-0.0036195336312089595
-0.00012773642125911742
-0.0006137651612516781
0.02057861792018722
0.022540319261087762
-0.19605183326034728
-0.11233801097330695
0.17447459443534416
-0.1519006476417177
-0.24578536297764148
0.021131209952532006
-0.02109028314513975
0.021656784655724837
0.026221854263661873
0.03539719970223655
0.010480159445336147
0.023220517632596888
0.010425312242521466
0.0525824103225899
0.03192653151001311
0.0021754223231942277
0.007519461079921201
-0.004676256474859401
-0.002484624757225838
0.008244514791933659
0.014335546175510794
0.024466708704911366
0.06587553616548043
0.051363106725016816
-0.04501043598717606
0.00954924829135395
-0.0019274090358186015
-0.030650661931007024
-0.01950671116856303
-0.02299005026312028
0.013862653738287026
-0.015696898434931775
-0.028102529682706438
0.004227608059203606
-0.007274362595786329
0.013913121577374883
-0.010126141866974291
0.010858665290710334
0.04118868432906529
-0.014684779215535656
-0.01752154235929106
0.011549674624962323
-0.013937740283611832
0.006599503868377513
0.005813652355934131
-0.033506114006959596
-0.008037691261479317
0.0015538861001086173
0.06081963263802349
0.07423562163334224
-0.004274343712043557
-0.02334304678567417
0.012573987654215071
-0.01607056721500971
0.017143933908552064
-0.0670884325444581
0.006398094927319211
0.02084983508232639
0.03353654432843124
0.10170256213708122
0.05633623313264457
-0.03015542620450265
0.0099687661046397
-0.0029921460760441894
-0.0068249036951472586
-0.007586216127822511
-0.016318587668217324
-0.036663690582331515
0.04839887748733412
0.05984265416764116
-0.04295628960725536
0.01117036481490229
-0.09896783388174733
-0.04269121656872975
0.014336009005986947
0.0004000762287468719
0.05706584659591812
-0.030583406163681482
-0.027679315327899905
-0.033178282042698994
0.05247152709824643
-0.10960990414757818
-0.05690754647355263
0.004666981975806639
-0.01912283887219744
0.0033129111512966267
