0
0.015402252111751523
0.007256797392111698
-0.0031511956323972187
0.0485820203678787
0.0016973646095504978
0.0036928142293542825
0.0013504241288109908
-0.02028984480549194
-0.005284616194183319
-0.006810054726256218
0.008277446909259821
-0.01029672369720065
-0.009272827491534085
-0.014840683273005535
-0.053679827330895394
0.020759989047974162
-0.021221560636136
0.019958418957011784
0.020354559855261755
-0.011759349191590667
-0.026903799758936513
-0.00417593374608384
0.09401391075558427
0.05944737139268575
-0.02662886580427478
-0.030101801766284342
-0.03219062037545384
-0.0541199141727914
-0.028456426371018837
-0.05024385958617235
-0.014154042906201465
-0.010453060022841324
0.009458662281351731
-0.00847149092929892
0.009628045664661453
0.001238958773982548
0.002602765775114988
0.04633084999945718
0.06786761893066447
-0.035170619880920115
-0.016375724589957473
0.00186338919261353
0.015611466907851217
0.041892172285898845
0.051471232020086986
-0.006174105799801274
-0.06097844364962849
0.03114344975076765
0.012720966796322926
-0.030033821483645397
-0.014423461333004333
-0.012224465515336373
-0.002189212601906741
0.01602014177030822
0.00046180278598676296
0.012203290898055085
-0.009308593921314235
0.015015815778320073
0.005341807141603903
-0.0005223911658259829
-0.012178422780292995
0.026812426058294956
0.015386282341573486
-0.08377381252018
-0.008649947999567099
0.020939720420927004
-0.029271558533280236
0.059375996975762124
0.07108971584405165
-0.020530584903804983
0.001953706905608003
-0.04018911714122725
-0.01938448936571277
0.03687210542554942
-0.2266117668514602
-0.07588012936603673
0.021782857584143056
-0.01190114772894662
0.052277619583030885
0.036274828004699826
0.03015668754481503
0.006254419168938455
0.028130443699801434
0.002035493392415525
0.0004805302734244064
-0.017702745745005594
-0.08603992929942562
0.002410513429919132
-0.01678414226154024
0.03677840167672859
-0.04671475421560173
0.042988674353191966
0.19327115787852356
0.0007681417510323879
0.023796248923260207
0.0066770224494978785
0.007987983277560794
-0.048954650505316874
0.0037661493753087588
-0.0034407672426274823
0.002183555954385596
-0.001475502045914156
-0.0021583668661223757
0.009155490205519836
-0.015911762528580835
-0.04699105806805133
-0.016862336427048555
0.020808516324388033
0.02327066017069846
0.025627160156409517
0.0028794283832324027
0.049942962131285
0.04095507204173426
-0.029824882860894554
0.04721324415177944
0.11391774187635996
-0.18478091029055033
-0.04722215028528029
-0.01141313625818317
-0.011757143001273415
0.0314507322870491
-0.014124336536686183
0.020423356756712904
0.029454870709582925
-0.013615030388418785
-0.060341702967123816
-0.039613605926437125
0.00964627551404272
0.013538194577687868
0.01406385701174364
0.005895357884649013
0.035893061910777596
0.03028887365255632
-0.006885153857788218
0.01150980929832858
-0.001433359761687615
0.04658645542164991
-0.016036332571112498
-0.021140872051712736
-0.006514400651798307
-0.0059849370700127144
0.005357022866609693
-0.01076263867393146
-0.0029258492016679487
-0.023030571230286255
-0.008399861588257767
-0.01835469478175501
-0.006222683294482347
-0.0072853667340863635
0.004363355832762449
0.030286185763180175
-0.0009613803702613543
-0.01080035932951912
-0.03247909894622117
0.009270217988539642
-0.014793371282009443
-0.027269062534852704
0.007246807735399252
0.020762961205755628
0.02894704927260107
0.018288123317223154
0.0030413151875670875
0.03529348622736928
-0.0555997989187276
0.023489987312544466
-0.03038705337064558
0.025570716573853323
0.009713840833214662
0.03389652735947835
-0.10965265517605925
-0.08471666304801251
0.05855327480346229
-0.002384865647344497
-0.01652371953863663
0.022101755644611528
0.005415290953577339
-0.005570828543503698
0.00254495527941836
0.025782518763521115
0.019977410216698344
-0.01209676873732233
-0.022336850568867844
0.01457896643442983
-0.005632195704968129
-0.012613878884386816
-0.019740433220561075
0.03911201857870173
0.08580403371907312
0.005205950178370713
-0.03464062618147433
0.011728093265225486
0.01924540315321947
-0.011896874363023797
0.00912741066743018
-0.014219361588078907
-0.03543975298849211
-0.10307468861881744
-0.038560202260630116
0.04118458057484775
-0.029774120908889277
-0.01840915590964256
-0.008725654924380754
0.012659032422503502
0.0018807190381535917
0.02214947957525261
-0.032078639712685125
0.15627908933770243
0.036522427336639504
-0.024702520436470726
0.061442951043825196
0.03954501505626012
0.016535824321701854
-0.06991945200227283
0.020346324547962022
0.031996874245697235
-0.02593672602609926
-0.02517060571677407
-0.007882979012501293
-0.04027574318222918
0.02072622372890262
0.03643149382372206
-0.02613834905715181
-0.00688436890574853
-0.045622848176574256
-0.062293539359323274
0.04927467695876149
0.03856687670430606
-0.0017894746404005179
0.04145192438261874
0.03354111911028433
0.015010736337938525
0.05602389853458537
-0.03167919339579781
-0.26251291796787946
-0.018156566763488067
-0.011412926952503665
-0.029734692947539137
-0.03629761187369452
0.1505749478980281
0.060521457827747135
-0.05080485951184443
0.03132103464180613
0.003340044390246355
-0.03968018695101846
0.003828203544622666
-0.009616832833617195
-0.031888539329136725
-0.028374681001449492
0.07237177446253941
0.11031467514558319
0.18060868763856364
0.11312422155413443
-0.060719567051043234
0.049277907983024144
-0.0664421367907738
-0.08053952927776378
-0.008073423389081727
0.0035337992174466065
-0.019178864620299916
-0.02326554887586553
-0.025698553766662417
0.044985180402148155
-0.07670842101572319
-0.1387202877380298
0.06657188774741521
0.013842684150571079
0.01631344394649558
-0.01477113789614921
0.012631057878301941
0.004837624853770478
0.030164913945104302
-0.01142876547081731
-0.016616625313756565
-0.015943393335083773
-0.042370039094089464
0.011707863214088234
-0.02307564456727733
0.004824826966807842
0.014268612824198624
-0.03997063963634628
-0.04778055661122204
-0.027192070164075818
-0.003126551950142699
0.03524809085084907
0.016857369764451735
0.015093673209012655
-0.016867912138124625
0.022955816752403595
-0.023926131200575518
-0.013725720350445251
-0.002508580544740995
0.013706763552484666
0.02632524008012979
-0.01490466759293617
-0.0061488150901488296
-0.026047723265554806
-0.030228177539235068
-0.005720389543898337
0.031119308653988202
-0.007881558023220415
0.030568005385178454
0.23163785236406081
0.015241884676032158
0.02899589859299881
-0.07706252928912419
-0.0641485774334898
0.004134961995612048
0.007809606860517584
-0.018694646293195605
0.0037890953066182886
-0.013351672278883417
-0.002677852111974454
-0.006382896671818932
-0.005787404187130555
0.010786944927726312
0.04746905778256814
-0.019227178952077675
-0.01369379033768946
-0.01450891775792587
-0.011603663083079472
-0.004063773176422795
-0.041350640389221066
0.010965051796957507
0.029726339290887978
0.004340930871106526
0.01545631636019756
0.03328758835642769
-0.014340882571373498
0.006496835919310554
0.03212163224359531
-0.01846049713459355
-0.20141062618559277
-0.07085029679129635
-0.009874853935496506
-0.0022527522223890163
-0.0009408447345362792
0.02262960200212942
-0.009860439669040773
0.0017196976333131817
-0.03902059215020922
0.059179308717860736
0.021881150915325005
0.055764051251261396
0.05766372547997111
0.046781418168781716
0.19237311739996465
-0.04746848015819104
-0.005502655741130934
-0.03679885804598399
0.027496308740341664
0.01380019985233171
0.0025958904837311654
-0.019938185847218376
-0.010418042183705782
0.0038342292436155927
0.044779553461643404
-0.01546097802552605
0.01090503552482893
0.04287624365288384
0.017633236658707047
-0.042280420207454296
-0.0014501459570106846
-0.038892974333281156
0.012239914384551596
-0.20099797800529645
-0.08366587950018999
0.0068432615390770805
-0.06072616412719737
-0.04433586525068297
0.2898401438518178
0.16533554167435668
-0.08327934436732376
0.027578463739179198
-0.03582121069873924
0.019738422976286935
-0.031006576911667035
0.02929034755835202
-0.010855413762084879
0.008732244844992925
-0.013408831994164979
-0.023538056735899048
-0.024017500863308994
-0.005461074385071341
-0.04363482169429514
-0.053412549749298585
0.0009399866078805852
-0.02070573867916891
-0.010135090266200773
-0.02140997700746662
0.011167478486884293
-0.09224351818402643
-0.10803025496733354
0.031264265843086676
-0.033550571026149285
0.05408063090615057
-0.022892786818306168
-0.006471796250338531
-0.02556353871841718
-0.015538712911941541
0.0018173072929352624
0.06170280171438407
-0.006659787983230653
0.10731289426392929
0.14860601974539808
-0.0006028967022851248
0.010671172355162134
0.0021082337008383563
-0.05269103775139953
0.006226067933766671
0.007499483052441772
-0.0021702259616185483
-0.03684977929593922
-0.003273992346859282
0.00840354663850995
-0.019283179270492133
-0.013128641657917089
0.0006103320000436923
-0.013812452395342272
0.012094728547822111
0.007992122232113895
0.014771274028188024
-0.0038711493582528917
-0.011823719535739689
0.017907361176082832
0.024934168739021236
0.010613161775053994
0.03655962256588658
0.03249767676738996
-0.015206428251508126
-0.03733048386286026
-0.024715889858349587
0.05566755107148988
0.004645456863532691
-0.041882766094099834
0.04468975070762567
0.13487480268765062
-0.001600719652615336
-0.010185632377347929
-0.08207248561204775
-0.06409611010289157
0.0009022427410897261
-0.011250243278394915
0.007815952726799053
0.002655250264913259
-0.015170344836141937
-0.01383410700135516
0.009688492491618999
-0.014583370555320004
-0.022227977524909147
-0.03975582921640151
-0.01027087569203907
-0.009181340370731548
-0.004850609934770946
-0.009012458348849131
-0.0012241620310403892
-0.05734080252768395
0.03553094376918351
0.03826579664415987
-0.007071856017763835
-0.043784197475192355
0.057120818525502236
0.08966499270154221
-0.02816228914887412
0.011518041954513785
0.004311874017391199
-0.00523813131741372
0.06171982547510218
0.04201917754844145
0.0031799864505441446
-0.001984486119314846
-0.02648522896241463
-0.017604675553451434
0.09186327871115951
0.10930515734824683
-0.040089486303697665
-0.048468873540017936
0.04609591422759796
0.016349372228645926
0.012260207263447398
0.035806403754509296
0.0015019174138959411
0.016467883896733967
-0.07712128351762654
-0.024012406297323995
0.007161373914427885
-0.028483858136224047
-0.2662897473477266
0.06728376260110057
0.08438979143646934
0.006799141418657553
-0.037687825957129065
-0.03424109203160593
0.01997855753895824
-0.016999931906425503
-0.005386291769277561
0.02170974563056712
0.018134425005801324
-0.0031491597993542854
0.018111473586806412
0.009212546199458778
0.06400784402549554
-0.2285500563872711
-0.10005802117000077
0.06201218622907488
-0.0217149697643299
-0.005877557470529926
0.0013736630735601734
0.019586364059549114
-0.014342199172969427
0.05871929092103699
-0.058867677716535324
-0.004898437060898194
-0.03360080131495165
-0.023830242632656245
-0.005015419769944029
0.03222191723016358
0.004800474928936251
0.0329834786859382
0.02890825422291617
0.01958943418731076
0.031433372732685955
0.028790647768745348
0.043578202510028995
-0.10059703146186114
-0.008983784957506824
0.044865363924623876
-0.004800626386754256
0.04518187092627912
0.06056691087474062
0.001298989015178593
-0.02332176418648449
-0.000624164871103581
0.03984400723581696
0.010958293214286688
-0.016769037106640638
-0.03011865617986267
0.01297234463112977
0.009849766665801965
0.039659688016482335
-0.07609847549291623
-0.022696324940546842
0.004052314671541507
-0.005087673254742912
0.005964992375980617
-0.0304125265718356
-0.04580949966570105
0.05611792243460116
0.0655888936448576
-0.0001314761310639673
-0.06390010166323572
-0.01045306661412847
0.10104745959954786
0.011740523840450167
0.0015880056749251912
-0.0068403909937987725
0.010901885681365478
0.0009420866297025547
0.0017324892871316637
0.01968150484677575
-0.019570703296907337
0.015365595247574918
0.016361952362782515
-0.019664889246263452
-0.020776095422540043
0.0263614812290089
-0.08367703940951554
-0.15429466290968744
-0.003401380618263766
-0.038281356152249535
0.020923698833581052
0.17142006924942416
0.013244354612850229
-0.01953097569376199
-0.004658671397849994
-0.0006380408660615453
-0.004156289525612054
0.03325583436904609
0.01161845250835871
-0.004462225554908172
-0.028413076511806502
-0.021607924042763498
0.0008879317406130119
0.02951762307878961
-0.0038421112553405404
-0.03192351133044903
-0.008611172610440483
0.020998917781270245
0.0031388965539788853
0.020349750863638494
0.0076177088155425735
0.013910689711173428
0.005717255077517715
-0.002469176798071381
0.01254077229336566
0.012617085447484933
0.04176238006545439
-0.008218161201132208
-0.008192913463167058
-0.0199586411484843
-0.012307827489588757
-0.00757565954674536
-0.024669195011760167
0.0034897499358748306
0.012533068003713049
0.027443069989353596
0.0017668324494729214
0.005247800552445369
-0.008029741001552576
-0.031423541744712825
-0.027082673923107644
0.05021203468602508
0.03774410229907132
-0.02143542339705372
0.014748445419353757
0.06614114219630926
-0.018964621596513884
-0.12255956677595192
-0.0331895423365775
-0.0026570542112850887
-0.004681049850154898
-0.00737638486309267
-0.009885527475416264
-0.013077396667922373
-0.031118706386673394
-0.026477419419793535
-0.02369128559645379
0.02593155469357204
-0.014844953378332977
0.006392363486698655
0.006705911079371398
0.0049549082974337
-0.009023393027158934
0.07611913405130323
0.08589901472902556
0.00341740896806792
-0.043627496229130834
-0.050220448250218985
0.022023926011542252
0.008146598693199883
0.006803386135815321
-0.028350383351372997
0.013453151739758622
0.010173537098232557
-0.003441362588123801
-0.013576488843985343
0.003080260252666071
-0.016662366569502852
-0.03020112171570402
-0.01303457130074082
0.02908792022170524
-0.011035242557900914
-0.021236333899971146
-0.04058403240728018
-0.010122252986947812
0.06527600892365895
0.05126885803348926
0.05566658516433298
-0.005842963601779847
0.007996775439521387
0.008240579429638878
-0.0038580546802263853
0.09375681451846418
0.042668857700602594
0.028810027387677937
0.0016996987909871104
-0.025556622521391587
-0.03709372881974283
-0.04216182820832438
0.05259855427102192
0.10853256775269869
-0.01820954206307978
0.010009089801226813
-0.021346235206127533
-0.006303942908212464
0.007814352222353571
-0.0020593446583335876
0.033106449846756876
-0.02932648709588383
-0.01884944128997262
-0.08393100737499735
-0.10507153780620868
0.027844026229736023
-0.1363269229049225
0.02573881788799064
0.0051045383288355044
0.06344962102079345
0.015563588960695748
0.044158860389028824
-0.019238111497363625
0.03840906448623571
-0.20056144820071736
-0.06985015081445729
0.0458877673739359
-0.002753263078255549
-0.016303343600570938
0.010346834750427749
0.05658219638503283
-0.010904902476337564
0.00839249692520507
0.030873820377165965
-0.011277816348245526
-0.00010615793110054522
0.019919893667224103
0.006628387458414194
0.004962693638380007
0.01470277481908751
-0.004924848278046341
0.0011315663448526446
0.023901325324998113
-0.005655235878800437
0.0055912949804398995
-0.025764539931442045
0.042497786129012755
-0.030188015010351704
-0.034154414996122456
-0.004436952782502594
-0.015346195720382856
-0.03872189289396355
-0.0025920181619924873
0.000462616353586268
0.047120981037456336
0.06313219563629921
-0.004281459517136643
0.0036130524524439003
0.02642735720333071
0.011269910563145873
-0.01968847878552413
0.03076728468864201
0.005081373054642695
0.030833735604693168
-0.03850437077725419
-0.07665718330897307
-0.02295063027503108
0.01326347627334736
0.0018309949348408157
-0.023184918815603937
-0.008792807034883086
-0.038968152887231405
-0.030293456013254172
-0.004165682033224391
0.023035409392494745
0.1354202861955017
0.1668238289295348
0.00982335274563831
-0.023895882729333504
-0.03980214461311034
-0.06009574664055235
-0.01676660852674897
-0.03225880570736816
-0.018178617351358048
0.036775886003402314
0.01672037128152517
-0.03442839957039098
0.000571291619036139
0.041449300196514514
-0.010901010461254136
-0.01735103534897428
0.0017484519964834587
-0.04524522142794886
-0.030577332935563542
-0.028388966370921184
-0.02743033594866694
-0.04250663306708305
0.018723171661607817
-0.021820216412223096
0.02240167613670212
0.014129022549229452
0.002657135363050915
-0.028075995472002735
-0.010690222373588265
-0.03711266418072822
0.2249810161874006
0.037128796200160546
-0.0318657202966995
0.03830204196529297
-0.016953526654539825
-0.037450923160936955
-0.018327459510699286
-0.05528791474209772
0.06671388631808156
0.2099296716917432
0.00046304247384232344
0.026416810241997237
-0.01406726670081066
-0.02774300591812614
-0.01061549256393868
-0.017418906650937867
-0.028574298183383393
-0.026685055588235862
-0.007609193090012479
0.028677303872255002
-0.017038274432321046
-0.01081394344091128
-0.010920549032766218
-0.009770789399230708
-0.022693563153985012
-0.010431219023125273
-0.01679495491076075
-0.0019732611010578435
-0.007802767272015334
0.005059869255558186
-0.013994926363141215
-0.014591639190634114
-0.0012919111042855398
0.011873219666862968
-0.17430794929839336
-0.040177629622964305
-0.0018992774151843047
-0.055571071318700246
-0.009831800282178161
-0.01521111607264366
-0.038037110582911406
0.014569755972332721
-0.054616750123157504
-0.024530500836854322
-0.0392796028842463
0.13393844025334417
0.1980116098625883
-0.018394211449706255
0.02898751906421217
0.13357425348161636
0.029863221788415144
-0.028755943416420907
0.015410176388115947
0.03969875922718203
-0.005600563251600815
-0.03553561287471842
0.01578444311089597
0.03025850068206845
0.009411264593732127
-0.0015569244006676045
0.01365162480342849
-0.04458223573010215
-0.027877768048974214
-0.026305773697283735
-0.01783101250971867
0.004180789874100527
0.011531851696360446
0.021102715074814843
0.007437116915948242
0.007967388258092987
-0.00492228659606836
-0.024716470006291284
-0.010893480874600648
0.01323434048239264
-0.005455025438439379
-0.014978223990388752
-0.03211157233697405
-0.03264222435045603
-0.009399046335578908
-0.026341022787328625
-0.028996404005645487
-0.04358803457702631
-0.004376750259320297
0.016481345752955498
-0.008562412927395865
-0.011585210411042515
0.0052067992051739054
-0.021645694927988908
0.027034238685880264
0.044457000374072804
-0.031568322239019384
0.006932342773326288
-0.02463869063019284
0.1720755528657685
0.08867471677315164
-0.03339602452467838
-0.015326917932813468
0.06180468848544956
0.06802696785712865
-0.02462634293816908
0.001152377962178463
-0.018178204299754606
0.0008877557855871563
-0.009559603047851965
-0.016771525106667576
-0.033094855927883006
-0.014525405175427848
-0.02453824683383834
-0.02390103703505605
0.001756705283159112
0.03311459679403706
0.016778673163940095
0.005352969724307202
-0.01655460368388799
-0.018375658322266303
-0.03790390503047659
-0.02513536293902126
0.029640985121127377
-0.028730724857522927
-0.07053920582155342
-0.01900555397098944
-0.002430492632345234
0.019192302600805056
-0.02377988576717961
0.00908142591155886
-0.007589681253359133
-0.00831810171202421
-0.020422214937861737
-0.019432743529345604
-0.03686699528469613
-0.004086688965961423
0.03093868381047771
0.02072484400065493
-0.06393289201151546
-0.04651343646586341
0.05289241533631047
0.015667535839735888
0.049696589883870844
0.15986765752345297
-0.17684450764414403
-0.0836597453304995
0.07133627495739277
0.02910656380067316
0.0008112515994933011
-0.011483087373210684
-0.08378023994830607
0.038087973031548185
0.043883744612810464
0.015356690889790383
0.03485354518541223
-0.009267935585614296
0.07821662894510573
0.06106133277069244
0.1325586850567313
0.06246520450167287
0.00795942845422587
-0.03595822295147254
-0.017784489711244657
-0.02381298397248128
-0.02335737102023599
0.006944088013730913
-0.04210711596085254
0.22639713468913775
0.04315862601279819
-0.08996411026922892
0.09432631050018843
-0.09574581427555064
-0.2074988126695174
0.0009140997124657591
0.03366957411251159
-0.0016571957556724471
-0.028626781748739928
0.04372178744157675
0.06418045687947241
-0.024300932884854475
0.010967459344919975
-0.007549895216658507
0.00838643126082813
0.021056455133761767
0.007294638006533976
-0.0020260794789030323
0.0030765254864690036
0.008123519563883677
-0.4670954062356912
-0.007945724392497676
0.06399797510927877
-0.003725110961132157
0.034067256426959014
-0.02626857387649845
0.02077379767648612
0.026193177953263192
0.03393027908811864
0.017064199262524823
-0.022183751202274497
-0.05237908096267187
0.05739192935735464
0.05220769252133182
-0.0064295356366536925
-0.0017706353326945948
0.01880703668716067
-0.004343913142785001
0.048208858782368996
0.019063260617108363
-0.002681106876905975
-0.03861599793959037
0.015606108193413883
-0.025664352746494177
0.031189531736953203
0.05994816561130353
-0.03415205194463634
-0.018307482460968624
0.013938969892797916
-0.024287020309756074
-0.005170324076782389
0.006213105012829625
0.0025920150473627665
-0.0233418910839029
-0.02496671188816488
-0.0022115862261115242
-0.007012956181308072
-0.0306949656078022
-0.015802357083665196
0.0330593580167908
0.009366913668973277
0.010293377331432329
-0.023739834459991845
-0.04089620574463835
0.0028778910447097316
-0.043328700371779494
-0.010742133943972493
-0.029382088094229434
-0.01377227309304671
0.043023978547170466
0.008229257747362922
0.0075322214857046245
0.047496206550239464
0.03894760160105775
-0.012390564196435548
-0.025581841351401277
0.00654063396863704
-0.009536394431686235
0.010421508156196281
-0.0022670284435843432
-0.01601592708419778
-0.0033319347428900216
-0.013598383373488029
-0.010736996930691899
-0.0010326427315527314
0.03637351690577681
0.14556160340323657
0.0028834266891395646
-0.03920091650443386
0.03730649620402099
0.008119633879321804
-0.023089389323926974
-0.018762342383443674
0.02133956558951913
-0.020191396546769817
0.02181795416815891
0.13700346910151812
0.19681623177422988
0.05988873380190054
0.008281350811822925
-0.03054616192911352
-0.04611322470046918
-0.00931498443645719
-0.031191039690332285
-0.0031393109704099262
-0.06308736550777226
-0.002682403546342999
0.06736705005375684
0.08801493363209204
0.026381047207589502
0.04324628115184125
0.009084245261983178
-0.07472192488766614
-0.23315143130907295
0.024576631806850317
-0.051518350675540926
0.10536863785464191
-0.13722139562293426
-0.126572872384395
-0.012676197193354806
-0.14717110223996033
0.0013665221557882532
-0.09258249842146898
0.02859993173304706
-0.023471791321014367
0.015273532052417943
-0.00809849008681095
0.021336474846095622
0.021777977668364534
0.028172239770976725
0.012448173003883126
-0.006900921543211528
0.007672674561740195
-0.01570922755858879
-0.007405246748827759
0.06723694264013402
-0.019224009482658806
0.03284382871834701
-0.013121865595362847
-0.0030907338357592266
0.011919447774458096
0.0007514785379013166
0.010449810850120535
0.016933969719919166
-0.0042568920752249296
0.007889149359367924
-0.008231491525186572
0.02141385944521205
0.0032809562008841594
-0.012635543715508677
0.007677587197113452
0.020542228601824045
-0.007781263671955539
0.012507535794102638
-0.017065750144595816
-0.015839220337081898
0.014296660835106757
-0.004003279061953051
0.14266683658313287
0.027512856182849297
0.011717102197375486
0.010002459876586867
0.014173666393017861
-0.03013012657710738
-0.14526732790924293
0.043339819088258014
-0.09303152282249831
-0.004094100346285128
0.03475323465806457
-0.013853011211899309
0.006864090285920481
0.003997453135874397
-0.010297838643005522
0.02036324392561819
0.08325810224743654
0.006217859904773167
0.005917464100502247
-0.05208288170753159
-0.013394685742185077
0.025397989477555376
0.0031451519751380564
0.001742306222229722
-0.024412805168416384
0.008481093463750472
0.006146876281992961
0.0007748177380183267
-0.018118587428378467
-0.031562533565801056
-0.006811178037406921
-0.019511620126940913
-0.01638744247195396
0.00107359415176132
0.027693703029341366
0.04273597800650374
-0.016361465691526602
0.058711947539210205
0.05793141968299203
0.029922248476219025
-0.014090988054322982
-0.02355692845947515
-0.03199430175271043
0.008289183618754973
0.028174124517611074
0.007576419171784018
0.0008685054969164779
-0.037275253823781614
-0.004698293292151653
0.014734031359624977
-0.0021181237029856345
0.0008421193290144295
-0.01180917168955775
0.025158438242296022
0.0366313549002751
-0.01507271751480225
-0.021851508657553736
-0.022148331264352752
0.03448873279712795
0.031727140722965674
-0.029727495730376828
-0.020533245934848947
-0.09455575127430536
-0.03423458590343144
0.009066341863266237
0.059417804831096016
-0.008183335818374307
-0.036337785237307546
0.046352296900756845
-0.001769045380491315
-0.013570725716222753
0.032675015873248746
-0.006225612228253144
0.006903703478974767
-0.0049639082955798795
0.0274898666386052
0.04154630263526166
0.0014035936855428216
0.01359801289323929
-0.037957713501976825
0.009270469607546657
-0.11650175159863144
-0.07964855795907697
0.02136577278489397
0.012082504340319574
0.01111349931060807
0.010653982584539706
0.039306392698355265
-0.04674656410458312
0.0125281762430825
0.03054998251129716
0.012377570987566804
0.024242070380533134
0.020482050031226287
-0.00601791960479768
0.011097602229391814
0.011837305502716054
-0.003643335586236774
0.010560063479195234
-0.02383384705606501
-0.0368757363943578
-0.006683262505161291
0.00270922652499486
0.040736917641111044
-0.018299527413061886
-0.03432666577682964
-0.01770599280002446
0.02308846151336085
0.025279382128018474
0.024896317375258263
-0.00035111332735123483
-0.13119156410225497
-0.08313564251780672
0.03796891879351673
0.04201652490079513
0.08337093987111546
0.045698023005105004
-0.012956805535202724
0.03830903740886245
-0.00016512438691819507
-0.04638112765036071
-0.08452574468861197
-0.0073240838819878555
0.050221686193267896
0.020615259960134955
-0.022431654414371966
0.10594011535201162
0.22173832504050478
0.08960554364651396
-0.05124834802870893
0.023754332823665868
-0.14577626313672237
-0.17227754604831644
-0.01737473143927991
-0.013452387752906697
0.010238244873392234
-0.06473596646070005
0.028572414233496594
-0.022054525106119147
0.04629196797092803
-0.010586780218781747
0.006563604823824696
-0.07775541153768802
-0.10563741871150646
0.03384490202877396
0.005889288230594891
0.0063739788665204385
-0.004164834958464422
-0.02355307227831664
-0.01786984381765175
-0.018843688377368845
0.012868983289213577
0.03355388054205508
0.005725813873649349
0.10674967635441414
0.01653224383485091
0.023515767130799985
-0.032096584782556566
0.008151209177118226
0.027353352223525463
-0.007450285166361809
-0.0718668627789016
0.04315771581285811
0.11241329968303372
-0.02395636327738611
-0.002530562607762371
-0.02286619481072824
0.01826745992186734
0.02129134152075064
-0.027999143950507597
0.0024459876904385424
-0.0067128249504643175
-0.007979821252282056
-0.033889111024018155
0.07126116728174536
0.04344326806223321
0.002769415912749585
0.01725105631245253
-0.0018377763082654483
-0.0637354850979358
-0.014417056768565065
0.06026786277509362
-0.030681606840549797
-0.02281122109123436
-0.027257187009875197
-0.009418860913696592
-0.013095731477489839
0.12953396353552213
0.052149877578431106
-0.02809123441204513
-0.05546297467167981
-0.10918093468190351
-0.012861803248414856
0.01842506943445183
0.0113283336743029
0.013017590057588969
0.059942060979680134
-0.040947097573547836
0.028073137738850135
-0.07785941386636236
-0.09509724048795182
0.05001930866491435
0.03415386688239999
0.018069237270557224
-0.007301490362922224
0.014261264284137093
-0.015892629266883125
0.007544225857313339
-0.004136971916189167
0.041683692275873215
-0.016803867226549852
-0.04290803657820288
0.017663895341354492
-0.0014150504395833612
-0.006661395876661062
0.00959674618700007
0.0013018565720193118
-0.014142765452094539
-0.0004770890887209567
-0.008988869885526735
-0.006748067827127499
-0.04732401932657369
-0.03355142338613445
-0.0671626925758516
-0.033779290554638616
0.046570294577637665
0.044242520456467344
0.03849704101226452
-0.026239576821855033
0.004837569485278698
0.004319814951180297
0.03831873176245467
0.02483388265850204
-0.013449737109496254
0.024243597198269153
0.041573507417223425
-0.010285512475589504
-0.0012047833659988754
0.011950173531168706
-0.007160154618637211
-0.012980356991972112
-0.023290747495632674
-0.006725515621685423
-0.007814633598266807
-0.028587425592700402
0.03780083497373206
0.2378179733842481
0.013322938258883157
-0.027197426895003297
-0.022070198391157807
-0.03925742976332157
-0.024407562275169156
0.025695579343313218
0.009157228210549984
-0.028764432037556065
0.0005511886682371727
0.08200962692788633
0.022156455616493216
-0.06996890269773112
-0.04776405869426849
0.03466606892833602
-0.07847539497663257
-0.038472030321087515
0.00595148880356268
-0.037236066936516724
-0.02115371966426404
0.044778829044041964
0.004525997489821639
-0.02900994515838722
0.028022874296651967
0.0004799219673421529
-0.014567803762954681
0.019685703389490876
0.015310246416068532
-0.006808361034551653
0.0018550534876155833
0.005450853204921737
0.023017657779015103
0.01823988587475532
0.005636046078114891
0.0022772037525522456
0.03609592047413733
-0.004740198993932301
0.002804909466486776
-0.029104670889174233
0.0015876276821684173
-0.018953314591652667
-0.020603400943874726
0.013506138327022403
0.029931855661724543
0.015498525471043181
-0.008586716377896807
0.00857478054164449
-0.011809541823099113
0.011018354001784976
-0.02837853611311674
-0.01728117874712116
-0.10835255012912375
-0.14589900905246134
-0.05182828775015037
0.02232467513793003
0.0022742986954594336
0.014170478876070229
0.02656910151983092
0.04688497545304969
0.046983451355130594
0.015804501627485413
0.006032891221168211
0.020674808354627094
0.018201388053692345
0.010991594357145723
0.004303551583746104
-0.013670937588268223
0.017013458128063676
0.04043257559252115
0.03198297532929212
-0.07273521052679138
-0.05975539419539082
0.046088629714095615
-0.009379741330433074
-0.007148084582968246
0.041903126388591797
-0.03898531802981905
-0.023218767155922988
0.0033068680465691168
0.0019450624376040992
0.004283635147388561
-0.016191009644488573
-0.002278250836350478
0.013150973574672523
-0.02572697480878929
0.04469415918441411
-0.0287836015772422
-0.03717569095977086
0.05779256847562726
-0.010047742721910212
-0.020392924460399225
-0.02686430090603338
0.07654076097452427
0.1313545914306458
-0.08435516961829288
0.002447959999203213
-0.06930381622710419
0.0031763682374325196
0.06446943263762182
0.014386566140668305
-0.02038644982714265
-0.04320564072302709
-0.033623456415451745
0.08716315532589262
0.010721706131322983
-0.02340794595183629
0.03472657150563009
0.02167520603428238
0.007793923439810424
-0.0663503314610574
-0.02412594035879498
-0.006586614210035725
-0.0245634611203681
0.011800775184652838
-0.015057391732639081
0.018272480916216496
0.012958652659471614
0.04460522375249943
0.004167021854654653
0.018161363284702643
-0.04592218369534765
-0.005932503717240371
-0.04812329634079548
-0.05600359978368378
0.1097173369309044
0.027420855195570904
-0.04089378608596777
0.015029736191103467
-0.019073695196183117
0.02292105862492586
-0.014793293749654006
0.05190139615149693
0.024062668861902742
0.08500404849837068
0.11432993052960118
-0.047938324164330935
0.05361228586627636
-0.009178582866458248
-0.020728394746279747
-0.004987558327920293
-0.1027936230880881
-0.030887398035756568
0.0058993015178911866
-0.056087229383772
0.004697882305859694
-0.018103255702182967
-0.02209948611957338
-0.04580851977971111
0.01036902264306985
0.009204243328337787
-0.018001363400157906
-0.05668416200688497
-0.03590559604275374
-0.030594398088316543
0.09769125625519477
0.0366208699416484
0.022843372878972402
0.005782925808463733
0.031114796956544667
0.022068171230404242
-0.03183039615963791
-0.10899100396834784
