0
-0.04852813171350676
0.050959127921051756
0.07951246375715099
-0.038188227175769536
0.027483861718165043
0.0035480303955816002
-0.02320631836203034
0.07541330047761527
0.10384215139414815
-0.011141656908377482
0.027849703002048504
0.01815540975851305
0.009703873208348169
-0.11095331296231949
-0.12300312507705963
0.02430921448355577
-0.005681340055828942
0.024020034360888683
-0.012327353250569035
0.04880897404158013
-0.23823315648929833
-0.10451075808389725
0.04672017980800904
0.015041459369977342
0.023770617645579896
0.0008779190384036573
-0.005884925789565371
-0.002286401858605771
0.02874293576456021
0.0033190404174876912
0.017145944899752203
-0.0013359034349563498
-0.037250578508431005
0.04716525225521377
0.07209420774395757
-0.09822330292983411
-0.007194820328692109
0.022655297009428234
0.023330834874937943
0.030429007386173205
0.00448362432497978
-0.017926853505605897
0.0018099474423142912
0.0034431342333018575
0.024600417843348685
-0.005085485337842122
0.0007765098575895403
0.008978241550393016
0.002136358895865378
0.037732603585093324
0.024761737918953704
-0.002742695236992173
0.06830209876952581
-0.026085796061623995
0.007488160085444126
-0.015116486984337584
-0.015526536478610421
0.014255880959157719
0.03209197422530283
0.03586310453267952
0.01067547553991318
-0.04414460564820744
-0.0376487307239631
-0.018871660229199613
-0.009546230321250798
-0.004981127070399605
0.008081149401916366
0.00399823628620144
-0.0002577569599102935
0.0011887122700056506
-0.029670350306340285
0.01269488689382657
0.03547408843718364
-0.01764867503126411
0.012542697782509146
-0.003706406132638639
-0.009824024802243514
0.005448629728089573
0.008186325566888314
-0.033569347533478594
0.039970578722455935
-0.01425567702507286
-0.003447472246146524
0.012071576191264314
0.011247458008016053
0.024841828047047477
0.053818816596334716
0.03388269946684752
-0.007688397413505489
-0.024262833515929786
0.013859795492008106
-0.03654976225004272
-0.053554995611598495
-0.009992085127896082
-0.03628103602629814
-0.020001508144236995
0.01673539690411785
-0.008249976919731353
-0.023718718967969826
-0.01503149427004246
-0.028434766875272233
-0.0014518022714074368
-0.012803485337702772
-0.057374440569114234
-0.01760779147815341
0.00762982635748916
0.02125672832485323
0.0010745464461480575
-0.005079827524469965
-0.0044095173237979745
0.007031769203336165
0.06849849928263894
0.04263956785891865
-0.04170895417317887
-0.02227308777754712
0.028436359787950893
-0.01447295171010155
0.008503109512027726
0.06457800917111917
0.15694290233795433
0.09069385707668884
-0.07377200392933422
-0.03147013864290614
-0.016652777629348872
-0.0004063237258343675
0.02765905486391563
-0.048638001478525636
-0.030854232354981945
0.026583934205508072
0.013576818813253047
-0.025109746304473993
0.016486581747013604
0.007576343796035981
-0.004148084636906957
-0.002917490208092334
-0.11679585572315601
0.011071719007881143
0.06513648467659998
-0.008341387833044259
0.08622948640140891
0.03899572309080656
-0.06749372841045798
-0.0022873212933790647
-0.0007168578231685638
0.009614419291109871
-0.01789939396578378
-0.021908173948893196
0.005319682142917974
0.0010321857880634883
-0.00901316184267628
0.003062033121934117
-0.003124165773063434
8.116994389711957e-06
-0.004288491200017575
-0.06326971542221424
-0.15349006449528252
-0.01386544619136078
0.025986797916317483
0.010275232800106927
0.003423618388197718
-0.015643939487846547
-0.064132405832727
-0.013321717566920018
0.10918500991821883
0.06387561608460794
0.01640905204833726
0.011783777453235623
-0.0317644524124669
0.011893548216095654
-0.04604536278516344
-0.03410499127979373
-0.010681094928475415
-0.038091839337555486
-0.010897695977579024
-0.03257004972544093
0.10831450613145102
0.0356579036874837
-0.023072919456991373
-0.006547159581855925
-0.024581238699730452
-0.02223956970353782
-0.00975352487264989
0.04832857703552135
0.11973811595795653
0.02647044976749844
0.0008001270206894513
0.013331646536529096
-0.017273185119093266
-0.01883641726251326
-0.035934560751039256
-0.012208388151438527
-0.019695547116281114
0.0011862149700637924
-0.03593796736146481
0.08393566837727114
0.03396648894375828
-0.029551896359468147
0.011277342727533076
-0.01588030688454925
-0.0007602779653588283
-0.006327378668400705
-0.02993217651502299
-0.05484912111901819
-0.08406467705871364
0.008913006095479396
0.06988813901820597
0.03075656345482191
-0.02894109593063709
0.025326551405177384
0.16808182662723917
0.03292340746915087
-0.0673224813521118
0.06303305158860552
0.10984589452064208
-0.004883345849976914
0.0074251787014274605
-0.06196653297770429
-0.014820985307550029
0.010824775851544045
0.01647047714488165
0.013249782905031255
-0.04339451051260549
-0.04301936119899858
-0.008754725614650875
0.06297411236894404
0.02282744800910207
-0.017507829857296243
0.007438499101439119
-0.020478493526309174
-0.0296883867284312
-0.00031230744510309013
-0.02827702522792571
2.26615948078389e-05
-0.09171988026459414
-0.07441239626945992
-0.0030674399237079985
-0.021146815106451756
-0.028440161746570543
-0.03211874480652709
0.004702927226878662
0.023441289851944675
-0.02868477179771918
-0.004990662560800512
0.015911285360266404
0.014242684977913686
-0.0021520253714255463
-0.02545027704012537
-0.021440908024583087
0.019037575611643695
-0.0034280935016203105
0.0010581577431018835
-0.0681085273597735
-0.010226340790069555
-0.06471221464952935
0.13248320492286805
0.15049374108495103
-0.05339988472216224
0.017467571096246415
0.009354290600659652
0.05169415318252084
-0.014629721086638821
0.06065161315307741
0.05122140426789063
0.08538293954238381
-0.004684143913562222
-0.048368379858824584
-0.00015357419274496681
-0.03110337632981429
-0.051612119764756256
-0.050230035209834115
0.012865393643412335
-0.02211202365436906
-0.004757151359382903
-0.004266924453026492
-0.02256404378523865
-0.00814799525455241
0.08780168885657783
0.0077340074123917885
-0.03795917199721101
0.005877238897127387
-0.0021982422860226873
-0.004743518671368601
-0.010389518304776822
-0.0025944471187909907
0.007365471000981551
0.04726893870184886
0.004997289658054672
-0.011264599152802044
-0.021668755887624135
-0.010619184995044299
-0.005540436375829512
0.009347751395171557
0.014834070958056502
-0.016459401808104863
-0.07100061211190144
-0.005210257886558473
0.020235908252372526
-0.012173826499103372
-0.0029332266635227265
-0.04456491972068108
0.012700194761344088
-0.04435987180767775
-0.03536348752289878
0.02487848144876919
0.11828539095694847
0.020199432797787395
-0.05904904923975757
-0.014694806144417635
0.011473222206476218
0.01729644092788132
-0.021130438579747987
0.0069127462911320395
0.023294125465522772
0.020631789659506974
-0.032900182446148445
-0.05233705641428367
0.03093161365106306
-0.06364685724741313
0.15126364649360718
0.13850554660220574
-0.06932295928768789
0.022150834487768722
0.012937128915802227
0.02104717442517265
-0.010758006099955536
0.023165015591176896
-0.022067459212003135
0.03590293001739857
-0.008964249665837242
-0.0024700096002547925
-0.02566484256172414
0.015351251367834764
0.052320376033095556
-0.0768574889761092
0.019108002681370834
0.015504428152872344
-0.0033688656856613246
0.012439450398890299
-0.004082455905322516
-0.010202960823571286
-0.038169668825256006
-0.0509897752497375
-0.028539436122288497
-0.2549750625672671
0.025971263682527657
0.00582087326378889
0.017836429770174987
0.02233901976890476
0.04689005442447611
-0.00992669809442259
0.01199685443199982
-0.011434174319034273
-0.02932867483143785
-0.016479036007134216
0.052276778146040516
0.03428895598730114
-0.00497702905382107
0.03070870766067919
0.003915119766804647
-0.024758377556810197
-0.019382708283441206
-0.018385982534704116
0.008472465849479078
-0.004538086570625523
0.05751641535153671
0.08290532056296261
0.11837210605623887
0.05250548381611136
0.04806598483737709
-0.1592901056069991
-0.10604628378033532
0.003958853798225794
-0.00028281235032116527
0.02572954642845891
0.022573632846545438
-0.12133108340563825
-0.038653477162663805
0.019404666068840237
-0.0043148268723178125
-0.01485159350272158
0.02139714221943138
0.006536614437269132
-0.025338459797630407
0.009313686457324291
0.01609368668415463
0.029046545827864468
0.013848383819184917
0.04172514979549332
0.0039139381935905425
-0.009248535451084169
0.014394814917716398
0.017498975283332344
0.03561839135819486
-0.0508356179659419
0.012818240695040083
0.025108940726947058
0.009634326690448114
0.0009849833564275743
0.018095552407407102
-0.030701518736447348
-0.014300029632435344
-0.014761605236568266
-0.03852222210217457
0.04334183261748974
-0.046908511571122136
0.006925744524484422
0.010163205539483912
0.012048054200570705
0.01478417418266607
0.021322587064505884
-0.012717943561873534
0.011492439653938884
0.009235615187238939
-0.00344388671278477
-0.01637154097004834
-0.01925343011800043
-0.010707826452602957
-0.008732169679488967
0.018483782651282626
-0.003352779516143617
0.020638596412786345
-0.04141804712195996
-0.09935187264236398
0.010418990336156673
-0.014865540721076492
-0.006616991360068476
-0.01281297439738537
0.026230688350296412
0.013145632351723145
-0.04078591081875443
-0.04452906469663759
-0.05476318740328242
0.11222656850579392
0.1056516576793073
-0.01977070201076482
0.012476480675717189
-0.020975470641941732
0.010634846299260108
-0.03926309950028265
-0.003473806654217272
-0.0018984492013989168
0.0022602798149805687
-0.013204023384770766
0.012550375674022745
-0.01829802721526589
0.1024835067143889
0.09398978351639979
0.0045137265567240965
0.001651095533767289
-0.013045655518135836
-0.007987435619783032
-0.01409877865222893
0.01268803301505478
-0.045336313141191596
-0.0084387749632536
-0.03124020892102543
0.014998647671574035
0.16391487274124092
0.1244229912593995
-0.02574846191227615
-0.0016609279891172234
-0.0026682475901239414
0.033964597774167514
0.019205542021980333
0.005703803880642821
0.022415328121390674
-0.012178509282046494
-0.09702319924369947
0.0005719317698078437
-0.009359980971371194
0.025343813348038452
-0.23879850359153787
-0.11642106849402377
0.03965669816504815
-0.03946439788451716
-0.03317282374412028
-0.028651929862556994
-0.010268767327211811
-0.047946123403879104
0.03514642722781024
0.022991937626209494
-0.05089970249409794
0.015710081941327704
0.005280433703627197
-0.08236511690715172
0.09969627775825576
0.0056193452196688035
-0.0020099990338200533
0.02241216801042449
0.003058922899860273
-0.0080626626039922
0.01506513755175284
-0.012243416503798347
0.01238157782786937
0.013290652549873215
0.028861921093535265
-0.015942085337025985
-0.0009218969330217878
-0.019060253416540184
0.03481159469329105
0.08917132860244753
0.029372145393663795
0.04608783174740842
0.004554861792900577
-0.032587139599283485
-0.030121203045050553
-0.06867686154533979
-0.0672153064594536
-0.009829525870092257
-0.020774131783268975
-0.01871417566647016
-0.04302089769074785
0.0620840395707765
0.032602402913969084
-0.01960584332451189
-0.016837593101280822
-0.08587323862321176
0.0930509773897056
0.007305145259032209
0.10854281409295294
0.09622671587098659
0.012194696987881483
0.1400597852847151
-0.02967407951233614
0.026415410470187594
-0.03147259982354358
-0.02536235829610769
-0.0405229911201635
-0.05727589510728344
-0.06528844465473677
-0.017969391406462438
0.02337081251003913
0.07918060367590836
0.1744024416410978
0.00806458296281459
-0.045885510689080214
-0.022171791130820392
-0.04671978138064384
0.007799180798478281
-0.04428977312173177
0.018203950821286365
0.004259000992796956
-0.009099403944136386
-0.018199570058295134
-0.01877455382159489
-0.009009849285344212
0.01041125615862066
-0.046792861766498224
-0.025819520804136954
0.020244232062075807
-0.0006778476728917666
-0.047835093261797655
-0.02936471350886946
-0.0102019952011438
0.015271790422735299
0.013727057868772664
0.012056417263109954
0.022134796871474623
0.0018978377957981323
0.03228237694026764
0.004267802136609848
-0.06309850260734388
-0.0065358603709484405
-0.008025979419886767
0.0012104815841774191
-0.06947268508323608
-0.013761076775350106
0.01628097883610105
-0.01914332811024348
0.043404812536579546
0.03387234608223551
-0.036581703264658566
0.021949476253323892
0.0601477830342992
0.047873323354568134
0.01730975647867617
-0.0054776467325895525
-0.009493260534892268
-0.019374181117973736
0.006935444356882853
0.013126509255035312
-0.003731477186073383
0.011731549870093573
-0.036835568739033604
-0.005930993389805832
0.02882328885578467
0.012531114762487848
-0.0077067459214959
0.09161326274684263
-0.005428882848584477
0.041564353027066354
0.0026261321291481633
0.03681293151435574
-0.017483220166495683
0.03476037447924581
-0.21125215947856282
-0.21357589488046866
0.06413517327334019
0.010314037903115227
0.0641351019210153
-0.018738980855233973
-0.03345392445297095
-0.005244303218590373
0.017548666355310955
-0.011736012293202052
-0.0027787380200290203
0.018631605541274757
0.03908542717780707
0.0069583971192232735
0.007346446779222909
0.009951288902790255
0.03268119868955412
0.045565061528069384
-0.016434067166941946
-0.01756387251479482
-0.01050180142854654
0.014175399201737124
0.014986353360552821
0.04226163561570432
0.00022735598041731094
-0.01217631039516288
-0.1636696037604183
0.07575112188510588
-0.0202865693474853
-0.23391293166886884
0.02475723333263681
-0.039499086841994144
-0.009454263745674447
0.015936313221481195
0.03885946558993011
-0.007333529147473152
0.006390935772141539
-0.043042897993616644
-0.012521113015643247
0.1474700413975466
0.053324167376414024
-0.03347575902702251
0.016892367346322726
-0.03844769320934243
-0.0511463610475026
-0.03089177908575856
0.138146467101563
-0.005191905567211767
0.0019936497571063612
-0.04899493826593678
0.014520201186901794
0.023800798226726667
0.07152770515851142
0.1235935626751921
0.004300115307005928
-0.05166676341514216
0.011675658749983196
-0.03198703479432551
-0.02336119238783107
-0.04262476027568509
0.10396722167795962
0.049068274666966095
0.10833269088191055
0.014736335704619427
-0.08236338408067055
0.0475258272505878
0.06429984544931247
-0.020477184218021017
0.0060477895706141805
-0.019152406504424988
-0.019829142877848472
-0.019773387630541445
-0.03812052899934676
-0.05040281814481807
-0.0388094985264418
0.006071441505394697
-0.03924425246666748
-0.023362030815961565
-0.0028644044097996054
-0.005405409975717485
-0.008897953100337617
0.02841268105028244
-0.02248256358561458
-0.0419773381496577
0.027797791037677454
-0.0222853556261796
0.11471971697826402
0.07470210377596774
-0.03374525165157176
-0.038517767348903914
-0.036393114054840185
0.004176548575817502
0.0038398776394258337
0.0014278533899523386
0.016773797046066463
0.011305983755654688
0.011448543789358183
-0.01202349637415569
-0.012296735521279686
-0.0031362888734730292
-0.009971819916325212
-0.028993031350629615
0.0024330098407206674
-0.015621786500485218
-0.021907226809151272
-0.0009498135809318592
-0.006216046100045414
0.043685678507963004
-0.05557694749860477
-0.022086025354546988
0.007382720252923565
-0.018561496535604148
-0.012680324159890472
-0.03919993256885259
0.006004809646624284
-0.030539680184565245
-0.042241221979099824
0.029716867978994987
0.009370615819556345
0.025129534204804724
0.07523152256130242
0.08671218615772285
-0.02037336227111168
-0.029087771613405807
0.00908735144562361
0.008748006524569892
-0.00279629188924071
0.01636513435410799
-0.012455477843556363
-0.018875672637292208
-0.005106780927172782
0.003855011390294683
-0.062265229404626296
-0.011437339947448543
0.05550384070197138
0.027463417980906367
-0.011596908553239003
-0.04548060666131213
-0.039893216562533536
-0.0071829139938589335
0.04971341247034293
-0.017823394362597094
0.006959711331309661
0.01217322616562283
0.0655778939799418
0.034215675967792174
-0.001238925863515492
-0.04413453247939877
-0.007171975860659872
-0.018186063955573744
0.035541429824748456
-0.03187317227201371
-0.038012295149013005
-0.01118491715598904
0.019094968577910962
-0.02724952030535512
-0.02777733273134451
0.007606775350788819
0.06335256620532781
-0.021545865741637516
0.12361029818481889
0.03772517937448925
-0.07708843621656726
-0.036712828297628584
-0.006619014607236602
-0.02207565898816225
-0.00773229328349837
0.029683047131575973
0.08455253006643153
-0.025042645432245204
-0.011852330953855093
-0.018948582482761527
0.055098749461548066
0.01792849942453344
0.0023052423898785707
-0.022134441006916545
-0.034008806476670726
-0.0914354133151948
-0.04397683929836417
0.021833468781818372
0.007007303334759459
-0.00906844668618832
0.0840001255410221
0.0367532470981794
0.04418656083799054
0.05563364202977021
-0.021460115861104
-0.020663984213016528
-0.009346943884363135
-0.042423048588902196
0.011963344019143356
-0.042289226234558996
0.11889997154212968
0.08855830573156909
-0.09998168499887373
-0.031179615716650896
-0.03042171564049847
0.017274223296591545
0.024451339517000917
-0.06960955979703387
0.00353340846657349
0.04818954741193559
-0.033266075945192874
-0.0021143115878189474
0.0031700497076328294
0.015817007886043604
0.007244300233113641
0.03443942286366366
-0.025238055765863847
0.010421067253544476
0.007058530638214366
0.005296493898536048
-0.01339182872414478
-0.04888601200778682
-0.05958449789502575
0.0024313153527544176
0.008205273882934428
-0.03756747291315099
-0.028541197282015957
-0.0315849407282373
0.01997102383353764
0.09609329323699946
0.10198483311831635
-0.13854368180105597
-0.12379376205097767
0.034289969040191555
-0.026043516736810737
-0.05615143251315281
0.004913496544004432
0.05691893264260495
0.017704636170607982
0.05746244363582946
-0.018901601710184738
0.00502351169284608
-0.02378784803509682
0.018078804929298517
0.014455713082098023
0.013820298459176796
-0.0028959347660780215
0.007781842416994865
-0.019698141692228426
-0.0024311977209653408
-0.00029399461456458336
-0.005208358260807826
0.05117371811329227
0.01228149115896049
-0.0008144883743718261
-0.025806680525194997
0.0033591136250515417
0.01973210144465636
0.06606299953684693
-0.03718062685248725
-0.006790905414059986
-0.02546854212523319
-0.029736235925345852
0.03727367720953814
-0.005386045688854278
-0.03661874558508547
-0.11588684510746616
0.009889458782604691
0.01438489273659134
0.008350133983454924
0.05428435712858991
-0.013246003030509467
0.08765003726576927
0.24471357655319728
-0.04993303079131046
-0.00962829165252202
-0.013678596557551416
-0.09153677992645387
-0.08355399532221228
0.0077173489380006795
-0.057808003360203045
-0.02197763919882671
-0.07357725058597442
0.03828806654657074
-0.017811426375683947
0.01668777438816923
0.02661313412447369
-0.014259835100802904
0.009294317931181479
0.0024384011941230056
0.1110648593645837
0.09316249927036975
-0.03122910296395187
-0.010666511011361712
-0.017143059223534762
0.04255722857094011
0.03523554956943897
0.0005991642550102087
-0.028765338031245348
0.021562445449803843
-0.008865756866678119
-0.0012916695310139044
-0.0020342593538819815
0.035256965108062754
-0.01115187254634432
0.050360258967603135
-0.07154629673110297
-0.17525163209486508
0.0674561911206117
-0.03751018749899347
0.0054319203533461915
0.0647911395520179
0.07145338700844935
-0.02960680389978344
-0.0242139018401727
0.01368778180576459
0.008815980284436838
-0.03575934827474524
-0.0009105694213141542
0.02918932269363878
-0.017155288503374513
-0.02895011316194051
-0.02245559997138991
-0.01854503381548533
-0.003925642810569762
-0.033653949536506675
0.002884867783936141
0.007006052383148155
-0.005789967941877532
-0.01111290447096698
-0.006921311301443267
8.486868853781671e-06
-0.01620972568558716
-0.01313296630060008
0.005876436150585726
-0.005968713211152957
-0.03577070926249498
-0.023284494767305854
-0.020712778129744546
0.0027107448797395696
0.0015015950052033437
-0.04610845443090284
-0.01847935330083638
-0.0022816040946847384
0.06388720254258229
0.17157023738957178
-0.015181630565254293
0.06758530555558749
-0.009097781170211034
-0.005833523169841885
-0.037800926442428356
-0.014647771707562122
-6.033599774382995e-05
-0.0007342872460052261
-0.023097253786035662
0.08088898916746658
0.05400838743427484
0.005737443376202482
-0.02256133608056147
0.0016953449186455846
0.0013648401783384473
-0.0013715005011647997
0.0034630770952391874
0.028634614470038695
0.010745484596077296
0.0007970080811289837
0.005341417006604848
-0.011728074541077197
-0.04355376925962935
0.09347157437194592
0.01774154324258393
0.0018352345571807456
0.008591347611951407
-0.029255421943464425
0.03962447783239738
-0.03604298672776243
-0.08294807314211981
-0.00380912545727792
-0.041575355165203665
-0.0012867662548155777
-0.014080552395345563
0.05901535692744988
0.015710630132036135
-0.0018601640852997545
-0.00046020514776300164
-0.06139627426807994
-0.024912983529158682
-6.701633397028224e-05
-0.03420968902053915
0.0499876672897745
0.07916940720988022
-0.02438859825392346
-0.02566152415152766
-0.007175833092356755
0.00564943977036215
-0.05927436072915772
-0.16257670066755503
-0.037777460986112295
-0.024998119958757094
-0.015199070199959188
-0.005746370564531538
0.07026511814702756
-0.011704231871068012
-0.0434958225653592
0.015310362171387213
0.007537068059249811
0.003530610764730416
-0.033913051427994924
-0.060415549677997886
-0.01451184078463833
0.034426785129236394
-0.07579623186610668
0.20724771187920193
0.07086040762521796
0.07510067152384838
0.12665473229210641
-0.07105766475889934
0.04591787686244215
0.05964099872079538
-0.012439907012912237
-0.02016232392433842
-0.024140428271231164
-0.010806507500672566
0.013992708506753123
-0.04805633680566185
-0.019348587201091783
-0.05787255842848363
-0.026652812654549947
-0.0035856163609420686
-0.01990318119863082
-0.04820302258844637
-0.03221985779551047
-0.059818636918699486
0.04662748872749005
0.11783409491355253
-0.059980057975995545
-0.031190194805448143
-0.042575408786817655
0.01151976162633075
-0.02282110320499364
-0.035330048338527265
-0.010142114502035058
0.28907130971717665
0.15474233247867844
-0.06633252746330588
0.06778027283176564
0.006347459940096305
-0.055765925632574216
-0.031152277869169215
-0.023386750840914253
0.035401620021856074
0.07340083641422736
0.02562788618050337
-0.044085482027787885
-0.029285236651547746
-0.01888289688054464
-0.0012470219621630297
0.028683395968417083
0.03938977558875758
0.0020501498374423293
0.00029399423866075354
-0.02307736203553155
-0.03850272412851624
0.01219508380450226
-0.045176725214777794
-0.036133932265308505
-0.00988175287212201
-0.031882187951442965
-0.03650667589170179
-0.03261468420921111
-0.04857936445106103
-0.02728206068573188
-0.015119577316293027
0.02234863686845261
0.05234942365094673
-0.018372548398919972
-0.011288504768735174
-0.011543481780583805
-0.012073046915757881
-0.008376377490664274
-0.01790866991562746
0.059096396736624285
-0.0017472849181009984
0.002158077558374376
-0.06016688185343126
0.04615375962376882
0.13145587234669742
-0.0397605368055768
-0.022325737160411988
-0.05927635905417305
-0.01164340002899779
-0.018906979969925443
0.011742648933783744
0.025507128051649803
-0.01819625342419425
-0.006747197705437659
0.009031134440859548
-0.010430270081477271
-0.05512451290640736
0.08768086096067146
0.11687598289035568
-0.05995715317188738
0.02068390407308708
-0.03496229179667042
0.012204720367474152
-0.0030039380135949865
-0.010813371244812856
-0.011197406602693197
0.011893928780243555
-0.030995106097921665
0.022750417390614328
-0.030041577483085582
0.03898578421250776
0.024256842683706138
-0.019439337250950435
-0.024816307572714122
0.0736821632322562
0.12433473830327456
-0.03892869390229056
-0.00936701855485637
-0.011865729143112538
-0.0067284907990959675
0.0913353040403123
-0.05021192857141077
-0.020465480949009712
0.049454077397952725
-0.0005583204798115372
-0.012748635553453833
-0.0012225526809247816
-0.002772994844956128
0.025600749587418908
0.005857025118846487
-0.01017056930985498
-0.0168764914399392
-0.010508905424579048
-0.005234063737803413
0.017060251230291545
-0.043882794906772216
-0.04155827689372905
-0.013790196209884439
-0.007200131421383214
0.007133827167672526
-0.0041393705971896335
-0.017606617736351804
0.15474250995962321
0.049942611779398086
-0.028612260186390775
-0.08293103554339852
-0.2274178704148315
0.01822539761688031
-0.011999815542667953
-0.0025193603919794706
-0.01170969050728022
0.03473133620406404
-0.02764303085054691
-0.0045737065775403535
-0.0018868934693184857
-0.01783751552594336
-0.035360759305985166
-0.035158513529650784
-0.01190398678497261
0.002444253421825623
-0.011880311908272061
-0.049457125449990993
0.11395143689393654
0.09629234856473627
-0.0466839728872592
-0.0053549140662322485
-0.04276885126765051
0.0017930643171850055
-0.023438320755811037
0.01238352264138481
-0.0005117876338639949
-0.006681150340587921
0.04805139042534417
0.023092016180985858
-0.02233763711879897
-0.01854805842940915
0.039294729543459896
0.02358417627885765
-0.030204282558204034
-0.027215935975975193
-0.018114534190069434
-0.026650077784697496
0.08101914220631927
0.08945478280738733
0.06508976069289879
0.05723090420308558
-0.08216423631999312
0.08027882276926193
-0.005929547729616021
-0.01642036405806758
-0.054399658995465366
0.09220557650625351
0.03239067869092879
-0.036715404544943826
-0.01875305490334182
-0.013468714016381316
-0.029999450761610796
-0.02187982372501893
-0.02288143841060797
0.04283224544868675
-0.03408777880240525
-0.02909377716711765
-0.026385203038242294
0.014996787601288331
-0.006430396859626238
0.041226131098386264
0.0005106556923199867
-0.04269633328177739
-0.0011708033567323559
-0.027063986936207072
0.004638122430883894
-0.019966217970905996
-0.0052781957354687565
-0.02770765420426623
0.07306585349700315
0.045381258925056435
-0.06108142604607913
-0.026310753551142083
-0.012032474655139656
0.01582306928005228
0.005681441136617206
-0.011129614711000114
-0.021903950501866942
0.0494928923266842
0.003417194587805541
0.10026140243036566
0.04917887399911113
-0.017629791564188927
-0.016461155520275272
-0.04691559997169199
0.0321811629981317
-0.013421127276913834
-0.02940255699474368
0.0018495106395282311
-0.0281234033250992
-0.01112978125448163
0.0007758144894772426
0.014333474795525047
-0.047210628615944814
0.04121145912717413
0.10458935745249459
0.09401337357101751
0.050053798030248425
-0.03763180055511504
-0.0279307156412548
-0.003963635176200327
-0.019472251825244733
-0.037418844280930876
-0.0077746593166542225
-0.0035233307849941256
0.02861059009430574
0.00219227521285206
0.012324515401995358
-0.02277942630304877
0.02145928311682438
-0.10227334430754426
0.022584355468140648
-0.15216388555062837
-0.023958341289519725
0.12997659808995668
0.009166994968436237
0.03858114721592234
0.04131264672002378
-0.05881578197798779
-0.08116192758617946
0.028138346156823243
-0.0355240770837338
0.002461865458217336
-0.004206602935630368
-0.04783878090021904
-0.04223515237961456
0.0058330862491235164
-0.04477123634549882
0.006729029665959728
-0.03536779307700828
0.03493982018145578
0.007409184047143583
-0.04408740422051409
-0.07687553761246836
0.13131428084670818
0.0492367849706942
0.033020150397428456
0.00890448204326708
0.008357387338545722
-0.01758181784593913
0.04994092156971852
0.03611052225022762
-0.045616682825022396
-0.00764045757845351
0.05414302417796875
0.010224612748248395
0.0001358598055397496
0.014615712275658164
-0.043241245351300195
-0.08728635465286769
0.12093893855276087
0.17641303047937779
0.03225477773197032
0.02544913319840384
-0.018781559676593913
-0.000878776536736923
-0.014776819452003322
-0.1730185382335432
-0.0227477245550996
0.052750820943807834
-0.055513469183992255
-0.057790769312153406
-0.0004892904996906239
-0.007745678347687127
-0.020039884800869198
0.019958003945542247
0.10428341662455581
0.03777488140482791
-0.02601071813780667
0.004659463027001544
0.0017807398343730883
0.05252003869135897
0.04581790886248455
-0.14174621759127104
-0.16664150555336502
0.008616641117899683
0.016979983045297138
-0.04897959331214214
-0.017395680765135826
-0.010459147280266538
-0.006580926074285129
0.007529438526794879
0.03616989879083172
-0.014262930397273277
0.02352629830290146
-0.007945584053252937
0.02238773945231465
-0.00671818403123858
-0.003387405472505771
0.02976091768539024
-0.014864909970976177
0.0404702108295066
0.010225360362159727
-0.09052231691061442
0.01108394348269189
0.02117281614746441
-0.005713345744732004
-0.04833653043845331
0.055833563195915877
0.05942375349596225
-0.0008802102646557502
-0.027142915420568264
0.06432380600189329
0.19529070904693355
0.00888484697256677
0.010958797070858653
-0.04561335377237576
-0.015033234217393082
0.007420486923889808
0.013903865071277622
-0.012594749344864466
-0.030330286617996343
-0.011966650954529905
-0.006793331600831772
-0.005631200870299527
-0.02846586444248831
-0.014040778913238128
0.029462212223141517
-0.00019176754705962869
0.008827789253430019
0.0026696774403614726
-0.03447416736671981
-0.012886140521096085
-0.03015172657984467
-0.01004445222687133
-0.02335154245273481
0.053343166884207746
0.01531757538799915
0.013323809574038004
-0.01364378671883396
0.014939461662513332
0.04452891898093595
0.015063451601768807
-0.049846731548559085
-0.034542271775965284
-0.114821311497827
-0.08543813548331909
0.0841301319803758
-0.007135121830382169
-0.01621331837494917
-0.011492668417463336
0.002620602213703603
0.006332498544611102
-0.01247036672720378
0.026941419657323253
0.02264666235139225
-0.00046306591737415426
-0.0014488134234562388
-0.031287621641706106
-0.0053522823310148595
0.09836438508608368
0.044468477022688184
-0.10892991011757516
-0.050373300542588116
0.03379285794922875
0.003420695542863164
0.017347838536532895
-0.02661700524741828
-0.025492814532203256
-0.02855202462938289
-0.029880674402857375
-0.0849785869777434
0.09822725282757261
-0.03177423913303119
-0.004072031819796492
-0.00020808415984991245
0.008107696525961241
-0.033240137640857946
0.05781478654377448
0.06242558979221675
-0.04608656832440307
-0.01072618834161149
-0.004755599400809298
0.013143969977111244
0.053156383898718476
0.05733770797389367
-0.024277033941855014
-0.004053222567411709
0.2025564920887336
-0.048767798696452314
-0.07546916684396703
0.03621152578157125
0.14804831633819115
0.1682197992950059
-0.016711586086253886
-0.017604736901175123
-0.007149832646423765
-0.046195514080081906
-0.059700763001863465
0.11148642202074775
-0.00676979118259578
-0.06810740417592734
-0.08058304724195826
-0.019925531905186776
0.007302366792925254
-0.09232870227851422
-0.08559386716738407
-0.012209568830666321
-0.035302068265706546
0.006119218466252537
-0.016880254310010497
-0.015352373471248638
-0.006741742377729319
-0.0831623900001146
-0.07851401309692208
0.023706918666502697
0.035950988587303626
-0.036452538784957626
-0.00485787982539486
0.05508827442042338
-0.007143578942233672
0.005642699849135686
-0.035682429776413324
-0.028509316142802776
0.059111058038929014
0.339722272451101
0.013624989133808685
0.07731838901014004
0.031282116496129456
-0.001180067470572146
-0.021347767975789293
-0.03255878768094711
0.0005610507778121551
-0.03606094661967361
-0.017670341054697957
0.010293338880157168
0.01314681340711959
-0.03394029317456271
-0.04396302946965241
-0.0024799257056211522
-0.03707956234727438
0.0009719898318169499
-0.032357591951197744
-0.02317904380996741
0.008847594328732222
0.029711654817929915
-0.024312163974917044
-0.0028812049009483394
0.026843547956334333
0.014534442837954232
-0.03842320934443338
0.04048510483769946
0.03751724887157336
0.007120294913536045
0.04101929689912869
0.02612022653084047
-0.10813214767334603
-0.09925005233822017
-0.010299567472661707
0.02790829686511356
0.004735187982442264
-0.02993866908765935
-0.008657803768663349
-0.013784937150885489
0.015079373305466475
-0.018926472230220873
-0.03898033944531046
-0.02014204030068939
-0.008904486751347985
0.020196341208799172
0.0025112674220511603
-0.009950113037764942
-0.0025646046244537173
0.01690591581660736
0.01441591794806466
-0.07363308567613283
