0
-0.012715788214475271
0.047994591618172086
0.028994899826004037
0.015240117434271509
-0.0050410715276828335
0.02557098297838157
0.004945848477332461
0.006388403797616995
0.16576149631459103
-0.002409138068162913
-0.04056910838535906
-0.05472950358539512
0.02751953924387778
0.03404688103551136
-0.02827389638026288
-0.007825706047147251
0.005231614130450254
0.009833309405847998
0.02792334630276964
0.032292781579712715
-0.031301988124379405
-0.010180406266100854
-0.013338737970742736
-0.013509308555694256
-0.017016343700515482
-0.021299071827909504
-0.04045193977321404
0.005222201878571758
-0.00465639166390911
0.00697165373611171
-0.011435059996985368
0.0958348979326621
0.055098774293838346
-0.023941784507393718
-0.020709610465113173
-0.01796049353574155
-0.027465996286674864
-0.02892028996378377
-0.0017225630676270876
0.015640325402372892
0.07365787649588257
0.02392331248360783
-0.07841759188940663
-0.08945084352216105
-0.008517139711716382
-0.004534459374048932
-0.02133652531095491
-0.004563082021600587
-0.008316565531523774
-0.04451003372586477
-0.001579382821942524
-0.004869080714716783
-0.022487658134202837
0.024884652146131492
0.0408913348823093
0.010938513875023073
0.05328948174419486
0.001969804719547118
0.017124675460042413
0.014408151508516483
-0.004534056770082568
0.059151773809077525
-0.019746759253194184
-0.011467468494834156
-0.018426489764263098
0.057536831323190055
0.01761041969250696
-0.0254955883583296
-0.00739965344870356
0.004395964867788082
0.06412683710662975
0.06198429839951788
-0.008395520261142446
0.01818480424728454
-0.0005886848065455191
0.0231477882146156
0.005403833382856778
0.02857200745743271
-0.049282122958898875
-0.013210270780311307
-0.11214335873319009
-0.09098446168131011
-0.0011292686925942525
0.024218088445790896
0.056926750961940255
0.014101810269704146
0.06371427616190851
0.018566003721085116
0.02451919301815343
-0.014713340932130226
-0.11247476361281517
-0.06336449288215062
0.0049464975384020966
0.02109485238895516
0.014496151464772435
0.0022744682878232934
-0.02015751462626593
-0.041627029798477815
0.013940386345161237
0.0030856648678275218
-0.002499814967797827
0.017059436766807993
0.0024038164754981565
0.03778805091300827
0.019296253215028262
0.014055615659014902
-0.03666932092297711
-0.11180045243769215
0.032980848048116525
0.0008296379152213407
-0.06315219902079994
-0.03104307074167197
0.029773351197017923
-0.02911538620044096
0.045381932373426324
-0.0036844585276674655
0.05832516050608232
0.03186822125595082
-0.122890711408214
0.031824413806519875
-0.01523237148896554
-0.009465402569484345
0.025004544096602292
0.00420401659487667
0.018326901114611667
-0.004655540766706694
0.0006255770543792506
-0.0206069257017654
-0.0070172349337786375
-0.01479202216875741
0.022769772887704487
0.0068309806620353245
-0.010007914649089655
-0.029710677717664266
0.026117931897424597
-0.02256295560040796
-0.007704106986909506
-0.011370612283037703
0.02707258690770135
0.06614120563461441
-0.015475848598306377
-0.017920389212626533
-0.0001723844440261485
0.014501071892191839
0.03349024765739089
-0.014678378827847952
0.022873116115365428
0.019716803781688216
0.08937673465722874
0.16163284068925166
0.008369067866162068
-0.022191025925682378
-0.04980248085459574
-0.010332838119326875
0.039906340984972144
-0.00654474645861179
-0.026726397896761102
0.01487512821903493
-0.013719659402851216
-0.039169353705014766
-0.018200848115372873
-0.025349108978990245
0.006398294675566632
-0.06823869757887502
-0.012667458041805045
0.03069135505147481
-0.006815810927532773
-0.027423882382888533
-0.0062755461277659
-0.05708111702394446
-0.11633842514008569
0.05094461136736503
0.02534860160618347
-0.04188541471271658
0.06301328487260206
0.0850958352130694
-0.03570267877986342
0.06288121333296433
0.005130528973876439
0.0017131661506431502
-0.029676141494183895
-0.020582215585761142
0.006140520308640572
0.032488998677929266
-0.03250392503072893
0.013373464615691234
-0.0068798651328013565
0.009322239678712941
0.010562643033136091
0.006183866874267138
-5.4243317352697935e-05
-0.014459095001794748
0.050579437988368045
0.0010591516888682842
-0.026365221985289573
0.019017825641182755
0.0225040345268073
-0.00264962133245073
-0.004238692930281359
0.019750330074478902
-0.0940789876735978
-0.07847754733613665
0.012891378071715138
-0.0021216604287418797
-0.022167737535353487
0.0009251600011974632
0.06214636533546752
-0.03385303064229783
-0.06636077954781355
0.0004071329106507053
0.06152405564949228
0.11039082646397227
-0.0027086143089085787
0.023948196502319493
0.0060020727916283035
0.025004990506861495
-0.009044869805829804
-0.00604896368906862
0.01613822012448332
0.014533466680744135
0.019643170357275093
0.04720468718605569
-0.014241864949242827
-0.05142637367673855
-0.06351309751213347
-0.03391887071436556
-0.013287626525598647
-0.008132731964320376
-0.010828719858759444
-0.008261982073490923
-0.017868553076885424
-0.002382985423295658
0.035392761465745104
-0.002553139119072513
-0.006883091144207781
-0.0338423877364446
-0.04246470917724933
0.001575479127130517
-0.023345629946767327
-0.02220795769145825
0.0030606223451540657
0.06337234628038053
0.03182144266045856
0.010080708600002052
-0.0019930863363192323
0.001752162804997663
-0.017824987404214353
0.004854299851830877
0.0200782183146568
0.034836022563681575
-0.07778074338597961
-0.13478400292971676
0.033754877973749764
-0.015861735443759305
0.014395851158997988
0.035718226967301245
0.11041716765184598
0.10396869868032949
0.0006942769809735141
0.010467825973009852
-0.014633268981916992
0.016549178942711823
0.011659256688591689
-0.04394851750986737
0.00022355998040713286
-0.004549744294191945
-0.014820419404445045
0.022063488072917133
-0.00029277298435123074
-0.015753117571091366
-0.025420197328361187
0.01110235809972786
-0.02202509365489268
0.007649227150222181
-0.010065186903467313
0.040465001819911105
-0.012306745739184615
-0.060736543967444476
-0.00024781313617559835
-0.014210483077946725
0.01858612110498947
0.0006631761777943687
-0.008615653870840068
-0.006395430774000336
0.006788692772037531
-0.009893800301007198
-0.011999967205952785
-0.034967592603620576
0.029039095338140166
0.018908439728384317
0.00041344022181163704
-0.004395728167265027
-0.0037614284066218406
-0.011652150714691273
-0.01578260410199782
0.013633184222693592
-0.018027948433082978
-0.058679090606936754
-0.04561731460081969
0.015706385236837598
0.020063360591423014
-0.005719533258072694
-0.03662524255342484
0.06908504383084713
0.21732439391864633
0.03507576097614274
0.030968033440694757
0.04393558876691372
0.07802494949616282
-0.007667640883334826
-0.006676523390446497
-0.036438369919904776
0.005664843345517443
-0.008167309539273793
0.008539554820376872
-0.09009860014900228
-0.12703982616044163
-0.029207951201796468
-0.05258955407696888
-0.038445873758209154
-0.02239314332577209
0.04409367730746642
-0.017048148322751287
0.004690325744025512
-0.007553283001706737
0.0017770228247882087
-0.004467392518202154
-0.012309771505845587
-0.004815315537547959
0.02203198772580736
0.031768078717994676
-0.019652151048900328
-0.04538978645242761
0.06967009669427049
0.002245758770421869
-0.07203103675712487
0.042639994049215854
-0.006491654740518088
0.017367432987657708
0.006272096214968013
0.09949790018676345
-0.008181144599743066
0.011742983097894656
-0.0032640063709637158
-0.016479274870788447
-0.0013012518755946198
0.004258813639257287
0.02006924989256704
0.02859773971094227
0.015919382350245335
0.021076457159393346
-0.07272387077129776
-0.031020704797633684
0.006641539172111897
-0.0034404871110288696
-0.008134944329700147
0.01451300841403706
-0.004921047764814874
0.035401172855295426
0.05869714834285638
-0.032268955859668005
-0.004381934472700899
-0.0023891969085363634
-0.018344621967002206
0.01596144218664085
-0.011039127621954433
-0.02883800700927059
-0.012661958572504952
-0.004150573668278588
-0.014986780924448093
-0.025465470130733317
-0.02378211404886407
0.016657005004755907
-0.024065973767223896
-0.1291190122020476
-0.015040046801763065
0.052039020238260486
-0.03955211979671278
0.12892729072099188
0.15127559591624334
-0.055979060100968814
-0.00709889164630234
-0.07757249047636026
-0.016894031937462844
0.005241930084990964
0.0033676127424917645
0.004876059056780628
1.6560980057701492e-05
-0.013722563265743549
0.06105973832590311
0.040486380583768425
0.06828108192255099
-0.013181795359965791
-0.005428779932538879
-0.03160448989425244
-0.02738124194730339
-0.011004120664069231
0.08297257008262225
0.00983291105952414
-0.0032445701846846096
0.018670081385488122
-0.022100562817956915
-0.11077413140205515
-0.008392035871496695
0.04711253242319534
0.025038242156795096
-0.018573081240291136
-0.06242459798263725
-0.024257839556855464
-0.004622703166866873
0.006100264167346396
0.008442251797206398
-0.017620694618567415
-0.033878996434378784
0.002059424057033298
-0.008645745731435445
0.06173857172131666
0.04850661081682704
-0.008616387467118335
0.009291996579938915
0.024001677071518165
0.009117694846655665
0.01837237614726756
0.0011261589641884202
0.017890495532229628
0.12196060407731954
0.02027652718235589
0.01944582113376342
-0.029423642477607252
0.06789103741372818
-0.1186679417558922
-0.22646929829060122
0.026610333467605093
-0.022030569811904908
-0.020223247037588127
0.0021306774583992826
-0.0004435102369848146
0.004450237115231969
-0.012350695417234573
7.059338659633516e-05
-0.03836026297525503
-0.023959378360899338
0.018973709090858357
-0.0032421051675458625
0.02182772586211663
0.015681711820582662
0.00014606746295073718
-0.00010161265741520627
0.04181026300944719
0.04721275714545444
0.025575095289188506
0.04536954564216688
0.01145806156845228
-0.002421430251142339
-0.02363104407364292
-0.015923157319948714
0.01866146284685814
-0.011607529961753465
0.011846721031377695
0.03655234427334744
0.023528835267892775
0.06283991948324893
0.005469594251226432
0.03469286466516401
-0.018891567335696205
-0.0012572197121353756
0.01958331249416839
0.006000582178303682
0.005007269415746468
-0.02358894465927622
-0.1308054768074672
-0.05521909804411378
-0.010283557133639544
-0.025647943461298985
0.051439325654904965
-0.06612498635940962
-0.08192774781147605
0.011735382351697422
-0.0460728549476046
-0.011635704173224319
0.04701167770550862
0.044067981250236456
-0.014789376980353732
-0.07839514126521627
0.00955568108143495
0.014729619156550366
0.0072063368891943265
-0.02585548226777177
0.031221081454512307
0.002363925918663037
0.06564919405376403
0.03282706723885979
-0.0017765758912776266
-0.03639978630714935
-0.03832880046629693
-0.0238746043477236
-0.0005347417464887501
0.06893214230457011
0.08014403843261377
-0.01800854107745894
-0.021525972713684567
-0.007646686156857826
-0.010087178109814066
-0.008656711187310887
0.017979543508432786
-0.008625237200864656
-0.013612830804065395
-0.016281680513983574
-0.024134887025052537
-0.007810897368739041
-0.018934118451118347
-0.006628141530757233
0.008676290607310731
0.05118167196782784
0.023765243913020737
-0.005226090573032181
-0.04337893091376839
-0.0011450048066290774
0.1301673397564266
0.027543235245068968
-0.004528841649123309
-0.004455928771403242
0.003957655192969625
-0.006658858092294225
-0.001792789742115651
0.04250161558362906
0.048097082746368945
-0.0014255460630750998
-0.005188010264083164
-0.041555639703622395
0.06364579627066741
0.16747383643087224
-0.01083644356956053
0.012836232292204786
-0.0186161345204075
-0.018964248515868788
-0.09635760945234975
-0.04535365581470076
-0.04954531308502717
-0.018917829284083445
-0.018821430594843862
-0.038828435835276835
0.0005647034690300617
-0.00012015686825653261
0.026282326808918868
-0.008390866190094567
-0.09412777741152152
-0.02931009876037417
0.02077518464994873
-0.008571851679374505
0.023911449971404306
0.049477921810602496
-0.036205776416198286
-0.06329499641994997
0.033046490766453385
0.034889812013344554
0.0018100840127563895
0.011542979396116457
-0.022729395075015167
-0.040397190638019824
0.03570954311800286
0.015152255361031127
-0.002460104187436766
-0.14222007988488897
-0.06733897459181984
0.0004112784548871675
0.029033258767399664
0.002930213049502533
-0.053593644892805395
0.005862137297826947
0.008271233534186117
0.017273353763025755
-0.07873344876672736
-0.010091221147792304
0.18794331343385057
-0.01751453742501908
0.06437891363024026
0.055102405594921654
0.07656300839122511
-0.026599405780952344
-0.009289016413053536
-0.002047348342071973
0.0113000727641042
-0.007376185092912363
0.010148913301445127
-0.012896940188378763
-0.0031096390545431772
-0.0497262740821751
-0.016845383953699267
-0.03472197939343444
0.013871846264346274
0.08168506716243451
0.020087545012517905
0.0017636500576564105
0.09918940286510153
0.054128500629331444
-0.030346188529071273
0.0004054544132828397
0.013908294294538038
-0.03860588990573671
0.14047015513648345
0.13650753112259983
-0.08481712738364276
-0.030491707995510407
-0.010305137015785705
0.15596513899371067
0.06020343147642248
-0.22475023425245505
-0.09469797304560068
0.056323609538905126
-0.030180073165979062
-0.01125259544079017
0.03943688500182359
0.012784632381377647
-0.04398722091041268
0.017133251625769806
0.017834777746437637
0.02616287889735029
-0.0037439030450149395
-0.13011064604287093
-0.08929112137017808
0.0547694766803247
-0.040610203406798315
-0.21141849893051698
-0.051413919902327194
0.04954951151289065
-0.17721336411857969
-0.12329581321019598
-0.015332875889765297
0.0858176273604174
0.027469221012126552
-0.0028787688897649066
0.019965182267072615
0.055112849841203994
0.022740334940780916
-0.012609224000515742
0.13875356100147312
-0.004261930421587239
0.008006688964485852
0.024133107781743258
0.0033370836800941744
-0.012704258306714584
-0.022339902068256923
0.028197760416998473
-0.0135964950988442
0.018017799759404127
0.05450577878828688
-0.023928423964540004
0.024148610522465003
0.01957549841882665
-0.0008644964848155916
0.03593700390500486
0.05536986632112109
-0.03336806626773325
-0.004235697345782019
0.005652629539932012
0.04010551880220107
-0.03676357443158849
0.12361469553350775
0.10262325425990691
-0.015160910405204269
0.01130082871325898
-0.01650925799484751
0.004217870011777768
-0.02369334967338485
0.007649012739771986
0.021077566147563776
-0.00892690928432264
-0.005637556302171159
-0.00855893811848288
0.03329406634152282
-0.1786964696243303
-0.15428892494327678
0.016112798314953602
0.006200394787803669
0.034388437914430754
-0.03708204706385124
0.029989283450757104
-0.01761777476963809
0.004388732435837117
-0.02305383916954762
0.02085590747084476
-0.006066525342951263
0.013505595492302964
-0.010389801815709216
-0.007583405621708836
0.0034717678634933777
0.05731070368589885
0.05056794708011576
0.0013561927213097973
-0.0533667974277343
-0.004832523902539438
-0.011575559067384117
0.030831171232776393
-0.032613362496963706
-0.01623887434917768
-0.0048431816732560145
-0.015186147547258463
0.005281429039401786
-0.0026235164080637896
-0.0016987596759255536
-0.01713964101929046
-0.003919687281154494
0.022116058453595818
0.04432142282136833
0.024834101495691343
0.022392231372633416
-0.008871186721077198
-0.01636456682875625
0.002638291146343061
0.039177099967655976
0.005146177305857826
0.05828054579320536
0.05105673129046239
0.015033523134416905
-0.0658896381655763
-0.05012652961687373
-0.018897359959326784
-0.002248214710046341
-0.006382623094113891
-0.030190885788710348
0.0013449058157869213
-0.0290506687038442
0.03066617514005216
-0.002895403946922697
-0.035943695709658274
-0.02012535031061509
0.0016492654249076753
-0.019576603573327342
0.03171200846652059
0.10206591749370832
0.009839703720531444
-0.013689026682352225
-0.032023646791524814
-0.0774036187341583
-0.09354449996156554
0.015707207015313862
0.03254969763794845
-0.02376642896235902
-0.047468967355812436
-0.039299277250231135
-0.02828659579172066
-0.029174698256813302
0.07478098062821661
-0.006622294088521838
0.06572720501141688
0.05677594459668548
-0.013543122154899768
0.033880403986505006
-0.006845924129129617
0.00023755086095881395
0.15237975974826637
0.007403388465861374
-0.033881481920805125
0.00863523285361146
-0.012650140213649734
-0.014189846683573896
0.0014116009845226598
-0.00957588034717115
-0.02638756133252723
-0.03772026925288658
-0.0003764018482265619
0.0016245772193274157
0.005040937310116818
0.10650375504598605
0.05403776596702214
-0.0036426691969473225
0.13169156591457531
0.013986787144869582
-0.012329406635885963
0.020038130872071798
0.06369525029031606
-0.02894955777560576
-0.006903154074537268
-0.07056999130447854
-0.02873289864688196
-0.025038806337970194
0.003228917404149007
-0.17166082463346652
-0.13966358740518198
-0.001548879069678529
-0.03021800290987906
0.000600959579095187
-0.03383069214799355
-0.006301926595709319
-0.010173546087621886
0.08234579701057501
0.035782939223499156
-0.03389140309332036
-0.011083923262396628
-0.05133984628009604
-0.0011986609332634548
-0.01168971507853309
0.056389316774302645
0.033136147828192575
-0.007992181893725143
-0.028173369281371943
-0.0276832298565679
0.03822101529062163
-0.031709663568077404
-0.010600049228921563
-0.006120981234548593
-0.012963969147314444
-0.03234978284413426
0.04592830930443993
0.11539530291014517
0.034550979620972186
0.2368849327665784
-0.10320426216394048
0.008154317166171729
-0.05288690214962957
-0.000321873589000207
0.0037557697718609046
0.004562881741587252
-0.002775466383729402
0.048951847153700455
0.03516785049749994
-0.0002793946819373549
0.040622756058907625
0.0347830120858002
-0.03611199422041384
-0.00927499026279014
-0.01664177398202398
-0.0033300501005012937
-0.0322529290560285
-0.021156827472429696
-0.0074032107942338604
-0.09662481631625276
-0.005593132515335341
0.007060841323963927
-0.06291148794034969
-0.0296879011686548
0.02892361512378432
0.0033500555098640626
0.008264388314862118
-0.003608231163242634
0.0056941408788793585
-0.01892944937668348
0.05331586827272888
0.025174361677425077
-0.0185763204082406
-0.028867592858446586
0.021363639311700475
-0.015835838454564263
-0.006396075801933696
-0.006687998423707536
0.05944475381380413
-0.11990703544094292
-0.06211385467881768
0.0055474487704928
-0.00725409896713057
-0.07302744254539861
0.07606425793353941
0.22245872493946414
-0.018900078237437903
0.019743859023138636
-0.03961725094741136
-0.022345878013348662
-0.027662784463706777
-0.0037758998418564995
-0.01191329749165442
0.0002638460735199917
0.02090746825356028
-0.011463255966951203
0.02552753000527423
0.006142215759208744
-0.017391641672886076
-0.014277695841716839
-0.08598710991877132
0.012484185124751019
0.011255082300850013
-0.0230029036010396
-0.0012785574052485557
-0.031014012513547608
0.088500249981279
0.12320606765366605
-0.06929421113221347
-0.023753976247488595
-0.03939558731711784
-0.02469257331633497
-0.014183561071732782
-0.006052150264728542
-0.04508803584752712
0.020601427267594723
0.050585495490408715
0.01828382013826423
-0.014868689998627432
-0.009002232114564388
-0.006094830682473536
0.02896568166326755
-0.012795721548273083
-0.000597503240555799
-0.01404290143172584
0.05246284463425457
0.015080873033504215
-0.04069739806815596
0.06256318616694961
0.1634482524255689
0.008967529997549972
0.02829399273484715
0.0676912376746068
0.04728705465788405
-0.0009201030091161415
-0.018506989903480868
0.0035120836071582755
-0.006176081061386809
-0.03155859274396947
-0.02308794511165119
-0.05118834275719953
-0.007169340401857515
0.022373602522601305
0.028015642924986955
-0.014408718817696823
-0.09649424261357568
-0.0008167125832217293
-0.0694073216090443
-0.0054230606530246165
0.06014871369836331
-0.01670323179946418
0.0348857306156291
-0.0020234489151340408
-0.02155738956319622
-0.08454904104015036
-0.06312952972287846
-0.05974481014519576
0.0579786840405134
-0.007486092507993426
-0.05308591499089794
-0.029418518026022373
0.004840107399835246
0.036137442054560064
-0.0037199909378603808
-0.004234565008469743
0.021629338788214034
0.004360950715513674
0.030398281995773085
0.009004624263028
0.006536513524595663
-0.02191091010215662
0.01770222943526364
-0.022404896069545075
-0.025051618380566597
0.005539472032528491
0.045461490175905644
-0.10850679819982686
-0.03694894244532506
0.024267442972052678
0.034803483667314845
-0.002833104476466748
0.08864434476444918
-0.009786712872300936
-0.02492133584879471
0.024114748305537125
0.01768208770203518
0.002165446141382862
-0.0040182540023730616
0.03282890091125049
-0.009325907605841675
-0.03135485500924676
0.012523944964519291
0.032842629086961096
-0.0046563734005998685
0.013405112922184378
0.023309461743828565
-0.048151931254010474
-0.018822097661921125
0.02260221113280222
-0.025273457844603248
-0.010811122179037399
0.020987751919296586
0.0012594808651446448
0.0229452207973289
-0.02461225554965971
-0.015489320899957467
0.0023915818341568467
0.027677746488627752
0.01818583313527471
0.013432162526844389
0.00836584277516312
-0.04059756190835795
-0.038726943008144554
0.008423242898368462
0.013032500394333959
0.04078262988144154
0.0206283402135186
0.03199943554306736
0.02211521247143316
0.033659482029413934
-0.004132794352345083
-0.020780968931815236
-0.01257556093396226
-0.01604381587930916
0.0029854783158893513
0.03217118150132557
0.025546943203734636
0.0036806547341591144
-0.006782581155564359
-0.003953596331265581
-0.06343443794555581
-0.03794889835762885
-0.0074054926959333115
0.016214645521014953
-0.03195562232501812
-0.0383257999922703
-0.004684763293359611
-0.0066156408611498935
0.0010504128881896077
-0.035955075009329936
0.010927555283681509
0.04460551439063874
0.005392541225258782
-0.01910370594674614
-0.02728245513016542
0.001077273022235032
-0.016733370866707738
-0.0014645544871030826
0.017111570808805415
0.00870098799131648
-0.11032992527365054
-0.05972537511753604
0.08815763980478661
0.06812031079206
0.01220241305172315
0.023221227867948842
0.26760728176171106
0.02626881875790453
0.06120204345804833
-0.10680721648393171
-0.2552658456357588
0.025693123827341235
-0.021700166377172175
0.005747706356278619
-0.007528579466231782
-0.0034545681359226675
-0.00730560961569675
0.013974192405032405
-0.005615424975721917
0.04555228215903652
-0.03893806696794122
0.06417217866731885
0.06013464918483614
0.02431414596262842
0.009233282434453347
0.007240560529315037
0.036604430444673056
0.00568972551125789
0.10040051589891939
0.08415629490053514
-0.24607317252388317
-0.12388710434283717
0.04925371200976689
-0.000446466814390449
0.025307187787551907
-0.011920142055222535
-0.025032363200397863
0.0017859954444387775
0.01924256535896801
-0.04492585215644856
0.019468510986342214
0.030689056182045628
-0.00020627678291506343
0.010402974385614815
-0.008278293630445528
-0.01407009982779082
-0.07691700194248026
-0.025944474684106253
-0.04228156393992296
-0.018533998775751098
0.016872081438311735
-0.0035056126165098306
-0.026325934637356094
-0.010752174156726094
-0.0061729323734279005
0.054952753990087005
0.04015575899162178
0.010409665556232368
0.02595469783143033
-0.03646032722305572
0.018867720723919637
0.01283669268753036
0.03122304050436252
-0.013327044509913158
-0.12461957767287704
-0.05605097935581945
-0.016728583267541206
-0.0008240963094476502
-0.01685218185973685
-0.02631392138774249
0.15082257072919988
-0.007008825653807013
0.03200864795439399
0.0026496444192064305
-0.027999878655870444
0.029417920088952065
0.017657377276283942
-0.018269621045526797
-0.02482879977023663
-0.013373622630251436
0.14412355861232093
0.12925841927330042
0.07362846084102154
-0.05069756428929328
-0.08809509138783357
-0.02110625401337465
-0.04145778091983182
-0.012489267825679549
0.07482012830122757
0.00527385605186433
-0.0513645750845846
0.03416398590576537
0.010959702729214586
-0.00414676418670434
0.005096018804226886
-0.01267398298753947
0.010272352374029481
-0.03253938974912571
-0.028448112565248776
-0.015434910824496457
-0.02117453238249819
0.007005744256011372
-0.014385820299113268
-0.014888241130451282
0.0031417351448162264
0.02081694262882136
-0.011846926441567745
-0.026695709838090456
0.022856670003491265
-0.008718356601497236
-0.008025430238065605
0.01153942322978222
0.01710470795112172
0.0242999169524131
-0.020554930563826592
0.11816873949797768
0.0037193329346468696
-0.02510912252915285
-0.024626477855369644
-0.007326037924383679
0.023829189966814823
0.027139149718608417
0.06583901713080706
0.07835667228497037
-0.006111331472592866
-0.04490154709507683
-0.004243637870804648
0.012343969097494932
0.00639038205730114
-0.01434041634884025
0.02215480825055291
0.033280874650003824
-0.017877780310973302
-0.017224584771278806
0.01852020924564687
-0.16753188017928786
-0.14980436306735379
0.08167678215269623
-0.02089513323307709
-0.006319891571972759
-0.043013589846369445
0.07087529680753331
0.03672480496886245
0.05205971441987014
-0.09634846814317763
-0.2241560229087506
0.0022851319106396563
-0.004333193080192854
0.04756718432586889
0.05560787923811125
-0.009450228130095847
0.044830547953499326
0.027392005478054614
-0.0006472323609715201
0.01845409561944513
-0.020748165648735873
0.021578795036340092
0.02352912317636228
0.02170283079715125
0.028927177331136197
-0.007422770090886287
0.02682691879442499
0.038679637628634106
-0.003964253314348862
-0.05296028869559651
-0.0458145656659619
-0.013818396010866854
0.01783821366704352
-0.16061065732354612
-0.05783198737985483
0.07347023701519423
0.039677882623311865
0.015437978369158
-0.014910214101628324
0.03248909144488692
0.030451084749509794
-0.02200559837257274
0.059695558734357924
-0.008525330753205985
-0.007520705437954458
-0.03681998459758867
-0.038701230041446516
-0.017097421282603272
-0.04782723396574574
0.02138418705101759
-0.00988495587612985
-0.009702252711723421
-0.0006453644428377461
0.06149329491271257
-0.022767394789800607
0.018620710289459805
0.007546158288421874
0.011188772177014738
0.11012789769306806
0.018417267212652327
-0.0020274374530836288
-0.03647498012528845
-0.013142285258887774
0.0028135021649256632
0.05018498769771934
0.008397214281943101
-0.007133569028432246
-0.0008821210384908269
-0.017252276769587672
-0.0006129720238265584
0.10584753601772422
0.11349581522857663
-0.006611727282856603
0.0058374079038483045
-0.005650230343019544
-0.00011109242972373568
7.804940770939763e-05
-0.014573912443528144
-0.06991198797946908
-0.03298460635721063
0.04285840066217457
-0.02037826991028388
-0.047832091643605516
-0.035647149832521284
-0.04861979999158068
-0.017231354565894284
-0.028828757030747023
-0.053434110492499284
-0.027891502816281
-0.030808819588613687
0.036339833593381915
0.04734461955741464
-0.0419768868757037
-0.01698863225677099
-0.012396416937677556
0.020340727632678104
-0.06514085115030877
-0.08344126205783466
0.09820241033487324
0.00391024110015964
-0.032090171475411156
0.00912663409890578
-0.02744564686123349
0.06957827482059671
0.051046471181346025
-0.01731582495458258
-0.007354922061296243
0.005189860829433074
0.022202715812254883
-0.025402128581830746
-0.03493406234712928
0.10254802942772702
0.10129131086759015
-0.03267064257562915
0.02042923615733478
0.08472233909889511
0.0007447992156223963
-0.02008146245046531
0.01602875688156892
-0.05763674595771248
-0.037290432417300776
0.009172464091534686
0.15139932896379757
0.058257438166862074
-0.018207310962390692
-0.02357897533854592
0.0023534300789329553
0.01735185292514703
0.006545192435273259
0.0030938503597670703
0.0016855419463508285
0.006305222330485759
-0.012863473023085856
-0.033318424615914506
0.014760203722844228
0.0330844314928636
-0.010289652767892031
0.008697268166484577
0.006188997175338364
-0.012606397912784091
-0.150412626747343
-0.016114441022212052
9.831359113619238e-05
0.002012060719481163
-0.015638429919351104
0.036388621533327156
0.0148968011526673
-0.027845205721878454
0.003259793053821231
-0.28834872324975164
-0.1326504487282146
0.12244974910225544
0.06770794464377117
0.056645320137655185
0.00048181460378669887
0.004727354850142743
0.009127978434243325
0.02044396838938145
0.011458801529575883
0.01208286523904324
-0.035240780143612385
0.022195032570706947
0.010696952018653956
0.020711044100275453
0.006920368155463219
0.041248748532413976
0.01797674446849363
0.01667215795486552
-0.00042601840067713363
-0.04586404558024293
0.023679587570865624
0.004322772530716562
0.015356317681628267
-0.22801543318753317
-0.02852151165884398
0.015592320862420246
-0.020916317235832024
0.008961026277034649
-0.04519393876371525
0.03864907394135262
0.08150611814035595
-0.0018829258894440392
0.06130233040326046
0.025492770381004934
-0.014559362190088559
-0.004763235536159551
0.0036079919623444026
0.04272891555723236
-0.016095038957208808
-0.01825692949147569
-0.03369234342984796
-0.03154928192205133
0.014224940133570918
0.000519139325618085
0.04268631485777637
-0.013491748640932439
0.008448381962449118
-0.020364750072388863
0.09552188594857883
0.027506624350674618
0.028282452893610054
0.02963390415234715
-0.03439143428588711
-0.00807194290069956
0.009345011676865021
0.005388126645589377
-0.020117680683616752
-0.04283740605518267
0.006211735955698957
0.004447981890827923
-0.005140271227507849
-0.026707180838332085
-0.013659512206985002
-0.01679483303004595
-0.017764257993018957
-0.03481246247835501
-0.01278618678327379
-0.0012876741812958173
0.02290799527625147
0.016750930040956215
0.1832685047332637
0.01040598872752669
-0.060592789813761025
0.038839952399179936
-0.09530723881684389
0.1613110145810452
0.12164740243182341
-0.05125142729351545
0.07733276081995503
-0.02813422947952456
-0.017263240191321354
-0.032868543872117406
0.000414986315320008
-0.05360594568972568
0.011592152297341387
-0.04004552643440157
0.018717916389455816
-0.2818257488277462
-0.12037351881087054
-0.0009661004987135777
-0.04527340558157765
-0.017320860281264495
0.03705171980154464
0.04456416813141265
0.038444426773718114
-0.00040403477413644137
-0.005888122614363434
0.008588527075092202
0.006484465646907304
0.0008543528070479733
0.04644487412332539
0.06916831141078517
-0.012575512799270033
-0.008920249410624926
0.010399608656767397
0.09555606372896999
0.024435301672293172
-0.017307671802144566
-0.006014453270683371
-0.0043085482723662135
0.015976244797513486
-0.025466405803711477
-0.015522493125188273
-0.015994779705297647
-0.003657926532779096
0.07744269684318249
-0.03615411385161327
0.04411668565596738
-0.00397372963042185
-0.033273926749571976
0.015661907807555855
-0.027331262047340633
-0.045437615055474764
-0.005797555447530377
-0.01198660737244229
-0.01593621578194679
-0.021350733570149057
-0.0031420606254269016
0.04889308398313497
-0.0016891537989410501
-0.00040318499055586965
0.019583403505169454
-0.01960358897691418
-0.01643402173028583
-0.005684544850367743
0.016443944543578993
0.03797853300968293
0.008907368405486142
0.014536197224785139
0.0017499445217161777
-0.00835062628092922
-0.007018444398965254
-0.04518803839053195
0.02269423933453231
0.034619160246279666
-0.029610333812985064
-0.013407493635295666
0.11519030009269889
0.07256714507411885
-0.023164941777215002
-0.0006175479804858748
-0.03247058995274878
-0.2769346240063683
0.0009581093168705315
0.01819369982255213
-0.02251298636977908
0.01666313624797616
0.007278660682422876
-0.04478443873597518
0.13635948247709287
0.1461009210037956
0.0014544038719236712
0.002804567622916023
-0.07728879639959854
0.015361984476521536
-0.03431441392171372
0.02506826760785385
-0.04804485832773727
-0.04148314687356806
0.0017743884407371742
-0.0102730964739403
-7.837373860681146e-05
0.04431730533672478
0.03030119601174706
0.0034683031112422626
0.022307290126800397
0.03212352605107823
0.006734124448119446
0.009905056346605868
-0.04458078367076
-0.018980042373282574
0.012301272931713994
0.02383555790471166
-0.005768356134636569
0.01473802123014274
0.01931699457462875
0.10454495740850507
0.048871117732291205
-0.019560152923413666
-0.08117898428110576
0.018994151099878568
-0.010125209860481182
0.010514197698042418
-0.07336305472586965
-0.03904399690051479
-0.0011339836913297166
0.015415771140788303
