0
-0.028542946374191237
-0.016451444320310406
0.0005652716439443731
-0.02374354629235254
0.001534928830203543
-0.005333418958500817
0.001059828477620803
-0.00978006519826582
-0.019601942806533844
0.0076193637808884464
-0.02457751692227315
0.02739124432159498
-0.026777976349658762
0.013622134866500317
0.04448373628865673
-0.03070812961301274
-0.011310571947455907
-0.044144815605589534
0.0048945136599882625
-0.0027172884614796336
0.06417973681363186
0.0316978308758217
-0.008113431951107716
0.0612623213915541
-0.035960867791240615
-0.010718832384613469
0.025694089287477063
0.010748142112599873
0.07970001942118683
0.07067021673050145
-0.03043086888737265
0.005436300165512631
0.013877107165577678
0.02504214195650015
-0.01790700530405311
-0.031092544742541472
0.01822486442773325
-0.003947148910932938
0.005743438979727031
-0.03379230835572854
-0.14425056976918776
0.008020058938413075
0.019201981496667544
-0.003711327807924709
0.001273477662511456
-0.03809486266356057
-0.028503990762284614
0.006112406795835277
-0.010357099694435655
-0.054592721346675116
-0.008817718509283548
-0.05522384034249329
0.003888645610836914
0.006637258784138887
-0.01921596249462272
0.0045826696712479315
0.046550926543833304
0.04885335099204377
0.011603854690408777
-0.019845978382232086
-0.026884844409858687
0.002960383487692756
0.0005345880542524237
0.025960297954444437
0.08775978982115558
0.014999258945982868
-0.0417518273540568
-0.008831227322828471
-0.009233661039916867
-0.0027193599336570616
0.053104339886473985
-0.018272214138040418
0.01241882762445271
-0.04690707961940334
0.013504811368323844
0.06917404823275096
-0.0428660245551173
-0.03301785429031186
-0.030736332946082676
-0.007834257405734258
0.008226972316713474
-0.02200975057896727
-0.00342097042892381
-0.03312688988033108
-0.02119995818861883
-0.006223354229719581
0.06577618267538765
0.094614237162318
0.013717499867738101
0.03970480995519915
0.029180433408770107
0.05141110860567108
0.0010233534749527812
-0.0528653777283778
0.0001787507745105668
0.0007861455824593229
-0.003225076686181084
-0.01583834876492767
-0.007245579867794499
-0.02643556505929458
-0.011121621569106947
-0.016280712346098257
-0.016587919399956276
-0.008409413967493467
-0.02045494137044953
-0.059858679470099166
-0.02365069254339944
-0.014305352545020526
0.02972480920476594
0.07937548154099143
-0.03300379800958363
0.008079805774012063
0.01883175173470447
0.011385314733700047
0.008094420200723616
-0.01262885439364145
-0.07528540201453224
0.004929701925027399
-0.010917821804142325
-0.034820693824342296
-0.027797236314524326
0.045060239037110816
0.029051147728113225
0.15477402649723054
0.04545232004368081
-0.04441034780110292
0.0033260729178415053
-0.010303733260093675
0.021013652596956377
0.021998985951111306
-0.009945683059042474
-0.008555316414894614
-0.043456543660906316
-0.0417596579338431
0.03789307858383035
-0.006272851352093802
0.029235542213443926
-0.020840315521122057
-0.026731543165884105
-0.023504385948416733
0.02476202246015974
0.026820952012864715
-0.03226919905087634
-0.025583268093221385
-0.013876595516915667
0.005365608819626926
0.010161937059233603
0.0025199719443451856
-0.005087860316392095
-0.03245836139140488
0.044989539682850445
0.06750864249071349
-0.025065784505189544
-0.007066402826079487
-0.005258093546204123
0.034883335534304526
0.0120969640503666
-0.012479648809411945
-0.03700348424130844
-0.01001598766004432
0.023125141245750252
-0.03179048067635474
0.0178425952721803
0.007297748687235738
-0.02421953989742286
-0.01786087836693303
0.047086938535473154
0.05631140433303144
-0.1615718806187699
-0.03067509391177577
0.031541240194444424
-0.002700113736820787
-0.02647354575506346
-0.03696866256473492
0.032836185522013665
0.007798652116212237
0.032526787575640564
0.02801297539285646
0.0348714805337447
0.03385703254633138
0.009761450487778964
-0.010828019483661857
-0.02577308413549435
0.04175360150419314
0.01429794634523708
-0.009465593692555821
0.036469385563943905
-0.025357693981619932
-0.053191148418396096
-0.044294902267840164
-0.03562623414838898
0.004754103800067626
0.04606905805423211
0.06326011022845436
-0.022560797006651243
4.1426900269939454e-05
-0.0022700599465536966
-0.008583712378403403
0.03972326910065219
0.01784203662926779
-0.013624384519050856
-0.0015604094094639634
-0.019437255443240955
0.034021764732857056
0.03329207174782515
0.0030110449658192653
0.02688003382518986
-0.001060541468919985
-0.10775370180059636
-0.0698988114312887
-0.012047420424659496
-0.04111227423859435
-0.012909081041239083
-0.014991987600847667
0.01536966870841055
-0.026912251222810206
0.026949216341295202
-0.021193720090241824
0.016284956990190586
-0.11673962243349366
-0.06949679694757148
0.029622615410949293
-0.012439474367600255
0.05504604362129016
0.024489094198099835
-0.031218350990559682
0.028566419190980324
0.0034774281614495675
-0.02682228721415732
0.013536174252655667
-0.006226061273248813
0.12248969410345685
0.06946723918544696
0.11396310691064311
0.09870924424666742
-0.042201588735629784
-0.007019301736990165
0.003941059183101052
0.03009141143226288
0.006905110003201796
-0.0154535681775737
0.013226824780140778
-0.02245873930375396
-0.054954802408276215
0.020674871711142587
-0.04173849753068371
-0.020137605884737963
0.038706908374791994
-0.0062930997536650955
0.056901921250231635
-0.042533634151282806
-0.010965007427341628
-0.0582152877766984
-0.048054011493882075
-0.0133707040128574
-0.0057087321873087364
-0.012241377612518098
-0.03684424870457257
-0.018656348789070767
0.004175638792446244
0.0020890405412322057
-0.00038799502638040093
-0.003234491715120963
-0.019422401990431
0.05022763809926292
0.05050441758349327
-0.0010162332979876286
-0.0015984583762481217
0.02766060050250946
0.038176583030488986
0.011074339960555802
0.0071164825015626225
0.03569346720220684
-0.0069289258948952975
0.012836983541126432
-0.0038849345266569867
0.008389481623665398
-0.018536684362289578
-0.001958256101898788
-0.07496741683049775
-0.08470724730760983
0.06324047969260517
0.05666271410147687
0.011864811754014945
-0.007162894717421321
0.01918230812677373
0.017368019474654436
-0.006357709379478507
-0.009374761889800758
0.05613383557607123
0.05977596517919209
-0.0457652613054034
-0.050977550105312505
0.012878613260146504
-0.16918374071214218
-0.010193306187599607
0.007971871962486079
-0.00736481021724285
-0.021152145312378565
0.03325871521801366
0.0501036383446474
0.01497564028003157
0.01080871011681118
0.015535642847770325
-0.025869655575950525
0.0019200060669617139
0.010058629611294313
0.0017707885928303414
-0.021607878396199265
-0.01090212314087234
-0.00039629483104043704
-0.012219545670927296
0.010480035777889894
0.04855144318488068
0.04780986377448433
0.010169717820911637
-0.017428782336669477
-0.0012058741304382475
-0.002268757716403808
0.0035664934011180585
-0.025620672669628097
-0.03478608424817612
-0.002472568420205244
-0.026148800788394634
-0.13342416047692057
0.0029239897687646215
0.10285365829791093
0.06821091865517385
-0.015296491141136452
0.0005290055025153375
-0.029646449897414023
0.011070570992006529
-0.008911559182956727
-0.15599237408264793
-0.012729872276397887
0.014540829850220004
-0.007906506471922646
0.01019940113690812
0.026854704747738142
-0.020125793989126416
0.02069938902909316
0.03834317294273227
0.04661937263297286
0.013855754036389277
0.017240386127665604
-0.014734611716139852
0.02808469014839869
0.03721610460031758
-0.01769266841811598
-0.011625866998862566
-0.023472260074472215
0.0013911111750704581
0.00915092929631947
-0.03454539350069429
-0.01502577295672244
0.03795324950651989
-0.04480696603523263
-0.04470679451940387
-0.012540565183892892
0.022058940808106782
0.04234418154252517
-0.018145325436520747
0.026287877403033795
0.03159340699728722
-0.008699056305287986
-0.036420300316568545
0.039222152085706695
0.060648226489788265
0.03137742295384902
0.10658661495356217
-0.057689122907448064
-0.18023516066177706
0.1623614560327698
0.08413024787466382
-0.010186583692302065
-0.0008619994303255274
-0.030409288125067966
0.006055870863224291
-0.021780452129786385
-0.024256898685088416
-0.02376123212371042
-0.012512207242975148
-0.006412513030210794
-0.04744511482359266
-0.02020304150422604
-0.03848628233990559
-0.013675997727898166
-0.024037169086492973
-0.00507883326004041
-0.031120737668107527
0.026951053957034243
0.02768312900478208
0.011849784340506618
0.0547493268124096
0.034834727666821386
-0.012759168481189449
-0.04817474067822967
0.0006347327393548398
-0.017612313744880204
-0.008312048498086115
0.019421201465606577
0.003343080469436343
0.00036459942251784277
-0.006582194387463375
-0.01148111826251694
0.027491629832787717
0.00960330507623557
-0.05500288359976097
0.03612099893361146
0.06915800933181612
-0.004701552745353156
-0.11513836134889725
0.019614246471310638
-0.011918874137704769
0.0233209154717608
0.04346281466372551
-0.020508394401488526
0.03865513010400177
0.07577287447045764
0.0010821025305525545
0.03349609267222267
-0.03301537664377616
0.038276229407970964
-0.0020038515228080742
0.013997111770087918
-0.021659426265588564
-0.029110971602272266
-0.005286165273139216
-0.02760829999665091
-0.009882583541784472
0.018336207519114193
0.024748889340537896
0.004621357689048443
-0.02623206420204219
0.014763556743634203
0.04922120814475607
0.0342731196622621
0.020011396578803468
-0.04645249737072872
-0.04576013551205642
0.024580373509190186
-0.08934530587236414
-0.021968083070614222
0.00358789805212388
-0.014839019483533637
0.024364096644518152
-0.023941952857403893
0.01574235346838017
0.010143857826936572
-0.04176543602822586
0.011556930997928847
0.01300256612186911
-0.04225472886280056
0.013971533312345002
0.017988126459103172
0.003907887373968028
-0.02885196957041942
0.002416434676970065
-0.0014274468545828517
-0.007258817597629937
-0.014684647575293829
-0.018749151216969136
-0.03234875821526987
-0.00953603932274624
0.01772733198113168
-0.01853706375787506
0.026126427024623842
0.02378267094642432
-0.05121612264047152
0.017498667141380916
0.04446567066130142
-0.013378275054261136
0.13628290976725232
0.05915403205695643
-0.08574364759816203
0.0001114076172526926
0.00654022845381107
-0.0192587409844836
0.01101441335880455
-0.011994736413149699
-0.027424100563244038
0.026650932445716747
-0.014403277189221008
-0.013434165327834653
-0.03998753718770029
0.02705883580215247
-0.00039177971744263664
0.016635153013498563
0.005923765957731487
0.0023201276507098237
-0.023490971601879962
-0.0021021922557539333
-0.013816897236899347
-0.005948859244547955
-0.04290996853141426
0.0033061592907473944
0.07451154482398317
0.06629931288074234
0.019396876273516852
-0.011820897850315969
-0.1237242006034402
-0.017448080285106984
-0.029416303837323823
-0.07749838979550193
0.005769260711214981
-0.04569222077237069
-0.019118355987264805
0.020500907641618396
-0.02703946123667479
0.13427592174925726
-0.015779980671762152
-0.0835084965665414
-0.008488193905760442
0.024595881846285673
0.10479131491627525
0.08281936580169517
0.07893918509603613
-0.0013033779995354849
0.07134450128573262
-0.011372515038522983
-0.022782078656505722
-0.017492801734530522
0.01689509466840974
0.0014092154940113968
0.05137116215315421
-0.029291651641944066
-0.013726015463435581
-0.03310983600951049
-0.04106726663131201
-0.017618608291357658
-0.004972714364251833
0.008684205436192685
0.00546376126204457
-0.03096978350228433
-0.01869647076330629
0.0005386184846222326
0.009522244877041765
-0.025601836121880713
0.054216604477376036
-0.004272782901954665
-0.03462750191302114
-0.0014065051588942495
0.03389632173819808
0.040720016066836166
-0.016434209813270685
0.05710944312359245
0.03615173891641721
-0.009737985393940465
-0.08583479341954084
-0.06847357845477958
-0.006779061802566215
-0.00820710717757652
-0.0010264302052083083
0.01598605400259173
-0.008131014471073924
-0.0025282182728080427
0.008219942847458044
0.01171271854935497
0.004401201289665528
0.017586811830368122
-0.003511640999444334
0.007071655917577517
-0.0032214759510614164
0.04008780326480763
0.03525820996328916
0.005626541289126096
0.024100079820275983
-0.001312542230208393
-0.009587368845951074
-0.026189672670403015
-0.0009278016270204429
-0.012702530091511175
-0.00874670254139783
0.011105861814726272
0.0279220169091835
0.012578324951908054
-0.012439101852563573
0.015394769640353082
0.046763370929847316
-0.009564414124521806
-0.014212836243759311
-0.008180976031676944
0.015252340127508684
-0.01450883627490152
-0.03440183498947038
0.0009994203866074828
-0.0007774109434102176
-0.001469671280553836
-0.17710902269245335
-0.10609442386374454
0.03613029287390857
-0.005422648232618021
-0.02655147280610645
-0.058815592148569476
-0.004624957136532134
-0.03220426440242652
-0.006743639421722319
-0.009969294142422615
0.006096052395469505
0.02257809942435961
-0.026268813667832038
-0.023955300874610702
0.25123253866607226
0.03765154303845784
0.010386465019860389
0.042360244536206605
-0.01229442519169473
0.039777618080875356
0.059464852267229126
0.010654207817489434
-0.0038414944680418375
0.0068237514974485505
-0.22346503044129457
-0.001987835111909373
0.014240598267281347
0.035037002259255545
0.024432357314148587
-0.022375131602426306
0.04668564639591063
-0.002118492632382834
8.8458730203631e-05
0.0022768636131168985
0.013721783690729116
-0.0014000198015544389
0.021858439805185738
-0.00961315392904634
0.02448948285575663
0.019075134270831812
-0.012915292327102432
0.030328434516841616
0.010124482434113945
-0.03347402648830618
-0.006179868814013839
0.021158279379792075
-0.014855425524533908
0.009580482057283094
0.013746816417339953
-0.006984920081361718
0.016408170791315912
-0.05933411377583882
-0.011991550506781119
-0.012190406104259038
-0.012353840519525839
0.01750951183040765
0.04458025118447307
-0.023435158751307788
0.0022458062931750063
-0.010607852379549806
-0.011552797523255852
-0.005084973468272389
0.01593601407926766
0.0076264386017580186
0.027791106054003322
0.13390175977730712
0.05885936058373248
0.0018083400576213854
-0.11944291668168135
-0.09634246878428308
0.013610238153712685
-0.03829492144078945
0.014356366939838954
-0.038311151971104185
-0.011533400239022204
-0.06088420539268047
0.0021842733353904273
0.031653402977181576
0.006690122619092859
0.023269574452395376
0.008668578145903027
0.017497574314349968
0.03390212263565423
0.02399112386622141
-0.007540778317175889
0.01886071634820226
-0.027989353626785955
0.0075613845223897955
-0.040013989043185275
-0.07928347046166338
-0.029242751119940815
0.006319667863779638
0.023329982162599548
-0.0015398890416527917
-0.006348012120683926
-0.011350233261964843
0.0014751447294337498
0.007933297801524025
-0.040097000163852266
-0.007344545123847998
0.03169019383383967
0.004373798051387186
0.01430237695473184
-0.023058404284945724
5.8767235089561196e-05
-0.010889839208412062
0.04007588512736997
0.05377158584878045
-0.0037111909825838013
0.0214072701798737
0.018808062504733113
0.013901152218691315
-0.01986984613440624
0.02458551722135909
-0.00652751537095712
-0.0019616892489295384
0.03923464155041934
0.023763995357885738
0.00552342360415577
0.009811693068863661
-0.036081081518040625
-0.00407789291154683
0.03865904240472827
0.009356985225405274
0.024045702608985926
0.0025661796515334036
0.0015835846107412142
-0.02015254962821078
0.0435373478300221
0.0052817657603782715
-0.014427319068779977
0.0032263658808103926
0.013931504919105824
-0.12105359472988263
-0.18254821590790804
-0.03549959732151644
0.02976675398573557
0.02497807114919171
0.060579536140709725
-0.013328953101001368
0.015786313723940595
0.0166563189896298
-0.024433926560434006
-0.023575800252743515
0.04703432019779435
0.030661069252650754
-0.018737430924808274
-0.032471606023163097
0.018071473455510217
0.03790415456236492
-0.013259232263790973
-0.02363468333238599
0.005350084488748036
-0.008981605196309356
-0.035180277544441696
-0.0234325961172486
-0.009192994303992516
-0.003602905729020665
0.026000134725288265
0.022509103172405398
0.004124084491117546
-0.006946720150797692
-0.09859967127838376
-0.053019407407422725
0.0390708114917145
0.08868431285344232
0.040863103990010606
0.05599645372303149
-0.003986152651248422
0.005874198866097073
-0.09242718599213043
0.011973208895043247
0.04828263770070186
0.00727621200906915
-0.0030547875456559447
-0.012003820876207596
-0.0600954038832473
0.011937738402297315
-0.06585606040255149
-0.04566534631127351
-0.06004044183701145
0.22695821743220657
0.14371659346922075
-0.030787527770552336
-0.0362156745864797
0.007117395326953429
0.05769743689098725
-0.009106661196695114
-0.013409390279462408
0.004169598245769948
-0.02578055783919912
-0.018579067835451726
-0.026410372743974567
0.026312675586681388
0.05624384721564182
0.04824153593217025
-0.047209734652817026
-0.01694410422259975
0.04068772848870579
-0.011457052093596423
0.0003998582023388724
-0.024293004754605208
-0.01637705657304834
-0.003450799129177317
-0.03703159263861225
-0.08501176356028826
-0.017808616227777626
-0.010731414240264773
0.003152229897512881
-0.027005175251458173
0.011839722204918014
-0.02864195319848398
-0.009768241807300423
0.05116207290330201
0.09906843657937137
0.02969461137150435
3.150048687923342e-05
0.043274366103284154
0.008982639331843678
-0.01171923937525579
0.014917417516104078
0.015570514920186037
0.0008749052596635714
-0.010113716225664057
0.012588236870661457
-0.017075734662936642
0.012905926297074814
0.05605354405278436
-0.048736651314714365
-0.21933093042619395
-0.05907008752509375
0.04359496016832613
0.009375559071213364
-0.01807611584564778
-0.06764027110381907
0.022312460595004496
-0.00815028945218825
0.011848082318648923
0.0417105006060063
0.07542105844576784
0.057605431336003855
-0.03500235167813723
-0.011248366869975554
-0.017539866567303275
0.002276131252070129
-0.03274187048525967
0.0009414675890198046
0.005609320333556465
-0.0011148468352432342
-0.011139326542874655
-0.045971883043894005
-0.022995705244005234
0.0021206928367410224
-0.01700747164774243
-0.018365280134243298
-0.01261863618112901
0.025671847637605827
0.03304339543568898
0.0526695305650859
0.03703811268016925
0.07220084639383052
0.018695463016242073
-0.01704927791590389
0.023575815678897247
0.014854133466204664
0.002489575564514429
0.01593041418494898
-0.07164194707752017
-0.0118059993872558
0.013753838309759585
-0.0015480315057804965
-0.022595309024606224
-0.015371176675149204
-0.03703467247631009
-0.020316538943349977
0.011227794147673702
-0.0799330263088929
-0.037351407092552344
0.010791495197101018
0.020097754483083596
0.06262354194175596
-0.010431861855741464
0.016077664730412933
0.008109961464696652
-0.011339807529054988
-0.029334638515168224
0.015805209695610924
0.00018392166144959855
0.024541420374777155
0.15169329571586923
0.04497381056798137
0.005239510951719535
-0.02792439535635022
-0.027853520252648523
0.024615092515145376
-0.0509726747115126
-0.02575494821921157
-0.014503369493920995
0.11989450988793977
0.05269717242145954
0.04506428795924541
0.02138734622871883
0.028555962098098887
0.015139626981781085
-0.01024993725239045
0.0020403090099790936
-0.01384883728879241
0.0023050661239240994
-0.012758113722699922
-0.009861349969939844
-0.021574538549377728
-0.005087391197953325
0.02153989464487083
-0.13958659340942015
-0.14084392452674202
0.03801205107088924
-0.07840505786683627
-0.01987825655539751
-0.06492372763562886
0.0034790103294437165
0.0714569505743019
0.02399089034882046
-0.033903835363913566
0.013390910713070065
0.008212643358126956
-0.02450789004517948
0.032817309383474325
-0.002167055941011486
-0.010792485607882521
0.01370068083419367
-0.009730368821329674
-0.02914699956799475
-0.002054980067336518
-0.010078395293700625
0.0014895983818891513
0.015491449909992749
-0.0009401467005129781
0.0032728073429106577
0.017840565595399666
-0.04394428931357409
-0.006683501219602373
-0.00677612667798882
-0.007084350165224337
0.018960482482132363
-0.006568434613010343
0.004491957947449647
0.03638897965294992
0.03947325687891881
-0.012278747051416124
0.015280040154064554
-0.0398704141910367
0.01429828587418827
-0.004314588424504618
-0.0043250279461136566
0.049296463322928204
0.09439085226802357
0.03038903238486585
-0.0011583777076326978
0.005904295244813233
0.012669299906662424
-0.048984069122306705
-0.007448061999024656
0.046451016168548666
-0.023266395950983693
0.010513162655215595
-0.018822861486232367
-0.012272059589378112
0.007970080026489487
-0.024070880779895373
0.02124184492873402
-0.021555222948543486
-0.004977566747155959
0.02219382980105323
0.04651468859103981
0.02160233363955954
-0.03921036767287406
-0.01920310939164119
-0.010531079956961387
-0.0034676212702493274
-0.042629453554844564
-0.06816172861285885
0.03394851338104985
0.004928216933403059
0.01440199752823884
0.011851795126627481
-0.011966258911411736
0.01957510442367964
0.008710697077252982
-0.012495217559166988
0.00012655800443788764
0.010326691372391315
-0.0013938598961436275
-0.0013078655731385746
0.017434532408491188
0.016546570051377177
-0.014363017625509403
-0.011328498034484017
-0.030206994914380076
0.052665121619870095
-0.0681437103745285
-0.2270429849949101
0.0611684432401052
0.03965253265559089
0.011011965583694746
0.026210034845418288
0.015956762343590572
0.011226018762507247
-0.030784979691540898
0.004031067418629425
0.027848117620050235
0.03593015870067485
-0.01075183253116577
-0.01873866090164519
0.014319566457730748
-0.00013627411447658506
-0.006589003073525061
-0.004421440009782392
-0.0011993000845598348
-0.010653583064699426
-0.019713938097420586
0.04321276598642051
0.03823969862278186
-0.0474044358870187
0.01004888592546126
0.02147027887800986
-0.048733422320154866
0.034792038019207
0.04703077562256963
-0.0037463784776764564
-0.015071686817297095
0.029318166190830292
-0.0014846748814227055
-0.0009459546778711484
0.049599607228815734
0.028615000131781178
-0.0037973244560258923
-0.015977940915155208
0.0032464450082094394
-0.03893911428038029
-0.004803579629220957
-0.0013937992233399544
0.061867287689873506
0.029677979336159045
0.08016675938155043
-0.10136888167612411
-0.12169499292272394
0.021191951440580906
0.1845784454604207
0.053387323719183304
-0.034941797396219165
-0.00475105946857148
0.007799215746194914
-0.12872611122012415
-0.0434673913603924
-0.01154920677826571
-0.04549178289287052
-0.013336887358856873
-0.04278464074873336
-0.014280611309832398
0.015895085240347225
0.024007364449467185
0.0053075646845414035
0.013296742402789849
-0.03458004932050841
-0.05232535753984036
0.04120623959350608
0.13506586336894816
-0.04935103286908758
-0.006027684029636814
0.027074311088173295
-0.0002502598500189388
-0.02011580365459616
0.015428134027472654
0.005827098696878197
-0.011555627819238216
0.053262836998257276
0.04448047631802025
-0.029232026357592047
0.0035899653216072067
0.05094801462714717
0.024161534927399603
-0.023623548405966723
0.008114837287208746
0.008644154677629627
0.016492513463135388
-0.000741903038101227
0.00811761919340602
-0.029257839721233626
0.003676590963460797
-0.03382558185615116
-0.034348550021606694
-0.0283073392154259
0.00020974655735675468
-0.04893709375041295
-0.07113292857238115
-0.01770493652137343
-0.03337644492638089
0.012220848808576431
0.02530931807060268
0.0029830658111193223
-0.10019011620039751
-0.008734044093321805
0.010066612379453988
0.041379922686926196
0.0016005605887991776
-0.02298075188471349
0.022673004998748345
-0.0008317434315874276
0.022983031176986482
0.06870987915838221
0.01245558953554591
0.004662080308697082
-0.005485974979021621
-0.005240985763065936
0.031483565915875464
0.03762899587042472
-0.007826518050721659
0.004703163277671227
0.026055936585917636
-0.02686145186127821
-0.09321355313999946
0.028748473793799804
-0.02868033069760651
-0.012604807999906648
-0.07129074513455182
0.1359624750471596
-0.02858784917436644
-0.04047439302203176
0.030204649481815192
0.009981221298323404
-0.015746430936531993
-0.030279746057275347
0.00998510807410268
0.00581024321531881
0.008355651159651398
0.01807806560026132
0.0028653593256878296
-0.015780695434749567
-0.010620273655027107
-0.023035188385654132
0.008893898667418056
0.09060244897968256
-0.0022688752724187165
0.006157889820800252
0.001762356229568414
0.05914665786692147
0.03097964706005069
-0.015006497723028289
0.01330624094886709
0.018680059527437898
-0.03016615698393056
-0.0012852951099456978
-0.027614966492562055
0.06145812810346332
0.07653611175869866
-0.039387045942710835
0.023137103273505606
0.009434636005456715
-0.014176392339938441
-0.038463461123550424
0.0039982593466275414
-0.0055476131504997245
-0.03969008425491919
-0.04603021790294638
0.02896482513602882
-0.04580907475949472
0.0006547034581443099
-0.04488927394332347
-0.009645255974189073
-0.04129685220399875
0.03548415910358177
-0.08722794646471098
-0.017169629970474908
-0.014081106268575167
-0.0481050311635689
0.006573617920216142
0.007398132766931641
0.029933416728619957
-0.026752654531172877
0.00965698154758629
0.0033187757678063527
0.011536781713647344
0.028212109897419856
0.04017041998069248
0.013941203122215837
-0.040230440761395814
0.016154843536102255
0.002555354454057387
0.041757671080192446
0.09773400670860384
0.022679578554094457
-0.0009420594000028034
0.01659739310022728
0.002567986791436449
0.004597162783574469
0.0023339255528774558
-0.011170534477363126
-0.024328409550853313
-0.03049563167647008
-0.027153378399931524
-0.017895711550573123
-0.006958061408453493
0.01710558260132968
0.06110636521911816
-0.006873234657120506
0.02846351812006733
0.01470854966104516
0.0033310603531575616
-0.00730032633151405
-0.010947189466779689
0.009117216690307604
0.09070433035790611
-0.11971918607173433
-0.07513220076611597
0.0026951456041316214
-0.020944572671226125
-0.0004823962561900378
-0.02366037919843253
-0.009154516303350981
0.021550877128721977
-0.0015880538161875026
-0.027396056556044896
0.027462098328267643
-0.012514208892602888
0.005799498233509485
0.008520331601616414
0.021607653805945364
0.0770836735671579
0.0419791021422599
-0.01815372514766844
-0.004331310860542274
0.0035729257410297456
-0.0233721555552955
-0.0052485058321449585
-0.01747770711828065
0.012661953039464558
-0.015773048035499674
0.047031703416727556
0.02437673260471476
-0.026911710375584118
-0.05873721733864884
0.01421841697161074
0.003462759018333699
-0.002314646285446319
-0.14881534382661551
-0.07074079194416132
-0.007446233229894476
0.03512589141724753
0.08620895482902488
-0.008573286424715613
0.007416033162092222
-0.0027541005232965244
-0.00854680519001106
-0.001970391792181086
-0.005482212979921858
0.01008117160975706
0.01708943061454424
0.052431159816431226
0.05671737777521067
-0.03331557862107778
-0.011683313984960843
-0.03201164805165279
0.019337780397531097
-0.024369749349807943
-0.026939643857202548
-0.017152316068264846
-0.029745044551080443
0.1554172723985691
0.12734412707675244
-0.04207186421972733
-0.0276390011134585
-0.024480187378949102
-0.01582488718952446
-0.028402042179997544
0.005885854287514381
0.01913472399533258
0.009453492131431963
0.01011574199856091
-0.0024457609246908204
0.038178455236961
0.06414589602385022
-0.02649785400396728
-0.049243113410161965
0.004381870247471942
0.020731426908380667
0.01730284710162666
0.0011161332167867154
-0.029792519805586094
-0.010817326407669239
-0.001484314672981606
-0.0094514084505168
-0.004161291519431368
0.034051764784198434
-0.04379282365536779
-0.017524104739678047
0.0030834948100263004
0.009399120177741332
-0.025089887851033246
-0.020052704042313418
-0.01182751366916808
0.049363239746914124
-0.050458788637443165
-0.0830058480381383
-0.0023726207960797943
0.0029514447996852656
-0.0013923212310628541
-0.004207429489356499
-0.014117894883919931
-0.05103651241518785
-0.043784059001897066
0.007700314236226751
0.015215833266000598
0.008874166604908204
0.036707596179503706
0.023766162410996685
-0.006109096436399879
0.006874391654049044
0.02376936139853159
0.008807060768268912
0.04225931008026954
0.03659674822998349
-0.03980971814115094
0.008489309127165442
-0.014907523474289527
0.0036273615588985216
-0.00950031321201404
0.006505075510870586
0.0008752842998953833
-0.04245577667187603
0.008995302383259362
0.018786587580010984
-0.004140187255523901
0.020259032753254115
0.0035136740602366603
-0.028573858528858805
0.06041872547207933
0.13656770060055295
0.02619296602412336
-0.025883602951170603
-0.029040659205288564
-0.01790944042773766
-0.041666807256954236
0.029733533088207614
0.0029363204019361116
-0.014412744245738393
-0.01625898523898961
-0.002093436420735116
-0.0096024282859581
0.0008278373111575489
-0.04101832988554547
-0.011407295057929905
-0.02767221517133708
0.0010930164962170814
-0.028434042307752785
-0.004669595118911132
-0.028909382983346464
-0.03437992430781476
-0.010186398120209406
0.009449238711911886
0.00024041703195474003
-0.016908012883904602
-0.04076902027556268
0.04518079728800847
0.0666684404428226
-0.005308505423425392
0.0026697745333493913
-0.039010100832846575
-0.03119619849508422
-0.014788174848382534
0.03305581987041206
0.13005816008781595
0.01954609485655244
-0.02301298160606383
-0.010752302420741044
0.12214927725316999
0.043681717879120806
-0.07689455223154318
-0.04513330291096401
-0.030678459759733042
-0.05631138570890051
-0.010828731588201638
0.01175615254369644
0.01736176654638606
-0.006512700666555411
0.011050221845724273
-0.002923747550755094
0.03874864454619427
0.028675479738240917
0.005550352348457143
0.039506035381173185
-0.032816652445021
-0.0318699980442051
0.006892813366190399
-0.027356757546501728
-0.024569038389934995
0.015845708310967113
-0.02364460177080642
-0.024891312279941364
0.04543957301393601
0.09101218266834803
0.029266892707427508
-0.049986124167094664
0.02800033564623421
-0.0018656305689804225
-0.018076293500731415
-0.014156673655403922
0.05294271045118447
0.044311306165943865
-0.04054405890861101
-0.002038164667175759
-0.03292143439637344
0.002049081624696507
0.029108332974280397
-0.011618280906635997
-0.006752333793861377
-0.00871820343916905
-0.019134466733051882
0.029361231940193754
-0.014693363402247708
0.014590705358781418
-0.03512345521052847
0.006435526931218924
0.03074996290975652
-0.04645587456858378
-0.010781580139997785
-0.02371827097160382
-0.01662608210611773
-0.014249798641198056
0.04147944797695748
0.055626469076636736
0.012639879803068674
0.03408152428486015
-0.060838536100160455
-0.007700096596774288
0.01992914613945211
-0.013916715209318418
-0.045109707188142376
0.009476812284955163
0.0065430748348771495
-0.01446777857222604
0.013251561202423502
0.032874006639102595
-0.01137581830098205
-0.016462302256878742
-0.02136432364489693
0.014115896898733153
-0.004250647763331181
-0.07505691384760141
0.007372996656050024
-0.00547905743817018
-0.017692694596400507
-0.006469060929570373
0.048425262818270996
-0.007138108644991121
-0.013663958901578928
0.02312954522191696
0.03170887177909595
-0.11010537406533089
-0.10480361180525523
0.02755800725341368
0.04038962670685166
0.021461537725857797
-0.025782108126342317
0.04611995803203741
0.040995381118164476
-0.007314935697880588
0.04687671855768982
0.024167749843133097
-0.034304251916049903
-0.011095404714976017
0.0021383423506308274
0.021919553552027925
-0.07355797831097675
-0.04329243809842166
0.02182267365665654
0.020733561707147827
0.05601837817099101
0.022445341986048025
-0.01301396294236869
0.009532419039045935
0.01814382889413691
0.006660077210885918
-0.065592127335219
0.020195728024586673
-0.0007094505475095535
0.0013740895412105384
-0.013102078951795654
0.02722013608516379
0.08550221106675154
-0.02576244260983678
0.0031789983532294714
0.058025930070907845
0.03015714175063474
-0.027858453140265447
-0.04787103896442623
-0.017816139627449056
-0.03498073461756354
-0.026646039852948354
0.0314959262919073
0.09143828301248541
0.01785729152997511
0.11684153339474049
-0.006980669362966024
-0.0016860136813175227
-0.0340598510836262
-0.19765083734140446
-0.02749591483962558
0.016844887009832266
0.011775863250402141
-0.038142954027896046
0.025420283702838664
0.0019928643828063847
