0
-0.09859967127838376
-0.053019407407422725
0.0390708114917145
0.08868431285344232
0.040863103990010606
0.05599645372303149
-0.003986152651248422
0.005874198866097073
-0.09242718599213043
0.011973208895043247
0.04828263770070186
0.00727621200906915
-0.0030547875456559447
-0.012003820876207596
-0.0600954038832473
0.011937738402297315
-0.06585606040255149
-0.04566534631127351
-0.06004044183701145
0.22695821743220657
0.14371659346922075
-0.030787527770552336
-0.0362156745864797
0.007117395326953429
0.05769743689098725
-0.009106661196695114
-0.013409390279462408
0.004169598245769948
-0.02578055783919912
-0.018579067835451726
-0.026410372743974567
0.026312675586681388
0.05624384721564182
0.04824153593217025
-0.047209734652817026
-0.01694410422259975
0.04068772848870579
-0.011457052093596423
0.0003998582023388724
-0.024293004754605208
-0.01637705657304834
-0.003450799129177317
-0.03703159263861225
-0.08501176356028826
-0.017808616227777626
-0.010731414240264773
0.003152229897512881
-0.027005175251458173
0.011839722204918014
-0.02864195319848398
-0.009768241807300423
0.05116207290330201
0.09906843657937137
0.02969461137150435
3.150048687923342e-05
0.043274366103284154
0.008982639331843678
-0.01171923937525579
0.014917417516104078
0.015570514920186037
0.0008749052596635714
-0.010113716225664057
0.012588236870661457
-0.017075734662936642
0.012905926297074814
0.05605354405278436
-0.048736651314714365
-0.21933093042619395
-0.05907008752509375
0.04359496016832613
0.009375559071213364
-0.01807611584564778
-0.06764027110381907
0.022312460595004496
-0.00815028945218825
0.011848082318648923
0.0417105006060063
0.07542105844576784
0.057605431336003855
-0.03500235167813723
-0.011248366869975554
-0.017539866567303275
0.002276131252070129
-0.03274187048525967
0.0009414675890198046
0.005609320333556465
-0.0011148468352432342
-0.011139326542874655
-0.045971883043894005
-0.022995705244005234
0.0021206928367410224
-0.01700747164774243
-0.018365280134243298
-0.01261863618112901
0.025671847637605827
0.03304339543568898
0.0526695305650859
0.03703811268016925
0.07220084639383052
0.018695463016242073
-0.01704927791590389
0.023575815678897247
0.014854133466204664
0.002489575564514429
0.01593041418494898
-0.07164194707752017
-0.0118059993872558
0.013753838309759585
-0.0015480315057804965
-0.022595309024606224
-0.015371176675149204
-0.03703467247631009
-0.020316538943349977
0.011227794147673702
-0.0799330263088929
-0.037351407092552344
0.010791495197101018
0.020097754483083596
0.06262354194175596
-0.010431861855741464
0.016077664730412933
0.008109961464696652
-0.011339807529054988
-0.029334638515168224
0.015805209695610924
0.00018392166144959855
0.024541420374777155
0.15169329571586923
0.04497381056798137
0.005239510951719535
-0.02792439535635022
-0.027853520252648523
0.024615092515145376
-0.0509726747115126
-0.02575494821921157
-0.014503369493920995
0.11989450988793977
0.05269717242145954
0.04506428795924541
0.02138734622871883
0.028555962098098887
0.015139626981781085
-0.01024993725239045
0.0020403090099790936
-0.01384883728879241
0.0023050661239240994
-0.012758113722699922
-0.009861349969939844
-0.021574538549377728
-0.005087391197953325
0.02153989464487083
-0.13958659340942015
-0.14084392452674202
0.03801205107088924
-0.07840505786683627
-0.01987825655539751
-0.06492372763562886
0.0034790103294437165
0.0714569505743019
0.02399089034882046
-0.033903835363913566
0.013390910713070065
0.008212643358126956
-0.02450789004517948
0.032817309383474325
-0.002167055941011486
-0.010792485607882521
0.01370068083419367
-0.009730368821329674
-0.02914699956799475
-0.002054980067336518
-0.010078395293700625
0.0014895983818891513
0.015491449909992749
-0.0009401467005129781
0.0032728073429106577
0.017840565595399666
-0.04394428931357409
-0.006683501219602373
-0.00677612667798882
-0.007084350165224337
0.018960482482132363
-0.006568434613010343
0.004491957947449647
0.03638897965294992
0.03947325687891881
-0.012278747051416124
0.015280040154064554
-0.0398704141910367
0.01429828587418827
-0.004314588424504618
-0.0043250279461136566
0.049296463322928204
0.09439085226802357
0.03038903238486585
-0.0011583777076326978
0.005904295244813233
0.012669299906662424
-0.048984069122306705
-0.007448061999024656
0.046451016168548666
-0.023266395950983693
0.010513162655215595
-0.018822861486232367
-0.012272059589378112
0.007970080026489487
-0.024070880779895373
0.02124184492873402
-0.021555222948543486
-0.004977566747155959
0.02219382980105323
0.04651468859103981
0.02160233363955954
-0.03921036767287406
-0.01920310939164119
-0.010531079956961387
-0.0034676212702493274
-0.042629453554844564
-0.06816172861285885
0.03394851338104985
0.004928216933403059
0.01440199752823884
0.011851795126627481
-0.011966258911411736
0.01957510442367964
0.008710697077252982
-0.012495217559166988
0.00012655800443788764
0.010326691372391315
-0.0013938598961436275
-0.0013078655731385746
0.017434532408491188
0.016546570051377177
-0.014363017625509403
-0.011328498034484017
-0.030206994914380076
0.052665121619870095
-0.0681437103745285
-0.2270429849949101
0.0611684432401052
0.03965253265559089
0.011011965583694746
0.026210034845418288
0.015956762343590572
0.011226018762507247
-0.030784979691540898
0.004031067418629425
0.027848117620050235
0.03593015870067485
-0.01075183253116577
-0.01873866090164519
0.014319566457730748
-0.00013627411447658506
-0.006589003073525061
-0.004421440009782392
-0.0011993000845598348
-0.010653583064699426
-0.019713938097420586
0.04321276598642051
0.03823969862278186
-0.0474044358870187
0.01004888592546126
0.02147027887800986
-0.048733422320154866
0.034792038019207
0.04703077562256963
-0.0037463784776764564
-0.015071686817297095
0.029318166190830292
-0.0014846748814227055
-0.0009459546778711484
0.049599607228815734
0.028615000131781178
-0.0037973244560258923
-0.015977940915155208
0.0032464450082094394
-0.03893911428038029
-0.004803579629220957
-0.0013937992233399544
0.061867287689873506
0.029677979336159045
0.08016675938155043
-0.10136888167612411
-0.12169499292272394
0.021191951440580906
0.1845784454604207
0.053387323719183304
-0.034941797396219165
-0.00475105946857148
0.007799215746194914
-0.12872611122012415
-0.0434673913603924
-0.01154920677826571
-0.04549178289287052
-0.013336887358856873
-0.04278464074873336
-0.014280611309832398
0.015895085240347225
0.024007364449467185
0.0053075646845414035
0.013296742402789849
-0.03458004932050841
-0.05232535753984036
0.04120623959350608
0.13506586336894816
-0.04935103286908758
-0.006027684029636814
0.027074311088173295
-0.0002502598500189388
-0.02011580365459616
0.015428134027472654
0.005827098696878197
-0.011555627819238216
0.053262836998257276
0.04448047631802025
-0.029232026357592047
0.0035899653216072067
0.05094801462714717
0.024161534927399603
-0.023623548405966723
0.008114837287208746
0.008644154677629627
0.016492513463135388
-0.000741903038101227
0.00811761919340602
-0.029257839721233626
0.003676590963460797
-0.03382558185615116
-0.034348550021606694
-0.0283073392154259
0.00020974655735675468
-0.04893709375041295
-0.07113292857238115
-0.01770493652137343
-0.03337644492638089
0.012220848808576431
0.02530931807060268
0.0029830658111193223
-0.10019011620039751
-0.008734044093321805
0.010066612379453988
0.041379922686926196
0.0016005605887991776
-0.02298075188471349
0.022673004998748345
-0.0008317434315874276
0.022983031176986482
0.06870987915838221
0.01245558953554591
0.004662080308697082
-0.005485974979021621
-0.005240985763065936
0.031483565915875464
0.03762899587042472
-0.007826518050721659
0.004703163277671227
0.026055936585917636
-0.02686145186127821
-0.09321355313999946
0.028748473793799804
-0.02868033069760651
-0.012604807999906648
-0.07129074513455182
0.1359624750471596
-0.02858784917436644
-0.04047439302203176
0.030204649481815192
0.009981221298323404
-0.015746430936531993
-0.030279746057275347
0.00998510807410268
0.00581024321531881
0.008355651159651398
0.01807806560026132
0.0028653593256878296
-0.015780695434749567
-0.010620273655027107
-0.023035188385654132
0.008893898667418056
0.09060244897968256
-0.0022688752724187165
0.006157889820800252
0.001762356229568414
0.05914665786692147
0.03097964706005069
-0.015006497723028289
0.01330624094886709
0.018680059527437898
-0.03016615698393056
-0.0012852951099456978
-0.027614966492562055
0.06145812810346332
0.07653611175869866
-0.039387045942710835
0.023137103273505606
0.009434636005456715
-0.014176392339938441
-0.038463461123550424
0.0039982593466275414
-0.0055476131504997245
-0.03969008425491919
-0.04603021790294638
0.02896482513602882
-0.04580907475949472
0.0006547034581443099
-0.04488927394332347
-0.009645255974189073
-0.04129685220399875
0.03548415910358177
-0.08722794646471098
-0.017169629970474908
-0.014081106268575167
-0.0481050311635689
0.006573617920216142
0.007398132766931641
0.029933416728619957
-0.026752654531172877
0.00965698154758629
0.0033187757678063527
0.011536781713647344
0.028212109897419856
0.04017041998069248
0.013941203122215837
-0.040230440761395814
0.016154843536102255
0.002555354454057387
0.041757671080192446
0.09773400670860384
0.022679578554094457
-0.0009420594000028034
0.01659739310022728
0.002567986791436449
0.004597162783574469
0.0023339255528774558
-0.011170534477363126
-0.024328409550853313
-0.03049563167647008
-0.027153378399931524
-0.017895711550573123
-0.006958061408453493
0.01710558260132968
0.06110636521911816
-0.006873234657120506
0.02846351812006733
0.01470854966104516
0.0033310603531575616
-0.00730032633151405
-0.010947189466779689
0.009117216690307604
0.09070433035790611
-0.11971918607173433
-0.07513220076611597
0.0026951456041316214
-0.020944572671226125
-0.0004823962561900378
-0.02366037919843253
-0.009154516303350981
0.021550877128721977
-0.0015880538161875026
-0.027396056556044896
0.027462098328267643
-0.012514208892602888
0.005799498233509485
0.008520331601616414
0.021607653805945364
0.0770836735671579
0.0419791021422599
-0.01815372514766844
-0.004331310860542274
0.0035729257410297456
-0.0233721555552955
-0.0052485058321449585
-0.01747770711828065
0.012661953039464558
-0.015773048035499674
0.047031703416727556
0.02437673260471476
-0.026911710375584118
-0.05873721733864884
0.01421841697161074
0.003462759018333699
-0.002314646285446319
-0.14881534382661551
-0.07074079194416132
-0.007446233229894476
0.03512589141724753
0.08620895482902488
-0.008573286424715613
0.007416033162092222
-0.0027541005232965244
-0.00854680519001106
-0.001970391792181086
-0.005482212979921858
0.01008117160975706
0.01708943061454424
0.052431159816431226
0.05671737777521067
-0.03331557862107778
-0.011683313984960843
-0.03201164805165279
0.019337780397531097
-0.024369749349807943
-0.026939643857202548
-0.017152316068264846
-0.029745044551080443
0.1554172723985691
0.12734412707675244
-0.04207186421972733
-0.0276390011134585
-0.024480187378949102
-0.01582488718952446
-0.028402042179997544
0.005885854287514381
0.01913472399533258
0.009453492131431963
0.01011574199856091
-0.0024457609246908204
0.038178455236961
0.06414589602385022
-0.02649785400396728
-0.049243113410161965
0.004381870247471942
0.020731426908380667
0.01730284710162666
0.0011161332167867154
-0.029792519805586094
-0.010817326407669239
-0.001484314672981606
-0.0094514084505168
-0.004161291519431368
0.034051764784198434
-0.04379282365536779
-0.017524104739678047
0.0030834948100263004
0.009399120177741332
-0.025089887851033246
-0.020052704042313418
-0.01182751366916808
0.049363239746914124
-0.050458788637443165
-0.0830058480381383
-0.0023726207960797943
0.0029514447996852656
-0.0013923212310628541
-0.004207429489356499
-0.014117894883919931
-0.05103651241518785
-0.043784059001897066
0.007700314236226751
0.015215833266000598
0.008874166604908204
0.036707596179503706
0.023766162410996685
-0.006109096436399879
0.006874391654049044
0.02376936139853159
0.008807060768268912
0.04225931008026954
0.03659674822998349
-0.03980971814115094
0.008489309127165442
-0.014907523474289527
0.0036273615588985216
-0.00950031321201404
0.006505075510870586
0.0008752842998953833
-0.04245577667187603
0.008995302383259362
0.018786587580010984
-0.004140187255523901
0.020259032753254115
0.0035136740602366603
-0.028573858528858805
0.06041872547207933
0.13656770060055295
0.02619296602412336
-0.025883602951170603
-0.029040659205288564
-0.01790944042773766
-0.041666807256954236
0.029733533088207614
0.0029363204019361116
-0.014412744245738393
-0.01625898523898961
-0.002093436420735116
-0.0096024282859581
0.0008278373111575489
-0.04101832988554547
-0.011407295057929905
-0.02767221517133708
0.0010930164962170814
-0.028434042307752785
-0.004669595118911132
-0.028909382983346464
-0.03437992430781476
-0.010186398120209406
0.009449238711911886
0.00024041703195474003
-0.016908012883904602
-0.04076902027556268
0.04518079728800847
0.0666684404428226
-0.005308505423425392
0.0026697745333493913
-0.039010100832846575
-0.03119619849508422
-0.014788174848382534
0.03305581987041206
0.13005816008781595
0.01954609485655244
-0.02301298160606383
-0.010752302420741044
0.12214927725316999
0.043681717879120806
-0.07689455223154318
-0.04513330291096401
-0.030678459759733042
-0.05631138570890051
-0.010828731588201638
0.01175615254369644
0.01736176654638606
-0.006512700666555411
0.011050221845724273
-0.002923747550755094
0.03874864454619427
0.028675479738240917
0.005550352348457143
0.039506035381173185
-0.032816652445021
-0.0318699980442051
0.006892813366190399
-0.027356757546501728
-0.024569038389934995
0.015845708310967113
-0.02364460177080642
-0.024891312279941364
0.04543957301393601
0.09101218266834803
0.029266892707427508
-0.049986124167094664
0.02800033564623421
-0.0018656305689804225
-0.018076293500731415
-0.014156673655403922
0.05294271045118447
0.044311306165943865
-0.04054405890861101
-0.002038164667175759
-0.03292143439637344
0.002049081624696507
0.029108332974280397
-0.011618280906635997
-0.006752333793861377
-0.00871820343916905
-0.019134466733051882
0.029361231940193754
-0.014693363402247708
0.014590705358781418
-0.03512345521052847
0.006435526931218924
0.03074996290975652
-0.04645587456858378
-0.010781580139997785
-0.02371827097160382
-0.01662608210611773
-0.014249798641198056
0.04147944797695748
0.055626469076636736
0.012639879803068674
0.03408152428486015
-0.060838536100160455
-0.007700096596774288
0.01992914613945211
-0.013916715209318418
-0.045109707188142376
0.009476812284955163
0.0065430748348771495
-0.01446777857222604
0.013251561202423502
0.032874006639102595
-0.01137581830098205
-0.016462302256878742
-0.02136432364489693
0.014115896898733153
-0.004250647763331181
-0.07505691384760141
0.007372996656050024
-0.00547905743817018
-0.017692694596400507
-0.006469060929570373
0.048425262818270996
-0.007138108644991121
-0.013663958901578928
0.02312954522191696
0.03170887177909595
-0.11010537406533089
-0.10480361180525523
0.02755800725341368
0.04038962670685166
0.021461537725857797
-0.025782108126342317
0.04611995803203741
0.040995381118164476
-0.007314935697880588
0.04687671855768982
0.024167749843133097
-0.034304251916049903
-0.011095404714976017
0.0021383423506308274
0.021919553552027925
-0.07355797831097675
-0.04329243809842166
0.02182267365665654
0.020733561707147827
0.05601837817099101
0.022445341986048025
-0.01301396294236869
0.009532419039045935
0.01814382889413691
0.006660077210885918
-0.065592127335219
0.020195728024586673
-0.0007094505475095535
0.0013740895412105384
-0.013102078951795654
0.02722013608516379
0.08550221106675154
-0.02576244260983678
0.0031789983532294714
0.058025930070907845
0.03015714175063474
-0.027858453140265447
-0.04787103896442623
-0.017816139627449056
-0.03498073461756354
-0.026646039852948354
0.0314959262919073
0.09143828301248541
0.01785729152997511
0.11684153339474049
-0.006980669362966024
-0.0016860136813175227
-0.0340598510836262
-0.19765083734140446
-0.02749591483962558
0.016844887009832266
0.011775863250402141
-0.038142954027896046
0.025420283702838664
0.0019928643828063847
0.03937349729587171
-0.02655983235453789
0.009624458995666363
0.002469435214242106
0.031837137641662676
-0.026333569802482384
-0.01813221831053032
-0.024723158445298134
0.00025571904210472824
-0.007109784550996858
-0.01750685043670436
-0.005151486514096112
-0.005983201044105745
-0.03776639459000006
0.003324129306444573
-0.07980561563472491
-0.005764665968425952
0.0976484057374544
0.04042550502673876
-0.012929924309693915
0.02304152445653835
-0.011506900339716486
-0.011366462756388567
0.013888711456798602
-0.005258825301899428
-0.005374074933135833
0.005321300440859344
-0.020851551477681207
0.07323363763970062
0.1461369677023598
0.11733820049183646
-0.08331062095641605
-0.08413056439043938
0.04028310838719498
-0.01767181046241034
-0.023195267448138487
-0.038967925483742366
-0.012755593077663855
0.04119145553572384
-0.015839346014880143
0.0003272667061382441
0.002726668005310041
0.04485328934153891
0.018757135097130218
-0.048781510267228025
-0.057491305506036636
-0.09133999194842397
-0.002024662373352168
-0.03371094944149498
-0.005241560348459166
0.010770952083517695
-0.00792870568787904
0.0027656639051567037
-0.01227199000433997
-0.017951067149459248
-0.014839178032747424
0.018776652749598454
0.02585182747216716
0.03196598190271978
0.1652904743059862
-0.013602451755307023
-0.025654460715266177
-0.04128018943195131
0.04126837622938356
0.026699868112669407
-0.013379031502668262
-0.023587480011982676
-0.0143558004312107
-0.017106726493215988
-0.020216987498065053
0.026053836638860108
0.014194853803083322
0.0018625972245377652
-0.05085329797524857
0.05229507105960287
0.06469332378197701
-0.047586154212237
0.010596250168546205
-0.012077306991365581
0.007841295227731885
-0.0055785114035498615
-0.008869491036138466
-0.002221227222735797
0.03338438635747652
0.015688850206870813
0.042246152347686666
0.018602700913552456
-0.01041651399748457
-0.07663816833652538
-0.02543344277312751
0.007318756186514622
-0.01645835242212486
-0.03859885670308383
0.0030726334618706055
0.0208519293404293
0.012410479910300868
0.04893246371073234
0.06724756155496911
-0.011765361562988979
0.012966524675304562
-0.06423257335652122
-0.15799863302243258
-0.00413745439645862
0.02279212411082518
0.0058124972481974025
0.021332051570743985
-0.01710417045750062
-0.06079791291608077
-0.06720782142382896
0.03840038249290205
-0.011029146104820862
-0.027911863705239126
-0.026637588683086192
-0.027100828128948904
-0.07709335061318404
0.0636330954171336
0.12121270788580678
0.03598594774283014
0.028809553864719863
-0.04485518166114343
-0.012748077960714652
0.02632630477838704
0.022535549568895603
-0.030589050894203197
0.016031608071927297
0.0789535129431622
0.12864656958465956
-0.046947954752308486
-0.01639061465293507
0.013921601406778217
-0.039879260673368305
-0.0291262997894507
0.037816226221827016
-0.01699476390908527
0.00464208500658182
0.0006511060580669371
0.08975411785828889
-0.012040491472185486
-0.044626740374258594
0.01614661805507925
0.008517122418348214
-0.07613677669590298
0.00037315570473768543
-0.02291252431738073
-0.07050173221730079
-0.0036541865348374437
0.00042727083072317286
-0.041439451421935156
0.014951607323499042
-0.008480331652721941
0.1257632771086388
0.03416206418827752
-0.04170236111466731
-0.0031667308233285013
-0.007045850577768986
0.011527587505024535
0.06424898961212906
0.00042682019110377875
-0.031079775660070464
-0.04057939103705504
0.030022129327384885
-0.0047681498568825295
-0.006745915104976173
0.013987574287737989
-0.002514223582600308
-0.00694313089924555
0.02610919062676024
0.01744233896310191
-0.0005120045516327528
0.010724222156469367
0.0003939011216832082
-0.032128641201709406
-0.0064742807659206696
-0.020927563662763556
0.008903405291465738
-0.028391334662682503
0.009272854537308976
0.013911282213600336
-0.01368615468170942
-0.008631580934786576
-0.010112216415332522
-0.01536966331552
0.03117667224294405
0.034359135751049916
-0.024301943300077993
-0.027036651319218754
-0.0260363162722273
-0.010000995112978016
-0.04192326905762441
-0.020291883565525432
0.014881645375779497
-0.018034614107312948
-0.027076306342242912
-0.05120603202312921
0.08644315356530413
0.14753678227342773
-0.021054631983840603
-0.011671284018163749
0.021968427256455036
0.04627789828074214
-0.05344483991780875
-0.013011669326529885
0.011153632782826942
-0.014404099445661336
0.013690152553597944
0.024764528106975967
-0.1372785246711241
-0.015150340890993931
-0.02364003142830942
-0.025558609781354685
0.08489938457013328
-0.0630748050533479
-0.00829591003479
0.00692767349041058
0.042732517187234434
0.011499708822305745
-0.00494203192215624
0.04492826422227103
0.047948581210935995
-0.020716295739923143
0.015041173939322871
0.03134328326657921
-0.02024060764589932
-0.00861095255375167
0.018122329312328347
-0.0338462701184836
-0.003027482510283111
-0.03466528331895111
0.02852998808650191
0.04123171673538253
0.03333856139640691
0.022401883158358137
0.006867699457759618
0.023438279245041663
0.014088549795061231
0.04550581367974059
-0.03775763826869642
-0.10554810268861275
-0.006091475588538024
0.1031705657480996
0.02936347096223166
-0.001547887677646722
-0.014284559819352777
-0.038080670460035104
0.0006696878700507402
-0.035665439743826806
-0.0159516540492245
-0.03856916356790462
0.09374795158492118
0.03599022988401752
-0.03959598861303046
-0.00566247482854484
-0.03396183717631958
-0.01996045199062226
0.024884177908702114
0.03963537410203938
-0.011734504677024646
-0.008518743458690385
-0.006956288370493658
0.060122036446207
-0.06769339834171632
-0.0841779667737524
0.0015787306527869666
-0.04435438201047997
-0.024874638195265517
-0.027122704321344858
-0.009078765841139796
-0.01425098748207673
-0.03167972542792733
-0.010972629710274002
-0.00301644571077392
-0.008448263932178754
0.07322022158704075
0.09083905200895917
0.04713878285681432
-0.014698894939624603
-0.05290110314925808
0.013702629706650489
-0.004586745695492294
0.03806201600075447
-0.003242307090797208
-0.020005007200203203
-0.027146970609198767
0.05600375617205727
0.01943423213437541
-0.013403583119483888
-0.022375705473570248
-0.014443606125958318
0.0006750508407825124
0.005903770158757652
-0.009365878517179257
-0.03054078540594288
-0.014012187673701982
0.03311459226644314
0.11797952949480517
-0.008428501387935754
-0.01210081607487357
-0.014067133474930545
-0.023150675571499697
-0.005658025511377306
0.005562967434645482
0.045515703335635635
0.027282320055909807
-0.016555535044091237
-0.029895363215188483
-0.01304956746653856
-0.004003960807727163
-0.01766165263562016
0.022880334245415985
0.03491247333521988
0.005527675884264683
-0.022730169534018446
-0.024917280393057344
-0.0226876373912428
0.031910082786987905
-0.048204347940426516
-0.045695800432055574
-0.004691867101378367
0.07905264370538569
0.00446968919050931
-0.02532680493964625
0.02476871672570313
-0.0009337700445391936
-0.0011638494061724312
0.02166994406517416
-0.02391621778888608
0.012891400550303123
0.0060138241898612
-0.037846754812927486
0.036221135478421616
0.03450245005626333
-0.03701461146316438
-0.007679456828884819
-0.0017759949232085135
-0.039175015645359024
-0.043005412782602025
-0.055660017530675406
-0.01307591540466224
-0.021822707317893264
-0.007468707935198385
-0.006799271842317049
0.006365771940832887
-0.03869328924447463
-0.02690608350418657
-0.0018152919255755864
0.179515559842246
0.07328850152780811
0.016018046627894685
-0.023446350190091052
-0.004161335572653756
0.03370869455519406
-0.04589533948980217
-0.03710943635753915
-0.037206180549598525
0.041300974606415124
0.05383768606904221
-0.022874199671924837
0.02725792460856214
0.006988255152813603
0.009057321933427908
-0.04709846800426088
-0.038512245835753196
-0.006759750532272641
-0.004905664062109671
0.04431178196764056
0.021760505944104946
0.056922710342619094
0.006234689904349486
0.012106469194948418
-0.019813835799656475
-0.006062185035089375
0.04617897486037747
-0.00013211793043433156
0.0125278189018246
0.014138026690388987
-0.030596637950328916
-0.05223862110668141
-0.06347519616008748
-0.008824561142975262
-0.024171854072861043
0.004332737867771616
0.020684319242472014
0.012043714728427015
-0.0211998038505529
-0.031503020615547155
-0.05009900638542708
-0.03362555062845256
-0.0038735524711749165
0.02985751487509042
-0.0036783360484328193
-0.0002303644048890401
0.0021388566740871097
-0.012720531502796848
0.08348085789842156
0.07066970367583073
-0.051518122783815484
0.0195294816895582
-0.018933000849942445
-0.015867613638640504
-0.04056236870866178
0.1164761234656833
0.09740940099894155
-0.03879836891609552
-0.00468727490673935
0.004893766350691425
0.024291215095759072
-0.024409625802190568
-0.009028093348002086
-0.011574853051999914
-0.0013429398323041276
-0.018084757969143862
-0.001993410715984457
-0.023028871499508455
-0.0018599122965001198
0.0001713280215608281
-0.0047745437958439385
-0.013928187662509472
0.014973063209931721
0.05442324404136696
-0.024805594881142024
-0.013218861773719373
0.005972932011532835
-0.020537981463207244
0.03279561112410349
-0.00981232033292108
-0.17173307495480197
-0.025426019139945955
0.026617273330981104
-0.008419216308072085
0.05201565171780616
-0.02977284825541393
-0.03319114002150909
0.0457493765243902
-0.0013019337146141553
0.037650218520573916
0.020807845912984128
0.05412580441294682
0.062099461866888944
-0.007476141451284776
-0.020725915711271067
-0.004556514637123126
-0.025402576234488643
0.002385654054284318
-0.01705519873884417
0.0008820110918244074
0.10211637472889223
0.03744168199703859
0.017747865489515333
-0.0014976996596698074
0.0235874061897485
-0.027356636963055472
-0.032085282529080675
-0.03396820593223684
-0.034267698478007785
-0.020406160391212652
-0.004644921698638968
0.03270567975632702
0.029929210317027923
-0.028412637231530213
-0.039116258794379924
0.017330517458887983
-0.040504327021787565
-0.020322365766970944
0.018993692150490946
0.020032472612105626
0.021277758300104376
-0.0029379374533312686
0.02836542060620619
-0.020406524818638715
-0.02125203624149557
0.008226408708683889
0.0028746885071421254
0.0013710585623385773
0.012454978507961739
-0.05886413184479804
-0.11524081618031312
0.03032200373002753
0.002999202252842474
0.008269178657352617
0.011126983905364545
0.034109292516114234
0.00901759750339519
0.013146899056511447
0.01943670932126507
0.0067452014515054495
-0.028735710917695476
0.01631429414319606
-0.0014053419675878894
0.03910538803718898
-0.006408913473854819
-0.07789623133326767
-0.010561847273468197
-0.018411077458833507
-0.06755722295638249
-0.02255622880578329
-0.004768764243796113
0.0038779409941111995
-0.021639500935866453
-0.004730031077630121
0.023865814948469653
0.023056654934026165
0.0004886778873827033
-0.03232877068614654
0.028152601835778335
0.2124210778436419
0.023376637288799695
-0.0039601887435469964
0.018046978829267802
-0.0016189251393624632
0.0020583401534861497
0.0173883243936969
-0.02925952868317605
0.013459651194027783
0.012785593114421026
-0.021471881235927394
-0.03209077579627656
0.02493596687320953
-0.02445997273315618
0.033648803148242014
0.04163458662760115
0.0004920222467706865
0.022710548723768507
-0.06176762780224317
-0.23309695623870103
0.11296172167143359
0.008981083236421843
-0.12638056195518835
-0.0039500359189891315
0.02988948981498823
0.0036503752920343463
-0.005083104025499918
-0.01248401388617019
-0.00633237598545311
-0.040253302005232146
0.12662100888546693
0.08503295362488424
-0.03261670715911718
-0.0026141450968991554
-0.019508245445618414
-0.03967364637996057
0.08723238273727751
0.1042162762454317
-0.03212879697364391
0.012145530812439099
-0.04146744224007041
-0.022374571606478134
-0.07874818398290735
-0.06035001391137657
-0.018560929315596057
-0.014479817596592958
0.014761166428046917
0.1430841845886813
0.005469281100345597
-0.07927770823374714
-0.059014835212400925
0.03858433583503412
-0.009143656038837029
-0.054238884549722755
-0.02194646040605911
-0.0371607431478473
0.08188832997929547
0.17502786928209776
-0.01895451672234704
-0.024896018444370907
0.03911429683661513
0.06407853635713735
-0.04669250944300985
-0.022077475348913717
-0.00422561370776471
-0.015037206385258793
0.007796322443498289
0.028914217794312053
-0.009139575737706762
0.0024026660787352275
-0.03006048814552606
-0.0053477905442124675
0.0246328514678975
-0.015498975319120794
-0.023934773684866618
0.03403088535165852
0.019764286980422225
0.018983815743376133
-0.014126346671259213
0.0046002732813528605
-0.006538132830062109
-0.02264132822005476
-0.028897481571801567
-0.014524588331886166
0.01270388291429128
-0.025694049682635375
-0.02024485735698983
0.009004639943122443
0.0005796035845024224
0.006765027418439957
-0.022786237639784147
-0.03587144613885799
0.016877292508379695
-0.008494512295709751
-0.0015827167805049114
-0.013107418073706946
-0.016318797503029232
-0.016196786936179694
-0.0003485544528092753
0.02089974136994611
-0.004061516308409902
0.048433560933639486
0.0719758592658006
0.03281916932835547
-0.005895227643258269
-0.0242101968831265
-0.011074366576183558
0.008643526826790095
-0.014915641457143958
0.04819176860903469
0.05195397246893293
0.0033452571730260548
-0.0033624549387354986
-0.009093899897322158
-0.004546269352704555
0.009638417817697843
0.0030392760673681367
-0.07092217860069196
-0.10313358400290647
-0.033787636745056325
-0.024984410821747145
0.021094740917204466
-0.008061278657568022
0.001167903259084843
-0.029423439138441705
0.028177118949887486
-0.010217776922945926
-0.005826899199053306
-0.002563971786005718
0.013778625591386984
0.03359703567914381
-0.0036473489547214845
-0.02269423551071978
0.048584524732180355
0.10295827773501975
0.019299359108389733
-0.04406170881647373
-0.05067897746891355
-0.03363132001842584
-0.032541770309066693
-0.03405711945828638
-0.02030504645354228
-0.01180009581950659
0.03628757490651133
0.005270788122090466
-0.06804279426456492
-0.1037984423556328
0.017863212114079506
0.1168567579787534
0.17619262300683963
0.14052616304431578
-0.00709231381419935
-0.016856579184015896
0.013337559144782605
0.008965748424969144
-0.045944158028791246
-0.003457121817306438
0.007915386934060586
-0.002678008459381233
-0.017174872858941
-0.0006988906386573039
-0.012211435093222669
-0.03573566002465149
-0.0014040672944303288
-0.012492746378196992
-0.0129570592463503
0.044788551943603296
0.03505112584622452
0.028238307560963974
-0.013640457320667121
0.003702667425482836
-0.05636463143995987
-0.0507943718049323
-0.01670738696807755
-0.051999903236586834
-0.04013273924716647
0.03001807998817539
0.009585199077410815
0.0025169068810806444
-0.04684252630839141
-0.032911341785099274
0.00166623829160321
-0.010993521750910847
-0.032630879715483924
0.015239803732706569
-0.03413338422630167
0.1367998498538535
0.06676918448582178
-0.02676195618921856
-0.004095535568626335
-0.024465016094728065
-0.03659654335976595
-0.028092329142179212
-0.01570059190977998
-0.02159386243153155
0.06360607194248935
0.046555335518535274
0.009827382159742968
0.03751075051239934
0.011065174285932126
0.022671316912094366
0.046206246573064554
-0.02145235370318453
-0.025985771448667472
0.016846624451313658
-0.09409525472930935
0.03972347847709695
0.06360583860595587
0.0006558348777051533
-0.004897504398762079
0.006013261391256411
-0.0020085573818303245
0.04541025332077051
0.051845372242207664
0.04062401597559703
-0.14651236818989835
-0.0797482593847581
0.020868454724849356
-0.027105854841545395
-0.013816999224542973
-0.017832545612449693
-0.04689525274687436
-0.021027018352670533
-0.0058166443351165675
-0.008839235250758932
0.04665216505838503
0.0005075324174426793
0.010581423759942194
-0.0004702500715657797
0.0027639504959562425
0.0022985152077301084
0.03150828534249925
-0.0019377122819335176
0.003428104439494768
0.014829349542959929
0.006127053088002692
0.011329635062789379
0.10500515753522123
0.08763669854910389
0.0054103499904611186
-0.015936109554130867
0.0013843967061720741
-0.07675453238998507
-0.05354788929154893
-0.010298332039893063
-0.051035246506587764
