0
-0.010735307206463634
-0.004604747251492246
0.019732195789412828
-0.0018771069440920878
0.0028283423698830233
-0.008512641179334266
0.029318564929527866
0.03261472238125968
0.06448986768601953
-0.002837443120127682
0.03503260585263242
0.006988268852386559
-0.04155778144509175
0.015833635880690478
0.0039794731274467796
0.004787817543853773
-0.01353245250079286
-0.0029649779975605287
-0.04006143651728393
-0.00642105730740433
0.016440999741433135
-0.0032212775886211725
-0.0013081006921895771
0.027296977672225282
0.009209822236209579
-0.026960843792849784
-0.005674922307287429
0.0036300722975224162
0.016025743854190335
0.03645683292723517
0.005659178574103812
-0.02581448381009528
-0.03836487587429716
0.006384888534496752
-0.009692597158587923
-0.024053481829365193
-0.021866995490779813
-0.002423982026861233
0.019838806682330415
0.02594149777860809
-0.00147281105360195
0.006978579122974886
-0.041536033442946756
-0.06143349851690838
-0.007440271689271756
0.009755243012188781
0.03068150129389181
-0.08695805103380108
-0.05879785154379335
-0.0017071735411906277
0.01974774042682108
0.007451422040754826
0.01257978319254909
-0.029798604038230328
0.01068126396886258
0.023601587093696547
0.013057218252750656
-0.00567820436546439
-0.012803245175264297
-0.010678265344974845
-0.013388175727429112
-0.017824360557292192
-0.022626917762001965
0.002079170407877171
0.005860036472904703
0.006913187619271679
-0.025462847070386055
-0.018962810059309696
-0.03658594348346499
0.04023649275853217
0.010853946178528976
0.2829552400506557
0.2051324729354125
-0.020230585182116404
-0.001159175230452169
-0.032641579314493456
-0.06726781473332832
-0.012208375767162211
0.0192103148761333
-0.015608456477398622
-0.03612458475659399
0.002729259767582114
-0.03626434691033426
-0.06849036291204834
-0.047968999133542696
-0.08674868002534232
0.014004076417164078
-0.002157380317614833
0.006870650466670732
-0.02625404932523219
0.04773894632337021
0.0646162457569295
0.008553848815166607
0.010407418122529745
-0.06086978658000951
-0.013684388419657871
-0.022399080192293103
0.033594397300233836
0.024912214260221447
0.0008744626330192324
0.010831104770097494
0.022043853866176973
0.16108246723765285
0.06447148454790133
-0.038115499055886216
0.017937444322309308
-0.03201326234584137
0.023165178001115106
-0.09794383734401482
-0.14087964702568795
0.03637174043122671
-0.01835129254521528
-0.025816462658438927
0.0039006970893796186
-0.01572710699451407
0.001157074141325858
0.019560458501802613
-0.03032977699516566
-0.002376270010691284
0.002302755554656128
-0.019718203351539194
-0.011088003270642369
0.021940962004375234
0.01295401808181776
-0.003616659526423688
0.03598500501168934
0.1247750563665526
-0.0372400099931228
0.002421099840526888
0.054746672321754807
-0.1152434275737842
-0.01363377222984396
-0.009373215759739957
-0.007634973730626288
0.005965491566503699
0.0036512554133961827
0.03122849077434952
0.03143219800941978
0.03821283569854742
-0.05139104493450087
-0.004819566366531386
-0.01393720922732984
0.01870537867861788
-0.06158289314661165
-0.007023646672114879
0.003838294755552917
-0.009272063055763545
0.031264900118018114
0.024724209481994698
-0.00695611126076647
-0.01647135731369207
-0.04964629786652373
0.01673362949203314
-0.005590503197942741
0.031089699328673896
-0.0073478043042543425
-0.018053036048798394
-0.024221890775197808
0.04578552130694602
-0.021067598651592908
-0.08370609455825008
-0.014107240235885677
-0.011059980671478058
-0.0065760182499911895
0.05747700244150339
0.136846594320201
0.0114407604168786
0.028756910390897367
0.02300382803666261
-0.015856945774011012
-0.001607845536113332
-0.010371038833679357
-0.018561216391340715
0.007312412925117639
0.0006862682287428999
0.0035401882339543304
0.048608404704845655
-0.0008249368654442216
0.04899355300687982
-0.02562568285646336
0.013088446538740887
0.013785983289317289
-0.06198886524666487
-0.003614909318212481
-0.020893065315136763
-0.05148866005965293
-0.027603397607136877
0.005916745169513193
-0.004734960842784698
-0.023627308231487596
-0.014555574022176604
-0.040629650547870315
0.021025069824796117
-0.02021932317153446
-0.035597413362789654
-0.001932479875648482
-0.028169124793469065
-0.011392052821029595
0.04009304237713183
-0.014209849612338092
0.05979381020393716
0.01949559644927862
-0.01552871424814227
0.011235298047384039
-0.001803299104579623
0.04074906044524813
0.0068319273614704835
0.015039390779879725
-0.01890987107176754
-0.001523216575332739
0.02094676352746696
-0.021291918124696305
0.0016217047279876576
-0.02883112067964113
-0.028424481459414355
0.0011536719333909832
-0.013339254075074084
0.025729515599453467
0.053433947584859406
-0.017636553065443518
0.012952721984261952
-0.03581572773970448
0.038667846231720274
0.14814095513887487
-0.003351493144992418
-0.025860054422077085
0.03497593176414296
0.002062868338253502
-0.012813083346002596
-0.012261543944179967
0.011714718101671186
-0.045083476756258734
-0.17609127312358946
0.0017505947121733679
0.006991006416592041
-0.00562050404787229
0.024521731574287827
0.0021116625544108044
0.012707319101773971
-0.01690413080066934
0.025889420522508616
-0.01719186345124381
0.01871651656770464
-0.002618982461869734
-0.021899683706618683
0.07890280227556809
0.03838438942780384
0.023357050939373847
-0.005934308583271277
0.00277629311633381
0.031031909740991705
0.04281083701335722
0.008534782529317492
-0.029992498668301643
-0.03699096292942311
-0.02354591774231131
0.003413998346154778
-0.014854816361029699
0.015250118772312181
-0.01130180053052892
0.047853531600577065
-0.0706855792003648
-0.10868416784491333
0.006289735169523807
-0.0036161140697073906
-0.009255083334666504
0.028901658204068873
0.04502745414328682
-0.014438838663602608
-0.019074114677679357
-0.003532534067238273
0.047846778156302415
0.011582938715419664
-0.00018567658937135528
0.02706336422348192
-0.024637825935080872
-0.03646612849753395
-0.05620752830738299
0.04430626453144378
-0.011244552812544668
-0.09259291024089021
0.05425086947353147
0.006608799437509286
-0.050541508345221524
0.027688541532036048
-0.0223546565183952
0.011561428458561708
-0.02843469377718941
0.0050545013026605905
-0.006085050241597303
-0.02186378059141455
0.015841710348129374
0.03722676091028582
0.021397150106799975
0.04035348834503113
0.017770377067517492
-0.0007411354148404832
0.043110528673859526
0.019019718241966386
0.008021332759830186
0.04479630372181621
0.010449674070086009
-0.01592635933022725
0.03810443303389507
-0.012527457810298669
-0.04483191876126802
-0.04412088361024492
0.0166253504054233
-0.021414652786282778
-0.009242168498912177
0.047285276096030456
-0.015472516575396944
-0.029760232669864543
-0.054118506186543444
0.011260741815458991
-0.005591906544749555
-0.019461623030539176
-0.03203167325952807
-0.040279529902955385
0.017746529146348715
0.0169423666575548
0.03569576578077841
0.022441980882271093
-0.025383635934802133
0.023972902463861318
-0.023559169520898652
-0.011188740565875543
0.010556909908180243
0.0419000867202882
0.008564959041288237
-0.012739007480086304
0.007753580648456088
0.03719874213559471
0.015915203265582396
-0.007872802767417707
-0.04122289170331979
-0.01182729434749082
0.07607833191061165
0.03926526044463277
0.01655786479063848
-0.020370540933430614
0.004244830035342445
-0.020773097432317093
-0.048703784555716625
-0.04339848551924419
-0.03910494415657071
0.005358886169957842
-0.0032914645074947862
0.00370519361635799
0.0028911573213132933
-0.021726403052344145
-0.01625822650032939
-0.006706193457578497
0.026404199851988223
0.013938813909832563
0.0006517677376804502
-0.013266922633605297
0.001980970561611213
0.04648408278800535
0.0037386736279332077
0.013200793978610797
0.049393404707478474
0.04222794716714014
0.0008032814480257261
0.042217684967500925
-0.03454067637534111
-0.045499284217443856
0.019389273260137146
0.015081004498613559
-0.0195168983807377
-0.017310034070980886
-0.01905473648148486
0.05057134559563525
-0.016869894506822834
-0.019357785651012798
0.023795971042573222
0.002789232528773279
0.06307380792903992
-0.021864012487357976
-0.11400980112977183
0.05362206208925046
-0.007388978867169407
0.01374520781161832
-0.009044216564789364
-0.036312061970696835
-0.02127029841343382
-0.013107163809514526
-0.007367173214309066
0.03633772258979816
-0.005732634473206235
0.008606768124187146
0.057078177600205095
0.03649914204166463
0.00043205818801148694
-0.040455657912248984
-0.012023491712297727
0.043231460809273384
-0.005450834840464272
-0.00862632267037348
0.0071798316291156825
0.009195934715246677
0.00037893837808150626
0.01732019930057559
-0.036570300475035164
0.0014050124289618382
-0.05424498152830876
-0.16025226649510624
-0.04002588307490513
0.007367202858760845
-0.0213280937108327
0.022916180516152775
-0.016420234297083783
-0.016764317903031747
-0.0024709647765136533
-0.007894853044202687
-0.022556679192781957
0.07061977867050928
-0.013777702588668958
0.0911887948751894
0.11141258565206594
-0.059876902237801476
0.014589838101371785
0.10760708963225944
-0.017443986360796873
-0.007591607144316612
-0.05637339706517583
-0.03846068929213577
0.014066616015137536
-0.04581374145084465
0.013981147273233569
0.02928491349247418
-0.03578790941424905
-0.03617659038990563
-0.023902555509308636
-0.043945708288513706
-0.018408546719130732
-0.017174338743592015
-0.06949127499440363
0.1307892389741814
0.10665106783811117
-0.036141339503413764
0.02845353820708726
-0.03348612950393491
0.05069916275618379
0.07456987194533812
-0.04539867437711756
-0.006512072925603147
-0.026046676220614812
-0.04828761167293019
-0.017988329314268893
0.13067534868623656
0.0508069707419654
0.005862838765616981
0.022113593533803523
-0.07766551820473065
0.015831842916811258
0.004494477017149193
-0.03211871479846468
0.016130262664682867
0.04045485284954272
0.00010600649679025807
0.023211653779697253
-0.02392226614221658
0.015046436053652234
-0.053021830980279044
0.07797134616383018
-0.010173907466694533
-0.01139324806772895
-0.010968065348181736
-0.042327424927740685
-0.002595587256541258
-0.005672027467912446
-0.038309006044373047
0.02420756438648082
0.041745305050063346
0.018559662379131137
-0.1553411931000489
-0.0050470000143629755
-0.005552824620573374
-0.017969439299556435
-0.024720854071072874
-0.04874892827957545
0.008424847254671288
-0.023752846003564344
-0.10205593460506476
0.0034786045011926973
-0.023015656368871824
0.04275326497471002
0.023665698017596503
0.011584694646699475
0.11241120425965775
-0.03117712398644793
0.029843341850586794
0.11166996884220763
0.04281456469841655
-0.044889291300942186
0.0175120190383826
0.045431232877299166
-0.010564750570410623
0.009031315040362736
0.025644168182606657
-0.027399290489513103
-0.03549196781507015
0.02578671146890161
0.0446162616052558
-0.012018125917799589
-0.04578418619748867
0.02720629296430777
0.02628018512462429
-0.012745323694744456
-0.003193687396190953
0.008928469177208182
0.011464602414654008
-0.03277296442656985
-0.02133780109729994
0.0059350189501409445
0.023537988370343786
-7.596052907426192e-05
-0.017618809253135657
-0.03893520058784213
-0.05244323064898724
0.00821773402495846
0.07005210883338785
0.08215642642994501
0.040785813867498306
-0.02322472438143917
-0.004343621871440578
-0.10704969601182918
-0.04737475469176733
0.036717305538739586
0.013796713180665983
0.01672591032049389
0.023368601014281842
0.01864031442339777
-0.0217342500515569
-0.006650363672110876
0.04993024682427736
0.0018640590236188635
0.007254511341177706
0.0029274351158725376
0.002179718405890203
-0.014550637409971203
-0.019230847962517728
-0.04733749365930789
-0.043422957834579126
-0.0053497522200032285
0.016885420934275922
-0.005956186333234625
-0.0016189604342783978
0.03786261339088404
-0.002840610764397953
0.00538420457559234
0.007657228969277047
-0.02713460358506899
0.011651547402179002
-0.03108329530065
0.01983279961898936
-0.040819705939902334
-0.09889485499880726
0.012395742632718655
-0.027965489884279562
0.005262628081800533
-0.03435516281789669
-0.015465484153688642
-0.004323721932416485
-0.004412445900299614
-0.026856378347109428
0.010957779814778851
0.011115707946727742
0.0395901994492151
-0.04255154601322063
0.12327056526573603
0.06147255870430984
-0.007390067583115812
-0.0057345769257174765
-0.023405467589199085
0.00788554424349702
0.036101784047378245
0.05757550746424594
0.031221340035678086
0.025170043039733907
0.004410072985665841
-0.041349869421617134
0.05682463484683397
-0.008075501233202617
-0.19446168911174688
-0.016914395002135936
0.02866462026596164
-0.018549287094532012
0.0005126354785307412
0.027123838967336483
0.02425375483241648
-0.027379771739204365
-0.025546594276055257
-0.013233351055249157
-0.026747880186699814
0.020042134613165098
-0.005892923382149907
0.023314063526123526
0.05453618899268693
0.03702421151339482
0.010134924069191817
0.08854063017249074
0.027311808326967512
-0.05609234066986915
-0.04471351412992237
0.005488551400524541
-0.007070666752324271
0.01141632939337604
-0.015939457399398938
-0.03055653472515371
-0.005762686891959249
0.021936325322012326
0.010079032156735742
-0.016640219581307437
-0.025178017504114813
-0.06056692931268677
-0.0037855610557381764
0.06521709448097682
0.005304927109629512
-0.04443947777277868
-0.008057682975554922
-0.0023084191244025797
-0.026038341029898764
0.0064448222209964
-0.03493995628338311
0.04556337978589666
0.02108588533155502
0.12186145071464256
0.08542963937700847
-0.02173719186918009
-0.1130600955333952
-0.058009643461663735
0.033577760847745185
-0.011844222428833297
0.017091994558165576
0.008641522630574067
0.015228936511301397
-0.023366274398567886
0.01627926023946939
-0.0060966793688939135
-0.004355492825272294
0.050246246781307465
0.008093279180318326
-0.04991861713117062
-0.003953594609107861
-0.03231972260136823
0.06238376747828555
0.04400256495177746
-0.004787790200627781
0.00025942368827536823
0.0025152682406581485
-0.0142447454055792
0.019489949269052027
0.028039584021559264
0.020439463275256666
-0.0064922824782837184
-0.018083119221770187
-0.10146939025165237
-0.03128839550856398
-0.012740604169420027
-0.042509168722702294
-0.02649387029895699
-0.023403741752839883
0.0017801885372525827
0.009859881711954703
0.013619162627474781
0.005139145595067465
0.01913939796746296
-0.0020778972784616413
0.008624044124685305
-0.003929660156156901
-0.014084104417498945
-0.03580501945371711
0.017759644054203844
0.052017469791926174
-0.05923587189431636
-0.01413363644184875
-0.005239305296532624
0.02325914477555856
0.026969456413169512
0.001828168319344601
0.012679822788734712
-0.0055175414860056645
-0.012584075461704949
0.05485600810377207
0.04454357213217699
0.012688342410638487
-0.019505217534701465
0.013800607929558138
0.019039071325052833
0.007933602502029196
-0.057455020588339366
-0.034263365612271536
0.05060620539475991
0.03269851598825652
0.026908398416162417
0.040087337298743364
-0.02092896854121241
-0.0029469359108523522
0.07633141466674401
0.011448979888160422
-0.02964386034387867
-0.056509223642823875
-0.006976187217247143
0.0895122635448831
0.005449552527255589
-0.015048382882308755
-0.04148082156020446
-0.001154417031183037
0.010142566050321902
0.007530979638982925
0.029375976003775523
-0.021392509728993942
0.006009758567814948
-0.04699759162372431
-0.1448047516159349
-0.00963737754838987
-0.012645357345756338
-0.00867603050076448
-0.037034027050281026
0.008133554371957476
-0.01242618781144456
-0.02320441992674195
0.0004264266960320291
0.022595505731711606
-0.004480466052688711
0.01973659855966384
-0.007075721314736311
-0.02045085914322871
-0.028151152121854345
-0.06537304309846854
0.0017773410184483052
0.06671981466673861
-0.011414715299467042
0.018471518727341877
0.0747073789073741
0.03836198712097256
0.04602986335641807
0.00811857321731889
-0.013750869289843457
-0.032245712189194
-0.041155263502116575
0.03981016861604601
0.028583379135307865
0.004810844297717853
-0.014253517025700171
-0.015927104410919886
-0.05953223176942396
-0.007915428168719815
0.004688021853958743
0.04361815929040282
0.039538611081101516
-0.03503112040442805
-0.09557152866919966
0.04528325694473052
0.15236595124884844
-0.029144645295249058
-0.009768565316131822
-0.015672382357155127
0.02827946670762141
0.0456962121796826
-0.010633696304256375
0.005435831366712477
-0.00797328233632408
-0.018071110916064906
-0.005781070876547861
-0.012659494442760063
-0.007682044239488442
-0.00391955200154072
0.04188712402479202
0.013245761800203882
0.014193565862043301
0.01479093486805431
6.909265226947623e-05
0.02109462074364068
-0.04419036425651552
-0.03944593640851011
-0.01878610473357958
0.021806816714491476
0.014254031042468794
0.007105959705632957
-0.0020384620562754747
0.015348965620699252
0.0038110693400435314
0.028904362905590033
-0.007921525769926758
0.008596140626374168
-0.015625038035242848
-0.0525590639652549
-0.06033217026673633
0.025668983006741957
-0.08131523269987699
-0.07620065348179424
0.024560821699842018
0.013276111557297127
0.027754403476410273
0.036860873549572515
0.003258188486486779
0.06886609850821558
-0.07017075501567774
-0.03306851261859441
0.1730402877299736
-0.004679706631005949
0.009310454754089264
-0.002299912688808187
0.03590127560523802
-0.00745092717266409
0.014666526241959061
-0.006442787072448413
0.019123237795182928
-0.018669815994652023
0.012626476608288376
-0.15965036156061874
-0.05795454082806949
0.03455028147214128
-0.0035771662540130737
-0.18665167134774227
-0.024466683654086156
0.031393395475156086
-0.053958162910162484
-0.00777572859110004
0.010592361507814145
0.025133489027307245
0.012796449252137004
-0.013085527733006563
0.09502384156315673
0.06914719245374837
0.03340295207252353
0.001759156973548529
0.018834803103983694
0.04814206950985433
-0.013229837144077279
0.011241246424932579
0.03771985484782847
0.03079320898180294
0.008278264391896219
-0.014691509936138521
-0.02800700598331537
-0.18366047026080679
0.006083561641392834
0.026156735496461872
-0.027711553029908673
-0.013028698089893367
-0.02305536732023001
-0.04539950827796888
-0.01233383674967591
-0.013688988293084499
0.03953455890516983
0.015072094644125266
-0.018083427352310215
-0.014458532670292195
0.16896835066339014
0.14049453421779862
-0.023624146978210296
0.02068596297694691
0.018948577725167236
-0.010094856688218808
-0.02138764590927727
-0.0006102441602315675
-0.0488833559676128
0.024495657195484997
-0.00611952858800826
0.04135185682729936
0.03219605605110941
-0.004057003103546778
-0.012038767696899082
0.010106590078329326
-0.003839429005009726
-0.00713417048238763
-0.005580008136786693
0.020713934248759558
0.07537160879168704
0.03297573212217341
-0.0049083826614842885
-0.01969053242568863
-0.006038422484273471
-0.03343674892013826
-0.0059689835831130125
-0.056152311094107565
-0.03508108526906048
0.02572754356886549
-0.010559113479694696
0.028647934212735263
-0.07266325958011086
-0.07657550001288332
-0.005585685978417405
-0.0006671493732966139
0.03596768305681453
0.0034310082837322193
0.004488319223783917
0.03935772097493344
-0.011107487778635246
-0.09422995587513763
-0.033686938229441576
-0.010670267983341869
0.0036325050966076054
-0.008496092606826279
0.03305586207082574
0.05126271108502771
0.009877534098683376
-0.005775528288954912
-0.04599687835338338
0.01935446234634125
-0.0389974972799357
-0.03130902448597605
0.012563279992617773
0.007831680765192582
0.012678112837020796
-0.0401186498095425
0.005375639103471022
0.0009146353686795829
0.016567182618525217
-0.0013301629475501574
0.005506472894575217
-0.0005249279775883684
-0.004162039490328069
0.06087782573402591
0.016994489294680063
-0.0477135634729011
-0.022254806566559725
-0.018476469128351564
-0.04649102664699744
0.03360249271781416
0.005292657151155154
0.0915960071343248
0.052328903111097023
-0.010059336257162071
0.0044070926148964224
-0.026011266833877545
0.039728791833466524
-0.018412159071062716
0.0019291780983195438
0.007374965845493417
0.03293175778240793
0.020202505923220863
-0.0024825400506212096
-0.014767637451693311
0.024168464661761143
0.023602461247716353
0.006457983937793937
0.013221989509009257
-0.021348426668662154
-0.04398476167025144
-0.011466521120713027
-0.009758984394891682
3.896233480781456e-05
-0.0033463663023183096
0.004714053725275922
-0.005985486930534289
0.012326458053755481
0.012101723083185984
0.007360115976851703
-0.09944454479230175
-0.11922146960644306
0.04817387031089183
-0.010324124048321243
0.08961853850828207
-0.014701012553025247
-0.021232870443766698
0.01615038934422817
-0.004496210224417506
-0.034155822219347355
-0.06697493920120959
0.0032679517622201267
0.0016001384927890046
-0.02233994817770102
-0.023154384460329858
0.005757755034572598
-0.0026961140779006606
0.0967812062363705
0.11892347063891986
-0.016035898589374147
-0.014514390954458913
0.003566777958352592
0.007411658132840408
-0.021159690000249604
-0.03200827421953166
0.04526689205806683
0.17091711602042078
-0.027546300489798822
-0.008535583303676044
0.005866804262827449
-0.0034670757987014206
-0.01178608169664052
-0.0195887282265752
-0.03307397804568532
-0.022966345537557435
-0.07690624499122033
0.021553088520748487
0.011558856249334759
-0.0136967284251417
-0.013731600002434207
-0.005052693144228718
0.0432844952146816
-0.00567354254452638
0.030564733589981814
0.06612055516959747
-0.03462778428293803
0.02126277794375379
0.027177228362415373
-0.18349750705186213
-0.04661188099284822
0.04270092024762325
-0.0015421895656312133
0.03254532399791144
0.04521560678126387
0.0527580796965827
-0.011415700219651525
-0.0031029256200288085
-0.015402143971637498
-0.027293809368845668
0.0036096252416040297
-0.017112734114059565
0.003364141926850065
0.051969314798491116
-0.0028397705721329774
-0.0056907722637932895
-0.008606897692539093
0.019813049219590713
-0.003120723393995562
-0.027529334284962778
0.0312600052459373
0.0013591676635720201
0.0034601703148642144
-0.007156951308493495
-0.0001240622243654932
-0.03589257147475225
0.016371088285046905
-0.00485401567929706
-0.02116733457492397
-0.0032144001103575405
0.006368428804998982
-0.010013077067536996
-0.0011983635618190976
-0.022181044433909478
-0.02519044651864822
0.038442716364239994
0.008556222895234979
0.009411160303460162
-0.0024358500171867445
-0.06588665664401616
-0.03651524272984788
0.052889649478047356
0.0015177191608689447
-0.01606586385319807
-0.008393456964221275
0.002395413674587709
0.003249636479992754
-0.039676971464289376
-0.07257047943006834
0.0038755341222991013
0.004365363346062832
0.011748928914237143
-0.009473246454418447
0.02967305443771951
0.02652026306160067
0.05273774988743864
0.07251934573790725
0.012051600014390648
-0.0038212026872720406
0.02302979578292278
-0.027240089711308278
0.0484544755367061
-0.007851047686386408
-0.03018540713858826
-0.002715382533338259
-0.0009216192521722809
0.07487712187187329
-0.012645904278239929
0.0024495434686730485
-0.03325471983396684
-0.024483517244932845
0.013207227590688472
-0.009490138723697267
-0.01197360938316147
-0.016265889641172707
0.011793977583512453
-0.015575438591881915
-0.03051184630059768
-0.020566108154137605
-0.02486099315270988
-0.020338693331810924
0.027977794620621634
0.012268923344935666
0.025291565247661362
0.03813449478339358
-0.0330306492945755
0.06381333728185795
0.02339457966017518
0.013814496166886753
0.020113207939365683
0.030658615494282972
5.744600023724865e-05
0.010662728275384038
-0.0004991094269560016
0.020262790126732082
0.005119993356405112
0.03902060489699051
-0.02738952760673812
-0.05664869186320137
-0.07795155548533739
-0.0548000273236172
-0.0135125524798065
-0.061882146355199966
-0.024697623801596687
-0.019455446825117503
-0.015469022549107668
-0.01968018522999911
-0.032057349433770824
-0.009404134667201946
-0.013739755115270884
0.01984537167603782
0.03950863651425105
0.01988255470528257
-0.036248205131763286
0.06991968197007985
0.10252450738166671
0.0071346435002581894
-0.0205856141734342
-0.000775895780212337
0.025095780407931045
-0.02387867799845703
-0.00028661825937490316
-0.013299850642272727
-0.03576937565852783
-0.03944500050523066
0.019107648383208903
-0.00010217696503463175
-0.013818572943820082
-0.03385536725466037
0.015101977535987781
0.015924824372069053
-0.017442946938845245
0.03408293830571914
0.030328455563191047
0.13119563571592802
-0.029183145071638966
-0.042041446228562915
0.025963486976758002
-0.017945065462371176
0.011744338888454046
-0.03621652601375838
0.04614298531020304
-0.020503285299140823
0.08761244064193015
0.08076135608915304
-0.015297659902126068
0.017930056749461677
-0.04306727275845065
-0.03136638308502046
-0.013609401126376963
-0.02149447955847334
0.03161699123919727
0.03213090424100586
-0.023634964238209977
-0.02833165757574632
-0.0110378458496106
0.0074113567656734405
-0.016490631499028928
-0.04010236963444131
-0.02488485324835169
-0.003780843903601697
-0.019552308758318943
-0.022301835635257082
0.020812998640133747
0.045780891015059035
-0.034523294022979156
-0.019784218154869707
-0.016622483007807064
0.00014519596539239445
0.013235032442293059
0.00965691034755092
0.03490765201029
0.015034375542933087
-0.012519226331479723
-0.011731529058623706
0.022942563131772557
0.016722310690240456
-0.006467392134212843
-0.007774630036018907
-0.017774105483540945
-0.013587610301199692
0.0253938145617349
0.013137863919695401
0.014235686037243997
0.002400143762597868
-0.0033998515789985906
-0.01642766125719739
-0.03995816713947748
-0.03812852201060674
-0.03669650866936421
-0.06172556119821703
0.04421620609623453
0.0019297949713915764
-0.031079229366704125
-0.010182880595266562
-0.013755681397520066
0.019713861389472127
0.040643158104632524
-0.02971597137864245
0.041383055755847976
0.008723339436608874
0.09408385046742157
0.10129907776285292
-0.007655067496842938
0.05014761648895174
0.021077976880523486
0.013089097652631299
-0.0012282041692134725
0.010941243175263085
-0.03800522551869563
0.014332930967207976
0.03790300428920239
0.013385135444526297
-0.07379224467175832
-0.2088454348110756
-0.08120659088959281
-0.06735223616484352
0.017928310404691884
0.030592125897820153
0.007459198874491578
0.0027569109909937866
0.04003787653363017
0.03214262843823833
0.023716758217326474
0.029145063690563817
0.007563235377934747
-0.0317542407734314
-0.04360508091633171
0.004036885644204604
-0.016187433641835107
0.008104443004409483
0.07895390559840229
0.07102758001084042
-0.02134738298921157
0.023017353456393726
0.05444404761060983
-0.01440923917237427
-0.015079264535032236
-0.012445655410821604
0.023387375596834854
-0.0005620708594822045
-0.012967574292670703
0.051948655579778
-0.02727816253541561
0.05108716338613903
0.006407036393878852
-0.0586893669922126
-0.024344185046989906
-0.014719848413177132
0.028555745668724413
-0.13643789371189435
-0.13690771017298095
0.0389215900236281
-0.10443023400899944
-0.04568043520171709
0.02262310553109381
-0.029526886639626757
0.03104763169338368
0.05665763765277908
0.03677239023041487
0.01012254009067548
-0.00972287946027537
-0.010720301374062824
-0.016695888298475445
-0.027588964240987276
0.0014869656392498835
0.1323893291294495
0.00885403648949576
-0.04016181115489573
-0.0056086105927128874
-0.040090206626266923
-0.006984768591655335
0.0009027967651373047
0.020155309247587
-0.004448141358221736
0.039897092267132596
0.06280174029881369
0.1421224099919877
0.11117895192275348
-0.023252709240395547
0.023841706164177714
-0.0009633725054976616
0.017101733666601573
0.003691344378173722
-0.025337023326661927
-0.010488240142093295
-0.011034885718168018
-0.009525361166503713
0.01206497660043352
-0.031414061248103316
-0.014000562155182653
-0.016612217426875343
-0.052515092257784717
-0.04491515129527387
-0.017556634643510174
0.017513288418847507
0.008309733439975084
-0.012255204703683093
-0.03326764762719164
-0.039514676080002656
-0.0034285872454855237
0.02861478578059835
-0.021775263079474708
0.013635991819062276
-0.006922205308322041
-0.03423549396192827
0.00968814026032957
-0.035522517510864896
-0.039600818993121754
0.011033333651560367
0.09967108139032631
0.05058900320705592
0.03198387184165412
-0.026664219668818306
0.022586255168312155
0.01390597138710211
0.07127279471471148
-0.004925607387788179
-0.009691511155381189
-0.04386109764338894
0.028856739857010812
-0.009205077296333594
0.015840072584530646
0.02148064227067297
-0.03362837189138794
-0.04819373265351059
0.005614437816004205
0.02938697638223845
-0.017804929336064437
-0.01551356833697728
-0.004065927545950131
-0.014952102016359374
-0.01227174021354982
0.005028130115236399
0.004274373038011595
-0.04271609499425501
-0.04416511235734204
-0.023238608326179126
0.013559217787639397
-0.004254756335949919
-0.007107857965902841
0.004915397820780244
-0.014554038829030455
-0.006390035766007705
0.06134493428289496
0.02001661207812263
-0.01402487547816952
0.007858616891660343
0.03641373854180116
0.024067937068239384
-0.011203029128544461
-0.008904780149030834
0.0012068796428813772
-0.01839727998234986
-0.007423504963314308
0.02344505934184045
0.03584754762107582
-0.0010601122880931882
-0.020864931623077083
0.030507862197771934
-0.03375607031960137
-0.03645014403088952
0.0070956410688191845
-0.028198940676427316
0.07101180708462576
0.03761721614280773
-0.012701223719848028
-0.010202591859260705
-0.028503156731277332
-0.02538337717817022
-0.056840177159107975
-0.008904751350601309
0.009096228324374327
0.0036639143066794864
-0.0677924612193937
-0.04359110270078793
-0.025205200579030338
-0.0011665385012187505
0.03762790532096783
0.03422420797919403
-0.00403391239103894
-0.006594706905592492
-0.0018306542086468465
0.007203180440052004
-0.044482047893155206
0.1034853667456937
0.09690416277666367
-0.031139646920590763
0.007677004731860248
0.0730251741487321
0.001311575439494054
-0.009534410386792262
0.01793124663312442
-0.01522379327710682
-0.0031603916303031385
0.004273322232592154
0.045411635235120755
0.01106687898443983
0.01668048963770031
-0.02669239566149009
0.034992073837236494
0.02015423990163435
-0.012058878538972294
0.03534604784012425
-0.01358310183556997
-0.1914545667641549
0.03683108854522533
0.01059683743146246
-0.07422598409236102
-0.025317085782218262
0.03255141185004524
-0.06394916974629938
-0.01117138815018023
0.004904569553470989
0.0034495034258475742
0.0035538892336757374
0.05812072331232698
0.07409114068197858
-0.010910699572841643
-0.01479080233369361
-0.019757208497584607
-0.021503185755207457
-0.0013406125021294484
-0.004365070794375813
0.05206658908396634
0.05945955470511998
-0.11071808950291977
-0.052232799383850205
0.0033672959215541704
0.030108641351698107
0.031010887937794756
0.035691564643474574
0.014533039117695372
-0.016862760003645852
-0.008047567131360683
-0.03152427498775564
0.011155177258835748
-0.001733041332869508
-0.02059276099232807
0.014787816424031259
-0.02955507773281875
-0.006513375204772496
-0.02115188811394402
-0.02017846190700867
0.032735069214093485
-0.0013605201475991964
-0.003631210833598621
0.003954149870825858
0.030443482378064324
-0.003239231647373919
-0.006996607268203368
0.02406738627276532
0.008799950432716136
0.000246427970673306
0.030728642833356867
0.05849681206048887
0.03208619403677298
0.010196312428809353
0.0028402055569002136
-0.02776367351672419
-0.13307906742006692
-0.042434482098906635
0.016311409876012442
-0.0026904612972572426
0.009377993777012563
-0.04014317781744429
-0.0043054433066149105
-0.006258399784636259
0.030351801976193114
0.025149416438845513
0.0049859747309998256
0.0025140703549339045
0.024266081596889987
0.0482129649384457
0.027671322965629568
0.005482548508294595
-0.042135209233576845
0.025609088262941133
-0.00011440228149324433
-0.03727746197516929
-0.01059006960924879
0.048684126088710866
-0.01945840449146586
-0.007558445825822866
-0.025086324664149732
-0.0006587693888498448
0.0013242754024442882
0.004730697096848665
-0.01094377876164462
-0.015508644086460329
0.007168952757648369
-0.0257231927925517
0.03175294742405627
0.003527586597931896
-0.01731853766710487
0.018586934169060522
0.034841010372101716
-0.017493888892861353
