0
0.06597561382315445
0.028333509924888364
-0.09317643048734076
0.05135740102483793
0.08069776177214238
0.035326567761722154
-0.02753510114978839
-0.01537342704028572
0.011730089398325153
0.0002909847795684472
-0.017597917909430223
0.010703553018097596
-0.012820182926584295
-0.024125536140559407
-0.016334990893580453
-0.01735039803036175
-0.07151736530099796
-0.028849577797902235
-0.028279182742181597
0.0010953774649207304
0.0334928079828176
-0.0016549657255170982
0.011517224583347323
0.04573315069176187
-0.007411822649288686
-0.026045498295547545
-0.013392856128136335
0.01921540153116947
-0.01541802609244175
-0.024460626682097298
0.0008550239374240654
-0.014873734356510621
-0.02343094397772849
-0.023680691082646144
0.013680595611380958
0.031194469502987855
0.05586132097584722
0.011535002011696015
-0.01705631061363454
-0.005618133871395683
-0.007391801206569451
0.008003712779455285
-0.05689107589192024
-0.012765945331635211
0.07490349717278838
0.03470882394109886
-0.011110609607841975
-0.035736959761852025
-0.0009171258420098631
0.02849111496054997
-0.015751730284079404
0.006938834560881722
-0.03726198217386137
0.03167108318458728
-0.037659893492178444
-0.04181419487977297
0.02206892747497282
0.06109583078273798
0.04673040420855977
-0.03542146663725182
0.004610136514582076
-0.02722016103943213
0.015533267773270005
0.005312077486697479
0.001221652550330452
-0.04153358545775893
-0.00010254692560274483
-0.003774737479744498
-0.012536339932345089
0.021957866236101894
-0.0004388499116453826
0.07485527936614456
0.09850914483778402
-0.01972941347266874
-0.020358929921519678
-0.016828880031897763
0.02831559173173016
0.004652965812211932
0.025398925889222317
-0.006434800696424598
0.034701943767743236
-0.12197448811062177
-0.12229472485183666
0.07130808080069882
0.041217425729526004
0.006859494222201974
0.012618320050879758
0.015516593606480557
0.0009939960102459185
-0.16602256157832662
-0.04326147193015048
0.09037790501047083
0.01265431112430753
-0.019709895431136486
-0.01709782289547795
0.012633107988896657
0.01156572406992768
0.0019298754900481268
0.009268751295781768
0.03644855102731109
0.022883310670984012
-0.025265251905332724
0.0069531238412710505
0.0003492733679520175
0.005951130825873604
0.08939591282377095
0.06419606858184464
0.025274001782701432
0.010816636684715036
-0.0046793318167914445
-0.0013781281878163995
-0.12051964376026596
-0.07331741309378167
-0.0700953040790688
-0.030612355812597847
0.019955418265575942
0.012258950183626384
-0.008344129908157829
-0.04601805518383456
-0.020476610473754826
0.0024464957487074983
-0.0006405275102788714
0.00567939501021449
0.024021956189906993
-0.026078642543932305
0.02345811649603665
0.04628627616833136
-0.004544421552556358
-0.02336433169684238
0.05128344869979281
0.11410520884332404
0.012543777963167366
0.08737804582797093
-0.11352028483573591
-0.1163498305933812
0.05300395781115232
-0.033012868669554746
-0.05125558540400683
0.014147235305009779
0.039499167225167664
0.01817071017994563
-0.0195662095269759
-0.07249320959541111
-0.019687380661517366
0.013459188158484733
0.004998776924915747
-0.0263781021388082
-0.015640784495245672
0.01528406933584089
0.0035274246818551786
-0.02105838596069818
-0.014162789511087442
0.012806144033589898
0.10005544003242745
0.005701111402501326
-0.011780809808119332
0.011714922870535025
-0.02145433026005604
0.021366124159161407
0.027262256003114188
0.01833657063064048
0.08792160777436359
0.009773303949670254
-0.049267792825420424
-0.05999418069415182
-0.023445815840681172
-0.0015128157179459894
-0.029030382978601
-0.011209832475387073
0.008312576023001731
0.03054885156810875
-0.053049299768976245
0.022590886785632605
0.07169314561337406
-0.005856367250643819
0.05033300119003854
0.006943261533191665
0.019749558804201126
-0.02389696304927388
-0.014242219322211331
-0.032144622407238685
-0.013453771976856748
0.14194081916045306
0.03144189898122631
-0.0458934353271126
0.009819674642657017
-0.009217648334906067
0.023720816038907237
-0.03297187560545931
0.039695075688361135
-0.017178064817427036
0.00011522754084893764
-0.12143535580611822
-0.08389497236970324
0.005318916190836467
-0.04318672791824748
0.036711676258594055
0.00326257771175501
-0.03484850543404113
-9.589812521336296e-05
-0.03338726526943367
-0.02397579964039791
0.07386065551329572
0.03617974713890372
-0.015801821932530997
0.019682058505264097
0.009536528601807487
-0.006730621127793374
0.028565071414520717
0.06231268835395976
-0.019876898067004597
-0.01292451737593045
0.012731149905662398
0.014365958872858034
-0.016247141441005964
0.03159738254449962
0.06801641241708102
0.06267277599087712
0.017664249291251703
-0.005040241421977937
-0.016348625989313765
-0.007685130742156694
-0.011774769122265884
0.041357532798585825
-0.16321804609197488
-0.02437365032698522
0.0471236934170743
-0.024819924186499392
0.009046634567696023
-0.024597959352704285
-0.016590862928298915
-0.020631961199139768
0.002360973962932555
0.01430582743949753
-0.00891568148473918
-0.0177299392649014
-0.03943218770449684
-0.026381177382640064
0.0021696221954039417
-0.019942143743569528
-0.00041137182158566154
-0.007207148668108902
-0.0004779013855137905
0.0019410569217170363
0.0031361591535559673
0.051215080915522765
-0.004266696838506784
-0.0017809079560594447
0.024051857330094812
0.016091789866245466
-0.01739040700378819
0.013781081126356905
0.019123733223339195
-0.028541253966718617
-0.04001764584166215
-0.041070813721865426
-0.13002446323288136
-0.014675897418318026
0.18606214907784077
0.03222240315502778
-0.02051255068845687
0.016776527768700897
0.044935122811153756
-0.012944006191722014
-0.010707323988226273
0.014167810092934385
-0.018375287634824815
0.022022005146209195
0.012111201163101467
-0.045788366288019376
0.027629764942926256
-0.00031285969172046055
0.01313274790773252
-0.009485884908917252
0.0656180250571745
0.07136196600835079
-0.03113866924296681
0.013175162957528797
-0.01733814583028367
-0.07880537459639193
-0.0015063979241684332
0.005925252754620124
-0.004794751301190502
-0.014629264643022662
-0.049967137982021174
0.004434551386908934
-0.0036693861975257707
0.02432242111282028
-0.057815024859932056
-0.013632847217916766
0.03281674914266415
-0.023412234941879693
0.011997232973912227
-0.007039707035021935
0.012610451166572358
0.03340712410313333
0.0024739318405674633
0.06025058128409274
-0.002204673943861873
-0.0051197180302069035
-0.00566585751631718
-0.048829315591614034
-0.03632817558561449
0.051756303874698935
0.10675336353388577
-0.03114190292962208
-0.05472393647231871
0.016502840665229657
-0.0046635751279280385
0.029625088531989103
0.020613508976037715
-0.0025403792985672236
0.024454851932757597
0.08683771133460118
-0.004278181547292212
0.02340486480272784
0.013329915478065764
0.021621845904846032
-0.0011901193392467454
0.0177853645711207
0.003035800869999981
0.004184165188011674
-0.02808696337910649
-0.17130366867969488
-0.040072398009666596
0.029453878456937983
0.06185620391933305
-0.00858758509969743
0.014922531097269322
0.007928588123923946
-0.0771160027630764
-0.06212588803449469
0.023026834722811924
-0.00381130805189115
0.04154057416478413
-0.020914844677906448
-0.003349949983496326
0.046309872066451055
0.01828545985654318
-0.010502982695930458
-0.002660692476700516
-0.04447339086139534
-0.05984949859976642
-0.039525833804692316
-0.04905212452540572
-0.19137996635099613
-0.014421301159307702
-0.009167126660610632
-0.029012637960945
0.01469587945851696
0.03073039568458014
0.055674850532986285
0.0024408293780381713
0.011852302532307075
0.04640739621480126
0.0025065104843126425
-0.02231308290627281
0.01331737234906106
-0.011539220517016648
0.03442832304380887
0.1840697236039647
-0.014529485191512266
0.07062047067970781
-0.020898292700456754
-0.049225752290179475
-0.014234220911714106
0.01909470642228755
0.009382328824983063
0.02474269990635823
0.0070568456212130965
0.03536640847119744
-0.012244313781091936
-0.017747236115641343
-0.0412795541837626
-0.005790310235296757
0.013991660745246742
0.06441401436723646
0.0067215838873237
-0.013764177558262349
0.07998826212177891
-0.030450280904960398
0.006298405427497246
-0.01318752914514396
-0.007863907920501621
0.040098165354596566
-0.004850419223246393
-0.008150904584835484
0.014492143500992328
-0.0024186355627181387
-0.008114047201176998
-0.02765471250520508
-0.0006520825788543762
0.0001220207357494166
-0.04181723460461435
-0.07298198402349032
0.008517551716067523
0.0004630775173537555
0.054093154981317615
0.0022364569839021732
-0.00010518611809507345
0.024694447012082097
-0.023404665483481402
-0.01274169312830609
-0.014622516743649403
0.014618216934215677
0.008501667474029069
-0.03542164564477006
0.008170853385382811
-0.011070331001237438
0.016137414805616597
0.031161397318175545
-0.040476887795136474
-0.06119294137330641
0.0003155790918706917
0.00796154718229846
-0.014368401434630602
0.05558110920103535
0.009520162576614396
-0.03221421726355031
-0.034421822957951285
0.002542219719777284
0.007417003876022994
0.019668380390283662
0.018023715849106454
0.011631447410174871
0.0037449043382402807
0.017831907036987425
-0.0038823192339456935
-0.007066053401062201
0.024913853163815534
0.04733007384147888
0.016187032495983272
-0.009767295836101609
-0.1096566229948599
0.015580644752271014
0.027541971532952726
0.02177783464377676
0.0004301298742993502
-0.0009507954248139581
-0.009015704983866767
-0.006898967610992829
-0.02110653222074355
-0.08034575153348492
0.006957823646814898
0.018494641237084046
-0.0658141130170739
-0.002130894262815957
0.02422738896338256
-0.008147758512858028
-0.018991500032386897
-0.0015564425770611878
0.0035350795315068476
-0.009594277665260935
0.04921615856422751
0.022377556484615105
-0.02604152250075623
-0.0005719188575608294
0.0367775633935748
-0.04193139275429293
0.0003747021574144073
0.0890231868242867
0.09224368314369753
0.0026535034847119574
0.012555836180929394
0.017382530676278752
0.00834166159792042
0.021547375465517334
0.06253218612525278
0.008772519428887255
0.023411134013461333
-0.0343122932439245
-0.03251782990104248
0.013755311010415555
-0.03126764769118653
0.046025636002255774
0.0354601795566752
0.007785252466134612
3.0122606130923397e-05
-0.1677067050594713
-0.017547176280204135
-0.034741276755266635
-0.07841447154880439
-0.049064725360239
0.04654230374142122
0.04385732248919642
-0.07968924699858475
-0.04128969811321487
0.011002904829492404
-0.0012105696257003987
-0.007575728738154089
-0.0026386581207604918
-0.02055125410893779
-0.0015198640360499303
0.024515061100391092
-0.007450950073761098
0.015098987518850825
-0.02675193134354283
0.02762719300853097
0.0076209666354919384
-0.015258086781315397
-0.0012216604634261153
0.010215334847504092
0.0015534311367380977
-0.012305170421944586
0.01316865334776253
0.026265382692019276
-0.05447350224225329
-0.002939549144234625
0.01036488292172577
0.030175977484742694
-0.05680951615821321
0.12765000594366116
0.12837583922123413
-0.011250128507515545
-0.001308085873432065
0.031193969709364958
-0.0026730291287631815
-0.005736889951416468
-0.05889779831484964
-0.040339998227036884
-0.023101715099418246
-0.04541375460142225
0.05922479574760575
-0.01795539766190981
-0.0018939161357396594
0.009413683290652862
0.00846287387427439
0.0009113378920915574
-0.060378459502265495
0.02011794969513825
-0.00568215838954927
-0.04091791392800144
-0.03636498787299195
-0.03290342808770055
0.12918208690962793
-0.012361044791228841
0.002655503626112693
0.01978613967602044
0.036174765371212954
-0.00488939405888555
0.03255627644793644
0.035617042657478074
-0.0074666114243855525
0.02062858095422839
0.017672616425534724
0.004950151403756432
0.020185374455286356
9.639075051811633e-05
-0.01812902834838887
-0.045824374114124274
-0.011586104102523908
0.03516373281599187
-0.004933559551424632
-0.06313799926173258
-0.012142167480218916
-0.014116828641652434
-0.059883682089423095
-0.004453681770219017
-0.005431736751339675
-0.018269120242675765
0.009929916764557149
0.019694624696998037
0.011638486725240548
0.01779964950817118
-0.011962249755739552
0.014885813006019289
-0.02178916456870612
-0.0030238653495662507
0.031022075917981666
-0.023212511601614562
0.01828109853883368
0.12735766828746595
0.042032479274986996
-0.011455878862102
-0.17071254215949666
-0.04604786102952487
0.004058022891048513
-0.004468135953609478
0.044810779375626275
-0.030904113700531158
0.061654556771039364
0.1194955611901556
-0.01433359835077437
0.012525950009692866
0.020593012032612625
0.0011479980659044875
-0.01092762720235598
0.008471420413978074
-0.03402733106805033
-0.009739914327422477
0.0012892839770740488
-0.002235969205086871
-0.011977645553593796
0.04713800044899629
-0.0049332719971263385
-0.15634157168523682
-0.00036104732031438816
0.03364872590844562
-0.008533226395833943
0.006127723918476956
0.012935694305754353
0.005170159165206662
0.04971472311690307
0.01773308298941486
0.028665089773818916
-0.005645333708634429
-0.05795088940175592
-0.004950092639868076
-0.037777770096781786
-0.022115965504764117
-0.006598696770945718
-0.0035666297101004077
-0.014338396127836843
0.005408432109238169
0.0010222177618737299
-0.008802401680720275
0.01204254264239426
-0.033961108799614344
-0.0198864487107039
0.0024538962901775184
0.013038240094470167
0.04458853741920971
0.02000237997040015
-0.034124790320118295
0.03944355993191642
-0.04632495731753918
-0.04308461703614708
-0.01752319751127636
0.028461538043944454
0.03432223278019844
-0.009428676307947019
0.03407230365528907
-0.009855755160247196
0.003652848610974599
-0.0016218547570753456
-0.03421145908664576
-0.004045279607690767
0.0013047907382237496
-0.0016162011810992886
0.02317131170236113
-0.002679349920833594
0.006326253199791679
-0.01866848001264349
-0.10208460565358733
-0.031336181761186584
0.005033884187383956
0.009478424927558028
0.08551074540165363
-0.015250540639060088
0.12759266223132254
0.03259479329901376
-0.013752589300727154
-0.010760672520242775
-0.019117657788254593
-0.0141542893296832
0.0016246923759500786
0.034238881660147436
0.020675610819764313
0.06727262786420304
0.021252906814626788
-0.020502214737732036
0.01965934270000267
-0.02876343872725705
0.006970838779545565
-0.03097352659563584
-0.046358257318607876
-0.003804359390546605
0.0022473391871952325
-0.003219994338593409
0.026269483459956108
0.020059944248529728
0.025270057338814413
-0.012656351231079424
-0.028452313958606302
0.005092918571257992
0.05354957405929279
-0.0935529386260449
-0.04915169494577043
0.01948535823165107
-0.005652579550321783
-0.011543156243556226
0.030492652182938708
0.027904046404954096
-0.01898757998556106
0.01641596476416252
-0.0056153894755956455
-0.016346355703714843
-0.007578570610884003
0.018984713412083177
0.032239384501061244
-0.02862576415572132
0.0074871627292476765
-0.06704670601980964
-0.10329056678755999
0.15467387708505775
0.04466295300792923
-0.043955837284109484
-0.01884887965122566
0.02720293266318453
-0.004286669041763123
-0.008957118845472014
-0.03565998008214631
-0.003777603013250307
0.006357474156784081
0.029624352888439665
-0.07178724768527792
-0.028164447651202452
0.009604626320163553
0.03230526870053503
0.009450587277160184
-0.00027991731188945114
0.000763444491169949
-0.02002234314957796
0.008349423889272083
0.034160407065438554
0.003450341586427591
-0.07816919421512349
-0.029451171923993092
0.013443882325917868
0.008098402227681725
0.025282042252658777
-0.007537410468000817
-0.02266750324409195
-0.007704710776066243
0.014447021995521217
-0.011173600783115363
0.03821322832578242
-0.033951613341085464
0.01184569845046068
-0.010098466542840665
0.0024975505970533155
0.06042881373395149
0.0726236868019777
0.01087733630911705
-0.007548304696994615
-0.009161359090883095
0.07952010625612126
-0.012094650062394643
-0.032868153921338863
-0.04591697575145969
0.04173072406611245
0.04606386628564465
0.05764753444563836
0.052145511585273384
-0.01981532033543866
-0.015238501367707075
0.0028444834675649573
-0.01818770625781688
0.021416772006482725
-0.043820064213253254
-0.1513421363132658
0.01508407193098193
-0.017826962319423448
-0.015377511039511613
-0.022101483838235923
-0.0006368306408194417
0.009776456072609099
-0.03307755590692189
0.01748590016070347
0.03849369024332625
0.002653253955183466
0.0006614359171281995
0.0025152312169009587
0.0017934890918291796
-0.031231686195437106
-0.01737598719006687
-0.011499663883548413
0.04194382847195828
-0.009280104392867528
-0.05292380971889533
-0.008984585023201016
-0.005884328254348056
-0.016994275576666818
-0.019996873772610852
-0.02222657632348975
0.04694797547258309
0.0050616506255700125
-0.004611272365517387
0.11799798565454131
0.015395300182337836
0.016464982995879854
-0.00709682294410816
0.022590278348000016
0.06665768004606273
0.00483802506270009
-0.029358175282041838
-0.0025557096206260625
-0.011883482533391092
-0.010266437991161418
-0.04760036063806702
-0.012606750508130071
-0.010870059147459782
-0.004040234912491853
0.03380412505775958
-0.026409371804421444
-0.009821729764660152
0.013778953311218194
-0.013618879629801352
-0.02747534806547964
-0.011600139475857293
-0.003405244891653166
0.08463889433175077
0.0026933606458153306
0.002360798475861639
-0.008177707823486792
0.009395451319487972
-0.02608732034802883
0.03663393227390422
-0.0172237454276528
-0.0029691522659858276
0.029905602602470584
-0.01682685395968598
-0.02466571072209139
-0.00025668318325833115
0.00462823092959859
-0.029595189420009924
0.0020503321523872645
-0.02388029137237753
-0.010145081452001804
-0.025822757021715808
0.034363748987153754
-0.00684981002908772
0.0013535890656096428
0.013141236778427724
-0.03852441701296439
0.0028375641199197125
0.02664424832301047
0.04006252616507774
-0.0012387274190684147
0.015032681879023652
-0.013731201088489794
-0.01186825723803521
-0.008549074116997525
-0.028174009798891328
-0.03370425506204394
-0.0363630350813857
0.016912878443092087
0.024643923908161808
-0.010055227949621567
0.0027108611265841956
-0.05223623535324997
-0.023851878549419055
0.020456608053948368
0.053625606285190024
0.008219793888018488
0.18705975712225684
0.07894990687735674
-0.05730139985174756
-0.010133264739091935
0.01312619302605159
0.011999162024137961
-0.09318433239908336
-0.052685126248932866
0.01844670688393307
-0.024671002548929576
-0.03609254176456604
-0.0067104497999596335
-0.016330843484558266
-0.009366927945406065
-0.0055105507463568786
0.018743309742646118
-0.002307976711416415
0.0455432494316279
0.02044244832138224
-0.010734574081726353
-0.014490675781354214
0.026341999754964138
-0.016898545167761972
-0.012775561176750442
0.023133816251879734
-0.01544119244107703
-0.006246673326338722
0.030749803665808935
-0.011818573670988852
0.07117035127669248
0.060164567024938026
-0.007543946939548254
0.006797785625738469
0.011988794819374688
0.051352106684647666
-0.0070830398467657315
-0.09652417344381785
-0.014919996330602862
0.02249711994047518
-0.01387872435170532
0.013419923886506853
-0.0043436646420084305
-0.008336425235846653
-0.0036601066801415145
-0.03035110579375863
0.017476765116459222
0.0029852207706161818
-0.0758576655252769
-0.06888642694986594
0.018234931911109028
0.033025917683316655
0.01908513252364983
-0.020650042588920208
-0.036074985315976256
0.027953501712690745
0.0164869876470096
-0.09931196389976647
-0.053602886426319926
0.029876324587702043
-0.020080819181152915
0.044140067185416555
-0.005716758164116969
0.06750960993255778
0.11639258299634421
0.0266088197368476
-0.11446563417893622
-0.02196744197040107
-0.030937356018453637
0.002134529310563183
0.02954929297012233
0.054099354925959575
-0.03531239769682717
-0.01869873283216327
-0.004534208898839535
-0.008404025999653932
0.008280502473520452
-0.03440206893522329
0.051590333396969036
0.006187587475062656
-0.04862940494776318
-0.010655104768441639
-0.0191994588360063
-0.002668855748968229
0.05183269578261707
0.011565081518874403
-0.03513623180274725
-0.010743086627575714
0.17882001089907362
0.06255407687885739
-0.06406230730725458
0.02232496697491555
0.04653550227042939
-0.00899272229601268
-0.006726729189409407
-0.03524618154431028
-0.021656173646572355
0.018684469052590517
0.00617908253938884
0.008461116363682318
-0.0012458509281633658
-0.00898671821579377
0.04138937339332496
0.014547930850523515
-0.048261234192540886
-0.054752656594912304
0.0002166243940560252
-0.02419318168094428
-0.021500428679371842
0.010412978744278665
-0.021070280494053496
-0.01975960093090374
-0.006680682128904634
-0.028147283566969623
-0.012369226295758706
-0.013599025366584356
-0.019834611270655996
0.004338480326919876
0.031554859497138155
-0.061262624104973615
0.032850844314352284
-0.046569493506146115
-0.012568497931288813
-0.007153598353663191
-0.0019868761083568012
-0.004674899412563412
-0.005716141491722308
-0.009064085820518843
0.1167875128197269
0.05824518293974759
-0.013108490704054742
-0.11998742398662242
-0.07324965553522142
0.04069131311075482
-0.05579459819724813
0.09014417597041291
0.15341672181707391
-0.04754547976630695
0.013094336849324211
0.0167226014612353
-0.03400853873381755
-0.0016390232028922985
0.029010773235193934
-0.048523960769128696
0.00869448265798971
0.04824722405313237
-0.008519143662878165
-0.024498567649122983
-0.01403363296190041
-0.046570944421926684
-0.014459154772260192
0.03178542884398772
0.07831562777303104
0.006292973277652948
-0.024237678980364573
0.01808909574943081
0.004452149009335893
-0.019391674284309417
-0.01969656270395433
0.046757487191084024
-0.00625636820229436
-0.03606921441890047
-0.01747245982124206
0.0121231789964096
0.06054148098372764
0.07947861021195533
-0.05115604764937379
0.07030033052549087
0.008685582063447416
-0.027408975609403533
0.011719059547160742
0.05564376458527442
-0.008727159218671359
-0.04322145089328456
0.00942262457139352
-0.009396129524995363
-0.019608380322319235
0.0024914233601677177
-0.007327979584033672
0.006327709832061617
0.037290847113138764
0.015657243422239713
0.00905974097156782
-0.003455074601428317
0.0037947565398949467
0.030281952187523314
-0.05477812052477545
-0.01190259895629644
-0.013066944527071493
0.005873548780359877
-0.05759810286216646
-0.023360960853938816
-0.002216990657029956
0.0055789924906272026
0.023347838905855952
0.06764243846230399
-0.08746740554196761
-0.06213106492194351
0.00731148981773569
0.06662163799083863
-0.06901160104227122
-0.09053612654904482
0.01852287188573349
-0.025679630103880767
-0.002589556288363076
-0.015004973566529271
0.00976123127670334
0.012057583275098156
0.012448119160018862
-0.01354307470781853
0.013961687857975262
-0.038049042303787764
-0.008927810427969241
-0.0037582795615387584
-0.0005764657106521267
-0.015788805083141275
-0.009703282965799613
-0.012368527077126589
-0.014964595127181252
-0.039486267195955604
-0.024336857592393606
-0.024458677241533108
0.04565493705553769
0.14377303234004357
-7.275172266264569e-05
0.05740466372280578
0.06939860185916846
-0.028384047609331192
-0.009361146986755439
-0.017340721504546977
-0.02319867741113668
0.026922930640863957
-0.028295545447063333
-0.0186356573112477
-0.04542895264069626
-0.03636322876892253
0.10174573642960401
0.031129834470429895
-0.0010432788839477454
0.09457120622927126
-0.04819397949828476
0.004868487314004521
0.0687734330984759
-0.032026485983849086
-0.0025916261687417997
0.016392111962753118
-0.018743312604619564
-0.029091111453040976
0.008496580018453277
0.032809403293955146
0.006694477520631051
-0.025027596087636432
-0.0177227752068919
-0.02350233132633041
-0.045342011753353256
0.004799285527550489
0.023856843435573236
0.023468695305134058
-0.02041494760155342
-0.028016940456532784
0.05207951783106162
0.006356729521280673
0.0018389484783002152
-0.0456318473014
0.027957107194904827
0.01813081430967098
0.06280788960216989
0.007500378645611351
0.022016667442420503
0.046708016929858695
-0.02592365504516777
-0.006815716371251401
-0.004558289794472483
-0.02092471311674217
-0.023640313354319344
-0.001966598343013893
0.005053673502662549
-0.017756106497703778
-0.01903415283249514
0.014222241719283808
0.009807232887482555
-0.0007689073760855793
-0.050557775185960135
-0.0496235875317741
-0.008820430137864219
-0.034589969337854305
-0.05317414199994349
-0.0039883968476046635
0.014817312546652734
-0.0026007530513309225
0.031624610576757584
0.0029173231715607837
-0.010651157161076459
0.03922827260279622
0.004038576718875828
-0.02319690868661741
-0.01308258825235708
0.00661776010536715
-0.020893051546691948
0.007310380423407637
0.010889816328273738
-0.010574579933030796
0.006335813953937979
-0.015988188625452756
-0.045644783629232355
-0.018165145874255554
-0.029698128624091543
-0.011757949820975193
-0.03477982892824206
0.10966600901757868
0.11029090797142244
-0.1180373078558462
-0.007696250423815973
-0.006619053406524376
0.0010902785056660811
-0.004793842941289537
0.03935457925663415
0.061416456501526884
-0.004158630140325948
0.0825824895692768
0.13966488250554948
-0.008125771652338567
-0.008416377647412928
-0.026782198706546186
-0.010597617514763956
-0.10386245624848027
-0.0360905060117178
0.06402631251954417
-0.022222342820114246
-0.008020281584383553
-0.03344191214084053
-0.020493657194566427
-0.01957323465175415
0.00023350859539440327
-0.0014655188981029246
0.025073442473993787
0.018435164908654465
0.018177890555298754
0.006399210899232524
-0.041389161991491674
0.022496154200388405
-0.00019083142348360542
0.010335081537705956
0.028614420166677226
-0.011601725654338377
-0.014016401183969325
-0.012968731524440015
-0.021692066151370988
0.0041791802736110845
-0.027488513810290195
-0.0013610401008939
0.05487208557150529
0.125269026912339
0.04441486272311092
-0.024051610544766077
-0.02571576030874781
-0.010356498826325064
-0.029140101070064133
-0.019115422535748376
-0.019248106433921167
0.0015759220068734205
-0.05045758542045406
0.012849804425313046
0.012243716805837801
-0.04013919677808472
-0.01461216337332232
-0.027855865963609085
0.015454185761122265
-0.05014259882981294
-0.021878484821070954
0.013692538609534255
0.018896718671712123
0.04553350065298001
0.01710700337453862
0.0026277898763546557
-0.015527211022101861
-0.027803692962935438
-0.049273610241670374
-0.03416945976693618
0.014079998157203406
0.011880046657364677
0.0051535057638326205
-0.015471809491830451
0.027480753713400256
0.046071218206099766
0.0127041209793961
0.047862213556249485
-0.009243860311273768
0.0019401859511271266
0.02687483583905984
0.026258478215776263
0.03895464925323132
-0.057494803722908286
-0.004059362265606361
0.031409937865726295
0.027379659603719082
0.024186550911072795
0.027041640542968818
0.010027440797947483
-0.061149324368419855
-0.059911789310864286
-0.02061507374099447
0.024792772300642894
0.03940192576195718
-0.013279978118500051
0.022773826861699153
-0.021441722807987854
0.0016436302134881947
-0.025264894492490617
-0.02338326469207739
0.004578406068141189
0.0005455535209235214
0.009105812724021192
0.06300307662988525
-0.03939959820454799
-0.012465710943996707
0.03308691247698661
-0.012004077206593404
-0.028767412323211953
-0.03127395360938772
0.017169470567832936
0.07042260369565402
0.03250325940191792
0.006458962911960554
0.029884209898451614
-0.013461543538227061
0.032710221955330215
-0.061381285469084224
-0.06987655663371223
0.003335951102638934
-0.0422082293232266
-0.02176854938363991
-0.07051385325183729
0.006224461485286119
0.011012113900263977
-0.009041500826831599
0.012578553784340796
0.02650438856825645
-0.002986951360156836
0.01211781568237615
0.0008985510217801476
0.014653091163299905
-0.05319487782709099
-0.025013583875498412
0.018239242896757345
-0.04817652545002606
-0.046881139179659234
0.025010626755220332
0.04573845861777093
0.011026002744656574
0.03329864087671571
-0.017765267093950873
0.0232019019048934
0.030517122457284773
0.013006433413956676
0.03494200021469977
-0.03243783439417911
-0.03954561044894123
0.03316053029534183
0.002397289377588969
0.003460502279518458
0.01196386065456968
-0.0068621677989746605
-0.048729691961596135
-0.0017720383412854872
0.009980256985049162
0.020277030557501335
0.05637976278405288
-0.02750722727560757
0.024705190046068738
0.05916581286295794
0.04375327763526706
0.04946982683145075
0.04163336458050448
-0.1939621845480572
-0.0639862099483071
0.014784567294898392
-0.023460395267747042
-0.006060159974721211
0.0777324833109311
0.09683091452208818
0.01297831014030248
0.039569275556567814
0.0077061140505031165
-0.0471425760794777
-0.17300610153214474
0.06259556417813397
-0.05604045166822379
-0.12700780587487712
0.006304397017400639
0.030468847873592757
0.01907530434586581
0.009026691600928985
0.0009891855866488168
0.016462308967307337
0.005271363842839021
0.006698658841160461
-0.024566186430616997
0.005298876075627922
0.04065933349969751
0.02386247681569014
-0.018620071103720784
0.11444916695679093
0.009589349943572712
0.04353968576656018
-0.1080749929717504
-0.14466919268109277
0.07951020608016683
0.009860619243815651
0.011366630644475201
-0.014736155790816673
-0.015525045528608146
0.01661804070525125
0.002601902011627578
0.004229673480020061
0.034625472509385295
0.01087338173011979
-0.012982962691353357
-0.004966369896613382
0.005402855968968926
0.009446341675818731
-0.052448406136710195
-0.029023185697102417
-0.03762603486041875
-0.018368011467145243
-0.03229012120128169
-0.01288751428770663
0.0096684973574389
0.04321912101558208
0.06242953042370698
-0.03388651426611365
0.04820158998586585
0.02912604714589311
-0.032432902719220585
0.005833941263363307
0.10855699247573539
0.03389887703463902
0.07907398643199179
-0.21487392764572366
-0.00996534350099379
-0.02157205075299525
-0.01076093570807991
-0.0033339023790679547
0.002024930867284718
0.08391064996962765
0.00011958217484309525
-0.027362089520041637
-0.006839428845867505
-0.05253235202795523
0.0021000786973309864
-0.014116726782350347
-0.007919784778509787
-0.003994785378111962
-0.051438507985232806
-0.020563696972918762
0.05192554955015004
0.15539534806247907
0.0898612388405747
-0.02901834688551416
0.018194875907246184
0.07909889996393231
-0.03508674256655384
-0.006277571908869597
0.05652191498823999
0.01278922601825693
0.07358974223454585
-0.15660065638486154
-0.1267767236526147
0.012646657751296699
-0.025614595592608792
0.0007481913847529864
-0.04199506547346683
0.00021098562024994704
-0.015178736144204721
0.01917085616225805
-0.04363667416306027
0.16180081902210725
0.029443539115178247
0.049327638650520915
0.0007266412701691489
-0.1468630296217712
0.0025035616995399356
0.0037900375120560885
-0.009514389609520085
-0.0336085815705798
0.04999215469257788
0.014502676380216345
-0.0486440055648691
-0.0033249844977591317
0.0241694936708162
-0.02592503309937855
-0.018801978682051974
0.04505972607860542
0.01877049127346903
-0.031077798462866672
0.012051561753065178
-0.010292814489849351
-0.013506142138107214
0.015240366210322405
-0.02211643361643269
-0.01967932768803267
0.205449747864963
-0.14899281615804869
-0.0276022400838637
0.040345487153752344
0.013395394403682969
0.009708564629253957
0.003350561350881059
0.009170249820549588
0.00604232617856297
-0.008878571530272938
-0.011117107892900206
0.01029330478241521
-0.03745347790350171
0.009370091980014792
0.03158559781687984
-0.007126178934399493
-0.0681109711210095
-0.11796025962952532
0.0038187336278420443
-0.024263573154751084
-0.02664060800155034
0.05257186029141075
0.03145486443543805
0.010951846800460838
-0.0032430449726677506
-0.012616751379013151
-0.010890405985601316
-0.04261378571140031
-0.016662390065693446
0.020547187099999524
-0.024454199586627683
-0.005026680288513389
0.019604738727193937
-0.017987690579144306
-0.051666496340021247
-0.010176822190152287
0.023735104495362674
0.15152684302311975
0.12402245477337111
0.01379181649044599
-0.14250982254966985
0.02624586218717971
-0.05592337969759111
-0.10018297583950247
0.020085603724216163
-0.028846728224232857
-0.0007163785690403994
0.02191011506146459
-0.025234116342877002
0.034910437187859265
0.010621363950434351
0.02376797523456069
0.04362286576031179
-0.016916771699115127
-0.0363016523461003
