0
0.0019488228457965027
-0.00594535723441427
-0.03854099761739993
-0.022493158631535882
0.042708858239236126
-0.013049629576933959
-0.04277972648336309
-0.00028653690987341527
-0.005304186238050102
0.024967207104356053
0.004701147826709406
0.02127442210680836
-0.015970135354395013
0.017423408000668085
-0.003299395602105241
0.019133892231586923
-0.02622658381766156
0.013815864485558757
0.014283742594952551
-0.0036913064175455854
0.06545035053821344
0.04258240608222177
-0.01388074374764679
0.0005536620579594157
-0.014561189240475704
-0.027622387781305806
-0.025136475230985753
0.003254309745761564
-0.008748696074537213
-0.05520786129292946
-0.00789488947219889
0.05947740722536792
-0.019841426345797122
0.015172367674836549
-0.0023736940128114437
0.012330860027800207
-0.03307704897074372
0.015807848064986935
-0.08084380118188006
-0.07916541783590934
0.05592926016208059
0.03735066830930277
0.056866846854257296
-0.0336715731721043
-0.01801204241259054
0.024298231345393394
0.04122072905401257
0.03768903985816064
0.005080514899219876
-0.00791116377653809
-0.00409521522981954
-0.03146818518631924
0.01363352880566561
0.013177828263949939
-0.015351867042194635
0.0041995948785703
0.010439367915781443
0.010959214784655964
-0.01902464558296041
-0.011115552591922503
-0.009798942157119857
0.006818458479199235
-0.11271970278823404
-0.06922509943545926
-0.003392784435543564
-0.03309526709301588
0.034867186854056
0.01935415555836467
0.13993775027630695
0.03836221533811552
-0.044233175869173
-0.027716140806323796
-0.03698922758546006
-0.025676699824268265
0.013711652999240001
-0.07117739008734818
0.03423821503253709
0.016579082961074403
0.014430442366981601
-0.021841285189369328
0.012964348858680065
-0.05035731463096833
0.0633457012834112
0.043395586205821735
-0.10809588903022999
0.034670771047669885
0.004787139570326957
0.024967560939419976
-0.014359917242544243
0.07410342067252385
-0.003527469446435124
-0.020155135254942277
-0.024175517593330264
0.016874608043100994
-0.0023704172585205046
-0.009803230573836592
0.036220570796614296
0.06882755432239031
-0.013277034596373829
0.03659885607974435
0.025701855073521074
0.017567641726886157
-0.018612828159630307
0.005830087469478372
-0.012107125363418346
0.03909729634108852
0.03932935297254402
0.009382211494136435
0.014539971510851051
-0.010125612361335523
-0.024270868827808205
-0.0650762432933734
-0.0041918183009609635
-0.022065425007844697
-0.010384104031328266
0.03351241500031638
-0.0068357743114069525
0.013377943846531966
-0.001181004713474007
0.005214625278043703
-0.006968671855463007
-0.040095453844288
-0.01329318982487525
-0.014430406675098787
-0.01238839795032856
0.019989414741699067
-0.06275756247414462
-0.00962541990325196
0.0064980781784328675
0.01959048026747652
0.006432654807884163
-0.01783397656032721
0.01961725023699849
-0.03091734011260711
-0.0674906341587433
-0.04261489051504202
-0.026344376532102462
0.015583088592270049
0.00879081170110977
0.031986694382636495
-0.022782840914164455
-0.01423801219133736
-0.03169205952703986
0.05711003283494539
0.10169333085694195
-0.045286872437907355
-0.01834594618579707
0.011254716723829933
0.001913373420306651
0.0029518191879007697
0.018524721243245848
-0.007207436931749839
0.018902164987604626
-0.007258285740838773
0.0101875449972421
0.004384851442843179
-0.03178047199718049
-0.03736976230877623
0.12129286839819761
0.06652651090545503
-0.04132875576924189
-0.00463097228262049
-0.019214087004901303
-0.0030539527583573786
0.012792960783101817
-0.003767943834649798
-0.014207182192127014
0.0028027419120581006
-0.021104358918731043
0.039130359016374634
0.0005076970176751689
-0.014097101738784494
-0.0016235126392051434
0.020378362728455276
-0.0326924933991053
0.027019115632443566
0.020996542733937286
0.056869891073785706
0.015952972471794155
0.03766525179701328
-0.01673806767393211
0.016041787186014886
-0.04455612519972657
-0.07358201996329572
-0.025894284682071812
3.2676988078244715e-05
-0.01833168314561304
-0.02710823791440513
0.0810717641851531
-0.013094975365406028
-0.021035947522104418
0.035336871767219544
0.016065920670077196
-0.03486602118879683
0.011241041100259079
-0.011082562035820972
-0.0017972607151281602
-0.0028763906815944683
-0.05357565485347208
-0.034413637778931146
0.07012131195701528
0.04813690260134078
-0.09800068504835593
-0.11506686217538645
0.05549106423323219
0.01944881076759189
0.050115707695336374
0.04580351583067082
-0.011085335984537693
0.001621730365742217
-0.023303290396872265
0.0170686077287839
0.01341007454894499
0.038677444567159505
-0.07608415783400517
-0.03362549873829453
0.0720819738926441
0.04678779680053145
0.0015420709604270421
0.007213641770514096
-0.04220748625067283
-0.013946698299886463
-0.03141665637516367
-0.02173075466310459
0.052459825939823033
0.06451918358468293
0.019659183712889793
0.003029289390806397
0.00815450749352023
-0.026541474534818865
-0.1644491071301662
-0.008354190929419395
0.03498521855309068
-0.01796905514371202
-0.01857248482082047
-0.0004551527692217351
-0.013769152014761471
0.017834370651265863
0.003782955899131782
-0.04490347748370323
0.018461966003458622
0.008523238718429459
-0.02334065273181889
0.010059707714178991
0.041609004473276395
0.025254407943573576
0.03877676694622482
0.03357828869373055
0.015791615517164844
0.00938092004029118
-0.05140676054742279
0.006525281837336837
-0.010461636732890934
-0.00990142692187836
-0.004627802106077378
-0.037681810484097335
-0.018714146093742886
0.03984938143118757
0.013364865551498028
-0.013226533470546455
0.008486742361842927
0.018079493911602608
-0.030233054529140962
0.02543700247102086
0.007623806978907145
0.008754973833100844
0.13316403198349175
-0.01404024485989398
-0.030252270895633884
-0.01615646891871194
0.00787180155310998
-0.036899505099834626
0.007264602092046833
0.016218215976055033
-0.01901664667019927
-0.025381431380261586
-0.011513549110405046
-0.011720650466363816
-0.022680579353142483
0.005510905697730191
-0.016543032030684794
0.015886152153604532
-0.026158223295519086
0.021467157630763893
-0.01850415135010255
-0.0389274637167827
-0.040304114969645165
0.0002467746274018821
-0.021733885216159463
0.019337986958218766
0.05341186636568285
0.002496026582326757
-0.042810047569489966
0.006082273345998285
-0.031126588667433043
-0.0002126119392786191
0.13993092459733958
0.011846353081778886
0.007478626314250778
-0.027693188617290625
0.02385185832430626
-0.01952819819186986
-0.021442852251705665
0.00015601512880188543
-0.02874719798894928
0.04083859891528124
0.04788231645107683
0.0359429069507278
-0.0263228082538177
-0.003745895768099859
-0.013326867725015448
-0.0029515985181685963
0.09569003681405713
-0.020433935340072793
-0.008409376062508831
0.031072275435613
-0.03000113310616163
0.00840074620312377
-0.016474035507515195
-0.03678867080008673
-0.0017551957912429232
-0.05097656578690395
-0.06217254386631261
0.004562824152858393
0.02152639879445344
0.0353376846418165
0.026747961989408615
0.0012535174297036381
-0.0322226017752513
0.015063579908572895
0.013235094088775106
-0.021442757658397628
-0.016978571231099783
0.004122777195231776
-0.014059025219057782
-0.015110584631960569
-0.021510678231842287
-0.013351090763732986
0.07082860421993765
0.03276030151410844
-0.016431494409132476
-0.0014274087969336042
-0.042732287795565156
0.031786065779963034
-0.009979119651385846
-0.04169823657728443
0.012107483563739177
0.01103812594351733
-0.005272140769742306
-0.03021444610365654
-0.030878680784486093
-0.005971848279416072
-0.02372045006687397
0.013195291492520383
-0.011061815914927256
0.013998692912635462
0.0198379674177747
0.0034961060534867065
-0.036644946654659796
0.03879389945037684
0.11135021943548482
-0.006638131135823183
-0.005066798865707072
-0.011956856203135614
0.02531325605236738
0.013090985742569257
0.03701530692860579
0.011288545813111112
0.009711336653438058
-0.028038040478019773
-0.04462947566616062
-0.026894109292633212
-0.01358308730211597
0.11850335897749906
0.11720897214805699
-0.050930166763323986
0.011912272543458391
-0.001037100448604301
-0.020317309128047665
-0.06250949318102789
0.0013658050283132676
-0.007537004665330279
-0.024248778616771154
-0.043904055428726774
-0.004171092694569798
0.017125825370822603
-0.03451040614817937
-0.004114066894474991
0.0055601667510226365
0.024490297792430747
-0.014300003565649899
0.058816596104832516
0.059416946060708895
-0.0417702777556252
0.023656058659065594
-0.014488288916099995
-0.17184382578209478
-0.03885389768126525
-0.005752833080014441
0.013406706288322431
0.04608849219805242
-0.006582162301081654
-0.006789716550952548
-0.02264133123378068
0.014917679604486546
-0.0012164984649950094
-0.04510533706060928
-0.02919409902086872
0.03477249329744157
0.015851397196614613
0.015621868886852686
-0.0007831958447578101
0.001578141793654888
-0.04674246538602111
-0.015866330446584174
-0.0026091289992271234
-0.012599990571753034
0.005282824613327053
0.03215259548553952
0.028559941938562938
0.032041951817379545
0.031302902577276755
0.013963520316387295
0.008895150136861655
-0.012596938154350503
0.0009369633225769651
0.013603784546354905
-0.003861022013211973
0.023487529294324117
-0.015595276958893374
0.0422453102825336
0.02741807676435282
-0.03918406511067153
-0.010819746799394615
-0.0017221423218788982
0.004151387125752287
0.005790534650265204
0.030944308796948553
-0.017609057251227286
-0.004008496238745778
-0.009661855725974335
0.01153240019410406
0.020333754798908737
0.04347366941065461
-0.0626052035072249
-0.025183721513817182
-0.016207013564378654
-0.04278616535927346
-0.018583387314861054
0.008434524340698971
-0.03789933501708058
0.13255951245033254
0.05650099183846218
-0.0058184775320055315
0.02226103906423243
-0.03710768614260229
-0.023049175640819045
0.019554294346060343
0.0003113429919667138
0.0028389698585725024
-0.026099927002426034
-0.015863160241489097
-0.02680940044069886
0.0017466169297025225
0.016460758610256285
0.007248697094400654
-0.014143599420910877
-0.030300210993450944
-0.01572277582582638
0.0003469246188495443
-0.005022122723515407
0.07556694028625596
-0.16122958745573718
0.06418382474492272
0.07500534270121012
-0.012904243009531774
0.022669355157123712
0.011188545523176833
-0.01567075128209704
-0.016969877674834866
0.035936862231621985
0.01906886553772305
0.01690132750189906
-0.01715530049701201
-0.0010610767965212279
-0.0159336006621656
-0.039370568152445794
-0.01061242238453983
0.0022629072252284294
0.011707423219171613
-0.01867446355580153
-0.016074907998158236
0.008712384767162825
0.03582598417453554
-0.002287154855990296
-0.019417611535339472
-0.021087321962564548
-0.02423994093967137
-0.004062151242922166
-0.009495858687353026
0.030167237618712397
0.002831485829905426
0.022433993477134144
-0.0013087299973554884
-0.030619792532199833
-0.007537049516952548
-0.03571367021408008
-0.07424408596450777
-0.02099810987923988
0.022169247446406762
0.015231041799879094
0.023803263380966777
0.0010324748074844506
-0.017680142302180953
0.026744209894954057
0.028231787972670123
-0.03210459546958423
-0.016745339677131817
0.010402942486805249
-0.015920499904687115
0.11697400171223499
0.08819180625972238
0.011400541391208203
-0.009989452655477979
-0.026292994543241716
0.015692431164695618
0.023263873943875465
0.05449038453966653
0.0018108408319814063
-0.024677807429536125
-0.036039789720089234
-0.07569013188230803
0.05727408467664626
0.035019966677243546
0.0003211048039416419
0.03556909701566354
-0.012770234445066067
-0.05559576060032138
-0.01728073391019948
0.002580925718371771
0.0030228816585491903
-0.0264378311498516
-0.009681632204941773
-0.006912822538653858
-0.031315163837700194
0.016380086709937403
-0.011574925691259496
-0.004190240602596694
0.005104498393628849
-0.004796022935243747
-0.01890564887596962
-0.03654315560241382
-0.00017132456027480782
0.018909882150546325
0.05612917960655303
0.022152042870284515
0.05146638118397874
0.04255293705024203
-0.00626135580246128
0.007742359488011716
-0.03154663615491185
-0.04779268323955961
-0.015137976262235111
0.0018173286419420397
-0.011524636777373856
-0.015114389861810129
-0.011507776059567846
0.006276527146213027
0.009078823826968733
0.006015819916969748
0.0051105526324011575
0.0075093610931417625
-0.050627318166517644
-0.030977406939054937
0.004936092577233161
-0.019748444416666906
0.008700469973676532
0.036874385739910205
-0.01626380722352796
-0.00482730612698548
-0.005355057196264064
-0.02367227007427468
-0.011827288325759447
0.012626875839827066
0.006014501724745229
-0.0005206918192179103
-0.011872967959443757
-0.009902669240139769
-0.03430660953867071
-0.023485435872137247
0.014172057090969387
-0.025390909837902514
0.0005961024643861932
0.0380316677239115
0.005482436014050351
0.0185652001664368
-0.037095831369945896
0.011697187533161051
0.021353409802944694
-0.03193175725004361
-0.056445694057251514
0.155500197465725
0.0784688744283833
-0.05560490717453121
-0.009684097926186025
0.05246451259985303
-0.012171577467500295
0.17932611072658108
0.11235191190531361
-0.015477695496242342
-0.09619645631222656
-0.06029826104930711
-0.006832389966783385
-0.034209110894250945
0.008239644593759714
-0.0618362298450141
-0.024936420733189118
0.02384724638085502
-0.015659725270930413
0.005194476399920143
0.002386516367018216
0.01252245570577092
0.026361575033380463
-0.007641869973057267
-0.011102031715622816
-0.0027161112413232598
0.007920389410621696
-0.04274957981768164
-0.01763341230823144
0.01656482752567438
-0.0016950052982872214
-0.017319254512663952
0.008657285161501776
-0.006446859568081879
0.02052395808803759
0.04252553327068217
0.06223098234172379
-0.009236382034404345
-0.025274429087156346
-0.03214649980406298
0.044290539092050135
-0.008647064851182903
-0.07012814569502614
-0.02007969081689213
0.031759520196307234
-0.12651010068826202
-0.06531513212807397
0.021441423548209576
0.04800564194560825
-0.04106265060313247
-0.00909175835779056
0.003333858642590789
0.01022602795822815
-0.003449895950171136
-0.010394733079818023
-0.006625505102230039
0.06669124390041917
0.11002688154175382
-0.01750885981056896
-0.032097353267527225
-0.07925684342018359
0.0331919117196364
0.059133240512451626
-0.017832391436195066
-0.02259868816595875
0.03328768493069834
0.01979142355371189
-0.01607438941446495
-0.0002976966054882264
-0.014248092362189184
-0.0062191700696686905
-0.030130776270188012
0.10306630733103099
0.04284196833603947
-0.008514581060697081
-0.026025665075154795
-0.03150778504570572
-0.01447000263735105
-0.022411081143850622
0.003494261304779058
0.017978406197346475
0.029839257100985627
-0.01786070006561689
-0.04358663259749645
-0.003283647184514182
0.05096950314561454
0.006635201759815719
0.04217168827924729
-0.0069625109778066775
0.001378373892226463
0.036157964715780595
-0.005406886382017396
0.0009413831292184681
-0.033448699735786305
0.014925544176764257
-0.07905578328988278
-0.03274652968744793
0.014445147901336705
-0.03741232017678411
0.030871296323818118
-0.022481880459352684
0.035497167470862664
0.06324674272039588
-0.0034244992466211316
-0.05694390916234852
-0.06100604089992523
0.017923383464345084
-0.03448720592547256
0.009217169720554632
0.049024359118711544
0.020800306292178623
0.028464256270472645
-0.0030616158793568965
-0.014341689846844662
0.003929657502992341
-0.005249010042493074
-0.02845285888014829
0.013404196228702385
0.023833849020200002
-0.012178001961941071
0.012032700133663315
-0.013794043922879957
-0.026988926240867
0.005123213026975678
-0.005183574490146626
-0.026543429739832636
-0.006587208826039503
-0.019519971198086895
0.017348404497030342
0.011165338006703038
0.06954407674962003
0.06513624662109752
0.023793643398584082
0.015079174186608237
0.007756936097477708
-0.04685999793883033
0.01893473923812464
0.045041859888470225
0.007871452887795814
0.018413592297588245
-0.02855950126806019
-0.054551975802208365
-0.01736302433450348
-0.01402932126097953
-0.004234102625616206
-0.0003153243453905913
0.01664132034621935
-0.06001006192958549
-0.02179834204528362
0.015027391753098281
-0.025137169957713507
-0.025260045914611163
0.014365927514080388
0.009432829839301944
-0.027090923155719815
0.0024019477685591384
0.01888901261850953
-0.022622681163403
-0.011075401969995808
-0.020670471649301216
-0.058911517377210114
0.020322424039467456
0.025344443033905366
0.08961353192617401
0.009430358350438789
0.015743964947135525
0.0321244374051477
0.0021069357895726346
0.0017385896927678778
-0.0035797868140128282
-0.05163742162706277
-0.03561666611156252
0.014280984950934973
-0.06152279296585441
0.0033656927728385874
-0.0664610245681742
-0.052908321567531724
0.057686204372817254
0.03812501303529258
0.030027760218870766
-0.0017240817325819605
-0.019855467793974346
-0.0382424812816517
0.04935045756319062
0.10933720845866507
-0.029775596274299022
-0.040591155253937396
-0.04394564510546701
0.008167312064640051
0.0138314123735482
0.03204033149730524
-0.01128032101882663
0.011654766012711332
0.038402445344235495
0.05804442036920617
0.040131119639103076
-0.015337174829899101
-0.02341280564792055
0.05126771928541465
0.028408117102768762
-0.001104056962449458
-0.017892363834062425
-0.0025925022284236554
0.016102732365920313
-0.012608511061403689
0.006228020021005974
-0.020476218894957602
-0.007549476630619898
0.04840409953319797
-0.008982652758822844
-0.00012309442144992959
-0.017617366455512297
0.039240176351631455
-0.035784228003776244
-0.1429793285115484
0.035921104890764874
-0.026317145781211766
-0.006223706931437564
0.0020422207755102263
0.007219177203966741
-0.04995999697605896
-0.028838106094385325
-0.05046492568295674
0.06166396974052786
0.012249388052133183
0.08511883376998691
0.04903907887117807
-0.03483315551139808
-0.025606351727172075
-0.05283784411287928
0.007651224089314314
0.012805783402243524
0.022294220786155356
-0.0014286918838283382
-0.10285974203303391
0.030354070165946868
0.04144390582539948
-0.01221982997317163
0.01673078939224788
-0.0014387882509604676
-0.004708420500853713
-0.04884386440609653
0.029203231144479425
0.005595527557487251
-0.07812518631320617
0.012766700444174085
-0.00794073979777675
0.0072617062202683805
0.07258290621601782
0.009909922539357813
-0.014148056965169825
0.00015319752952886283
0.003315698896542285
0.05135605152440919
-0.009116640745199642
-0.029177724136173505
0.023922460285136612
-0.012216507477957193
-0.010046501500754233
-0.020227259133180353
-0.0310660470491433
-0.02247846387987668
-0.006167602567906699
0.01219401525774963
0.02414295204788011
-0.014988826091843111
0.012618682536725245
0.023965513025617814
0.011160421812921333
-0.017258464173115072
-0.0595433785334806
-0.025974469300600652
-0.004415135441399618
0.11241747395622666
0.0647139681755926
0.022676182454342216
-0.015518118056382112
-0.0012192810955776756
0.03241853664964887
0.0736373162732456
-0.03818900984641894
-0.04581004847595857
0.009332336297015707
-0.04054139002626987
-0.016988854803267027
0.07746403736304441
0.04014488057133578
0.013394535763996327
0.06820224576697136
0.05367757121894247
-0.04201934207343264
-0.02282696948821017
-0.03935323132224117
0.02004676128807714
-0.02522239111670359
-0.02951321951430557
-0.08377724325803523
-0.057515194095612426
-0.028417801169921517
-0.05128850476006948
0.00150193266569373
-6.931917707618815e-05
0.02273475827880059
-0.024745515780035796
0.01719532606802797
0.07066264207617826
-0.003046387174143535
-0.02873467467306003
-0.01561270025664741
-0.023638983935853463
0.006405345942266067
-0.06036432887406587
0.005676433095974731
0.007958566280248465
-0.0003330501334865607
0.02159698332857607
0.025314836174227934
0.08336505319365493
-0.011530990802702725
-0.0021717410747625642
-0.0007617980675797972
0.03356916113406652
-0.00043879803362630585
-0.01710681842252254
0.021398769116132896
0.02868153051395686
-0.023765843678797527
-0.04731582986420395
-0.010117698424392743
-0.05189175683432203
0.05685433129432211
0.07321645458575875
-0.03219603768642104
0.022627000462747654
-0.01895720553238411
0.0070720437010461275
-0.007277525398685024
-0.01387480475788226
0.007060142698750951
-0.011498045148134
0.04282515545725281
-0.011420845375992346
-0.0109141122278299
-0.03388266815323926
0.005385788919278025
0.016914865687477045
0.02110838922091823
0.007816615384098948
0.04391847593794852
0.031820786304141084
-0.02323341932094824
-0.041102712475957544
0.030469140057348996
0.01017417427615815
0.004888115376525581
-0.07559797025992104
-0.10163984338593823
-0.035477494540388545
-0.008007991814828508
-0.013674373627876017
-0.010482022155596116
0.010143672592212313
-0.020096323787673877
0.004422173802060312
0.011411231937912448
0.004666629231333646
0.023170967041944525
0.06292453424611315
-0.037759284303174705
-0.05613625282949106
0.010962182803602982
0.043330106082617816
0.08669767738830836
-0.005088183506304418
-0.020218623186920442
-0.006671552557177847
-0.019233146150827652
0.022659023372364858
0.09074211651291726
0.008122430233439351
-0.0190895600140258
-0.006944125328681509
-0.0013925744763741083
-0.011915131972704007
-0.02283410094711412
0.01440450549211125
0.05010032916757794
0.018477175502279616
0.012376464502877675
-0.0024097560714735735
0.033285946062147666
0.03761672406612207
-0.026365195658082936
-0.016371794498018483
-0.03840727618059615
-0.0361780558023882
0.01178496849645077
-0.041486056751159656
-0.03292118211280609
0.03489625037742806
-0.05645623976268638
0.013396047744615277
-0.03607652814826598
-0.007618330535211066
0.020909721423541316
-0.01881494845144333
-0.034989185463657084
-0.0436792852287737
-0.005899435324004061
0.033692966065665
-0.020483366381208692
-0.02250633381075055
0.01763399666168128
0.02208916445362584
-0.0071681656143089
0.007044320825366127
0.09439696381916723
0.020827939845724917
-0.051742049396987025
-0.011356935343804202
-0.020971613871981258
0.009865262888459122
0.0030131584557797297
0.0339614677442437
0.07058845634186325
-0.040497548306263224
0.006586815238685646
-0.013030944996727519
-0.019220996188962072
0.0112658729093384
0.016579875994015756
0.02307339389696726
-0.003640801177507344
-0.007967333090393287
-0.02808620742044358
-0.024262004878320552
-0.005482198599185432
-0.004471396282527068
-0.024858715289209816
-0.019692128941573055
-0.0009902591384143762
-0.03748790340897681
-0.009169850729481541
0.003232219620731133
-0.03649559357117828
0.012420321277282643
0.1856810060065778
0.011230306329083138
-0.018949853627220913
-0.005006300897138055
0.061520152177842166
0.019833844620929377
0.00795723853443698
0.001632373335607299
-0.022062619241673454
-0.04483653044812354
-0.004014710315909179
0.04243801999733272
-0.004882390149934377
0.02193572192763703
0.008179854853066977
0.032789856868311096
0.006015310475996853
-0.0233391673242797
0.016570744701594267
-0.004203912772682228
0.0032981393158353074
-0.009806989352930352
-0.016313161335945986
-0.0567552296018577
0.094265314209103
0.0496712143002828
-0.0490757659514557
0.011390916782413017
0.0013992924228147208
-0.04554137072239747
-0.023168827398178854
0.08637011563736428
-0.016796949963100907
0.007406994549582458
-0.018028504490451763
0.028237504658262216
0.001351212009837763
-0.007333814060331722
-0.03808496020811554
0.036752523094660795
-0.17494083793929938
-0.1271187556126696
0.0340365640527314
-0.0152059792360792
0.0017902193513178017
0.006999185753678986
-0.02298525503852645
0.004352311821323512
0.031079724075437867
0.02496993337484669
-0.013338205722374676
-0.05602374813817657
-0.0052119912728645235
0.007820733990065915
-0.014229005037653713
-0.10150461325501567
-0.012716573276485413
-0.003936934912718058
0.015056579190604717
0.05811527927177866
0.0007140602047159134
-0.026474372151206627
0.03395130588905535
0.1356030213953236
-0.1254258673279538
0.06266251182407272
0.011804151690508365
0.01621352736669398
-0.015505191905305474
0.024620511532947035
0.03624629979321401
0.013621216809623119
0.05243379982030225
0.010586205745482816
-0.016185686891169695
0.05061604110334806
-0.006964759793533661
0.014745029897312674
-0.017231644162030612
-0.025491121462116254
-0.010279567807194094
0.030294778438652557
-0.02972071938760087
-0.019579206653937718
-0.01989637275725392
0.01395326890126181
-0.036813268514148255
-0.02182276623306257
-0.0379100179000097
0.07854646518169366
0.008024126977280277
0.0015036159038073836
0.011950112439712859
0.0017739089335525138
0.0031435470894008418
-0.01785581367114312
0.008047777963079802
-0.013050014788136673
-0.008784767529187693
0.007674653498222157
-0.003280769391277739
0.005596291903224765
-0.032903152431607234
-0.015424880136788145
0.041380665421270696
0.04362842083099446
0.023862728712736536
-0.01651276211405617
0.0012626878813991234
-0.043581869999736185
-0.00486151335925239
0.02144702749503678
-0.01593305514660466
-0.004411137754496312
-0.007772193309724611
0.008821864089854784
0.020085788856857478
-0.039736098503149894
0.06618765080575365
0.12583586084758572
0.02171534304208176
-0.006682501036305547
-0.021305637810098303
-0.00030606062962760253
0.01644637377562097
0.004898385157158002
-0.03190836013770279
-0.006057350484627464
0.017909003597071472
0.012727448903641412
-0.04282670753284652
-0.02955577368375218
-0.017254722227571483
0.020684590283834667
-0.03983486204175126
-0.009393721132080507
-0.013564500061776844
-0.006204581118932454
-0.018392116673087624
-0.06735631159861043
0.014287914726590904
0.021892009010003932
0.016631537212957192
0.008536807283179843
-0.004588186585073438
-0.01710461729220546
-0.0028017723926361793
0.004560983694663711
0.020153700169397243
-0.0050418772838018286
-0.04919653302257125
-0.006037801499430124
-0.04544959804923244
-0.05761892622185203
-0.012548101689948245
-0.005341889082340792
-0.026732124534143326
0.017426280820332415
-0.01618524655529701
0.06857545646465146
0.03591383416788066
0.023188927935858125
-0.008729374598455904
0.043751617207168185
0.026828843744089958
0.03410008360142675
0.00499164793746916
-0.021783855822799778
-0.03029287177181518
-0.002510683785009099
0.0026081039192139745
0.04176909206208682
0.015168076001633562
-0.03362101609254452
-0.04222013390786286
0.026329514700484592
-0.00044029017100023863
0.01621226247062171
-0.03753250770265674
-0.02866011231408024
-0.0426397154372021
0.001600418433496475
-0.026592139948808304
0.007611021435924428
0.013925315263279281
-0.02128764208091282
-0.025830181749561924
0.14107627174837056
0.11845202124488176
-0.02768017757252776
0.004224645437887568
-0.013933743503914816
-0.01776823108364669
0.006670298202818884
0.03433539769534114
0.0012796314262875522
-0.053418500078974814
-0.011154145263100643
-0.025681622083987932
0.03314701554417098
-0.02995150326634605
-0.0518425051064168
-0.026751931617967406
-0.013178867804098392
0.03660557273637418
0.010363917489920339
0.013567874215053595
0.041336889561538755
-0.002533251303145971
0.03335261927860968
0.00898658653571616
0.03189725510684978
0.05804495014648359
0.008826655027707594
0.001275990659096231
-0.010140002581679554
-0.08494084238638089
-0.05049254484621954
0.049474448486802845
0.04726693063379955
0.012437450075617057
0.025273227536344194
-0.024471936103677584
-0.00496406390276522
0.0310422937185782
0.0033844707444513253
0.011307907685532248
-0.06131289794680103
-0.008831972817390805
-0.007919421813813042
-0.006258848734997324
-0.0056362067141984525
-0.016611340865877438
-0.018114909200061046
-0.13909280581639158
-0.008013216264827368
-0.059441310493877
0.022394780809407478
-0.014110375868460878
0.02765461530074039
-0.01867824753739945
0.11370274535944448
0.06897176260690872
-0.05162643330631081
-0.006880075234107526
-0.012200552186927963
0.06015822901819466
0.007514327554841643
0.0006360687797193967
-0.009500332299772166
0.018157135920419454
0.0006224000080587907
-0.006662276566423962
-0.01796454178967755
-0.02100088913885199
0.010846631418726807
-0.07742328836068524
-0.07419309721164068
0.07100915932502076
0.029780053071599318
0.016699202166161577
0.01633980536375471
-0.0080892954461044
0.005301367447425737
0.011948692935186078
0.09198093377992224
0.026278400217301417
-0.01138746803356165
-0.0057531417923837366
0.019376273564559007
0.021061486137774463
0.05577108974737527
0.027683835020062234
-0.02466495995025071
0.024195642843816742
-0.005123735891015356
0.02502402327220927
-0.09756958633048576
-0.16740211943829775
0.020765595492705066
-0.0007937038450067089
0.01658034373683611
0.0096901038978568
-0.021132603204249617
-0.02884647664551634
-0.015098502431986753
0.015129276368053645
0.10159673997928279
0.029498338164584234
-0.008764504288420656
0.006155132178208862
0.03585291214188513
-0.1816900697494536
-0.1659374125985844
-0.0006265405594096162
-0.03234309415112048
0.026324141142402054
0.061410882608745616
0.04274077539237134
0.001981639881672056
-0.04169230352534188
-0.0420060901925561
0.020897679147814638
0.0021775261514515335
0.008579600125945438
0.024664219359206006
0.009464960220789081
-0.02584468030532204
0.011855338638633873
0.015526562496709667
0.020866907517460648
-0.001150024489927418
-0.018103733822717887
0.0023363646774364625
-0.0029154479959255138
-0.0385530843604217
0.11752718957704902
0.07512567899108225
-0.024259665795198664
0.033261757878925775
-0.012549943152021877
-0.001223670559197522
0.011461721569474687
0.002160947660034638
-0.011066224315525059
-0.006342252671397946
0.007121702499448076
0.11277734127939534
-0.01608362343386149
0.02385569506926563
0.04348460165677714
-0.0033292337352508446
0.0021262949753950203
-0.009196854364637205
-0.01701407207459313
-0.02033611302309684
-0.03345028493455478
-0.03387541927461454
-0.04605005751742741
0.03303220225113441
-0.009240025491016629
-0.021458918324692954
0.016633313343792915
0.010771807432430325
-0.01836571004612004
0.00739087191830329
-0.02241803613697808
0.0029672693955934666
0.004061366917669302
-0.017863234236875605
-0.029111514981999303
0.005650775410145026
-0.017127159161081203
0.03168920037645235
-0.01393653971612804
-0.04048852302310818
-0.06372701802106698
-0.013105904188433064
-0.016707826039435002
-0.030569035195434413
-0.004278539996008221
0.035166508554886386
-0.018671463151817416
0.033574611936830125
0.09227209398098946
0.023310399231377076
0.07509571675601787
-0.009564460119863363
0.008321326861663036
0.008864879657232809
-0.026898746783575893
-0.018835367570057368
-0.0231729248718972
0.006852032484738968
-0.00832550770324463
0.09362655886014289
0.0337587992447791
0.04949561450163792
0.09691929666440882
-0.0014677261209421612
0.007520276757550844
0.011715718325006255
-0.13794748454956166
-0.09147085326740376
0.008469982989294578
-0.014227139441192528
0.0347481939701411
-0.033011020745084774
-0.007555741251696209
0.04055462477476241
0.002095660300023638
-0.011874657335172725
0.02971849875268013
0.005334120332387438
0.008427573812175931
0.08258211983390167
-0.007289366199994749
-0.04332532823789437
-0.10167504970988724
0.06014797900643347
-0.03625852982895644
-0.08091438655537536
-0.1428803269880953
-0.004454541222384409
0.012990894783163981
0.013193100507824388
-0.01819316107977486
0.06534550967811929
-0.05604204605273298
-0.0756465958876629
0.0667877788828979
-0.017673279060023687
-0.0409294511225902
0.032601877652420216
0.010787226828928671
0.006006544282474555
-0.029126571262444247
-0.01662773100395857
-0.003412313907450489
0.0134685437796585
0.012007251205489905
-0.0060306819610350185
0.0015723087402107563
0.03798691973107311
-0.021362829310651536
-0.020206989304158866
0.12702785732374913
0.011583695977326974
0.033315451257128655
0.033365008720597965
-0.01768314090622484
0.014863642138061687
0.023780311658151195
0.08682267766365916
0.03241291643721025
0.03858754190881246
0.017185754373185685
0.0027230406630474706
0.01500620772720591
-0.006616811848816614
0.02622132358862778
0.0037073153554989338
-0.0016358308727438204
-0.008118542829470898
0.03469719802712122
-0.07697618366983776
-0.11189734575457233
0.019798950948794785
0.03465910389140217
0.07492395125329772
-0.09893792792596885
-0.1860353960584469
-0.00645203333293042
0.004894121798862264
