0
-0.04601458744855744
-0.071475679109784
0.07667056101786335
-0.01017447983839277
0.009578426597219608
-0.0048393125767548185
0.004218782850282346
-0.009767317306304441
-0.02654276637865958
0.05568306907988572
0.006674911603409647
-0.02856305993722831
0.015561743167957356
0.010986867228251375
0.039409486526611484
-0.016615266190179508
0.026560252680584717
0.06525510496883222
0.06066415605472959
-0.05396350857308588
0.005361846804001891
-0.033811516587074195
-0.000996527888864083
-0.11480496269778102
-0.11438670669827831
-0.006025556730070428
-0.02027300617294311
0.03336658733375436
0.0069375646304110266
-0.010403950193681698
0.0046634461614365
0.01912483664690162
-0.026044004936936916
-0.0016817146646881617
-0.004256029027568952
-0.029036212804560143
-0.16862085067318644
-0.05483745995158809
0.031039794839211522
0.019328894128629138
0.03305209104847332
-0.024989748526010963
0.08484175440606559
0.07778394057291667
-0.06883748680294466
-0.008302466127491684
0.029965581269825035
-0.024062944741877527
-0.006099560271116497
0.007798634723509838
0.012191380189427463
0.020736837560045965
0.03810884917780243
-0.029591733341684235
0.009847268275367919
0.2519636709812333
0.030706519789765522
-0.008421974418869431
-0.026005683067110673
-0.007502444954696874
-0.032247931582804125
-0.047852874179331616
-0.051449397296112115
0.054670877933621354
0.021109623782383746
-0.02509903089818294
-0.016152036000874136
0.006772639763066508
0.025088640726742616
0.018174935363720293
0.005138687903538924
0.008672472844977594
0.10546731403028128
-0.004275947260127315
-0.03808257541667837
0.021722509142752394
0.016993721667537685
0.08482503450596353
0.019246743569140023
-0.022174047096261904
-0.02644922897060044
-0.0566855794308136
-0.09455583642337756
-0.0004499850687329311
-0.07313409040496306
-0.24629297497981728
0.03817746234588809
0.06042141769798639
0.03357084525270772
-0.0045874522759462655
0.03492135288905194
0.06530146684676891
0.010802741021934875
0.006597591792123521
0.01606915166539818
0.015826541159272716
0.0009564586509479672
-0.0027292948952470546
0.0046838969037974664
0.03221198300469835
-0.005856807206838919
-0.1119723809680026
-0.0007137848517873408
0.05138006121835715
-0.1444631600986231
-0.19116955691696128
0.11280452302511473
0.000871275941844577
0.07610824913514726
0.030820093734184133
-0.014108448800746066
-0.02157139436667747
0.012192087416757601
-0.025665197558323492
0.07678664470969154
0.06442536673919937
0.028997137658986517
0.024546956202314917
0.023492334590218603
-0.06383207909003161
0.01253842304763874
-0.017041418512314888
-0.036673543444146584
0.012130164238758607
-0.007175082094762106
0.014179583273076314
0.04536768872696238
-0.010523619166049825
0.010902352119277479
0.016151537686824053
0.024429898432902337
-0.05656358778648035
-0.0038455550118718187
0.0004546304522007203
-0.03808034112572905
-0.020892021006581492
0.018752293813937032
0.01392753554316164
-0.018950100804509335
0.0015667496018151338
-0.02812289890063202
0.019626736088539053
0.030576580911907594
0.011815206727294423
0.026269507879340744
0.005628139270070912
-0.0027058226182462477
0.02072562069999332
-0.0028350741292863216
-0.014428530299673007
-0.00228325367601176
0.022721245434657283
-0.016706219887526574
-0.014303882206926155
-0.013073674576878053
-0.02699475582675331
0.010210250263245586
-0.008133985039446569
0.005287401166530419
0.005539308447307364
0.001974397597296662
-0.0009176530479072365
-0.024530781641512903
-0.03913912181323539
0.009146537252427412
0.00638295727182512
0.01124820402699321
0.030388430907624234
-0.03794531901488805
-0.10154603552693368
0.029935508794781535
-0.019998404082403776
-0.012268015386001157
-0.001319873409674285
0.23094639088892993
0.04087716322286109
-0.21046064375757684
-0.014035973291901257
-0.010344827604405353
0.03831595482153563
-0.02633267579532478
-0.009960856858686194
-0.013363570993996543
-0.01232212796381151
-0.009841187714599747
0.076461536455682
0.011570242184654626
-0.047399583196197435
-0.01983441887048961
0.04850972472554545
0.029119393714261005
-0.01373548193167829
0.08576445434157942
0.04890218634957684
-0.04872319462966129
0.05029634049993434
0.043678330570232786
-0.04570855050973127
-0.013565491600658546
-0.02943840431117255
0.0029849328675681354
0.1025291329338465
0.022170297787656914
-0.03089254739826265
0.01614041691361851
0.09047742899414872
0.011430615602021904
0.028038505862266267
-0.010007685337439872
0.01244852389333308
-0.27158392105889
-0.1697124716348451
0.0418121739894312
-0.018283685931541352
-0.005649883976363234
-0.043247384164648094
-0.01132593400925687
0.004851177465498326
-0.015180134057945322
-0.014197561500136327
0.0214049759854229
-0.021552775427941772
0.05110460727422978
0.14005333159661618
0.040840196618586885
0.0883037632414917
-0.012333767924176755
-0.022407082850653636
-0.035371830346210165
0.020491621575799607
-0.003920397601685071
-0.04763760681890587
0.005694548975445796
0.014827353419783538
0.02533742746947598
0.011276279033038046
-0.011533058924909547
-0.020227790004331992
-0.027128101864398048
0.06747861199426951
-0.01295474921169245
-0.03160130445226874
0.03076105383273022
-0.03872858344706222
0.05501303154677983
-0.044425021182030684
-0.009369402027856907
-0.0008317984844011277
0.014838665273494738
0.019235375632425937
-0.024726378457923977
0.02858519394582814
0.11670133365298015
-0.018969107456642584
0.026820060406210825
-0.011290846661169215
-0.023470500563831022
-0.006403654274118809
0.009445913979230404
0.024708819178502883
0.0007951845293299262
-0.028929574139438544
-0.027444221250271794
-0.048898882502929196
0.00937791823757294
-0.033938600709239236
-0.03999721286233449
-0.04295078826171941
0.013127133338571777
0.0032809241164073093
-0.004788483967919084
-0.011080464408099204
-0.00047676940254383067
0.022975227607988955
0.0007418060742568636
-0.03146199172757124
-0.03698901722641518
0.004293125373053366
0.001824862703975003
-0.0669895530628615
0.0027298369107944032
0.005966401831977843
0.03106275257619229
0.01077632079589837
-0.011483696328557025
0.0011136368501860055
0.026522204833163473
0.026877296735540217
-0.0331905513516923
-0.08405271726010827
-0.0020719449646266646
0.007451680518256014
-0.02245792349453397
-0.007225782287247317
0.02017568329691884
-0.008490780335934391
0.12432261042752914
0.015277779439745391
-0.017833025452146024
-0.02914034588236232
-0.055852502965467156
-0.20532900771944929
-0.11281447426907952
0.01805707128843468
0.2095176840687629
-0.031064047931021133
-0.014477314742168592
0.15137156405036273
0.0281863984861345
-0.05874495684672795
0.14826806234270384
0.17199537967747774
-0.04896470680767314
0.011824867440425926
-0.03456596379793624
0.0860558092643612
-0.01321809845572278
-0.013985053003991966
-0.10322488710783746
0.20667495456155463
0.07833924087733292
0.02120630670618468
0.010077241786669912
-0.04006288137884204
-0.028713216311075547
-0.00832865999881262
-0.00862504049467433
-0.026525635107565934
-0.018984912873391144
0.000734795594269732
-0.055494930779411124
-0.05802743613551976
-0.009528012182928643
-0.01641544919699752
0.01677812177259345
-0.024173922495630416
0.05424840950269509
0.025002146449369447
-0.019816977481470727
-0.07698722719238753
0.009712927231668033
0.011067624661424793
0.01027619913016174
0.006101593273328249
0.02534594977764034
-0.019621975817799668
-0.002750211378752697
-0.09376614365248176
-0.044229081868716484
-0.07972723456711221
0.03478421935720365
0.03867274562568022
0.008449400823723417
-0.0042271966666338305
-0.004255708714695386
-0.029785056497279618
0.025143857052253648
0.024240269306515135
0.008816495139967906
0.008043252863948072
-0.019665662418738347
0.00350974278904569
0.011699344445352911
-0.022785718847047696
-0.013167943096112002
-0.03959215148016804
-0.022161795011178896
-0.018333689286296345
0.02443107516302597
-0.03211613168267519
-0.04660831223833632
0.0294119402527778
0.043795679418212094
-0.006730814059074042
-0.00486400890041955
-0.005367442352005632
0.09756776740271075
0.12201533685444924
-0.03985759892173372
0.028399523384347536
-0.03361600637784928
-0.005630262522174272
0.021193605072953734
-0.01214477162076303
-0.08366026889920314
0.0475390736335449
-0.001770338614134687
-0.01549304826000382
0.020220920694659465
0.008209024316704575
-0.11046982370047818
-0.05294297192775322
0.021713584792459932
-0.03198691845829222
0.037222170755139145
0.04826404928342274
0.021337695765835676
0.06154387990052502
-0.003013143348788264
0.017286621745090807
-0.08892602915767608
-0.15201095213240048
0.025105221045532415
0.032686749321084785
0.03271344139856308
0.054331931143446706
0.03640993035732479
-0.013695637186255591
0.018882812954677825
-0.04807048071148785
-0.05993176547647282
0.0305435447196218
0.08045271366480486
0.21609180835314837
-0.1354407634580129
-0.028165696530942957
0.02465297941947816
0.07948699160594266
0.02702276777918424
-0.024342112410439105
0.052984867916405394
0.01769555494464426
-0.17290260707973573
-0.04173089504468134
-0.018233126089149305
-0.01795868122081929
-0.014036636851420833
0.04417218775721359
0.01614354222033806
0.03405377095163186
-0.05844544350963358
-0.10260845510078023
0.013927122968343376
-0.02377410231779656
0.034834712239269344
0.08812262680689002
0.072363991007976
0.03597821617670095
0.014384249725054704
-0.020778223271594384
-0.024267391036018982
-0.0321463334498167
0.02560837801495963
0.003294635618273946
-0.0557784301413504
-0.008109001099240417
0.02140094303003097
0.0025239759178134996
0.019803519465347596
-0.029518064578184858
0.014222979182612712
-0.039065641406582446
-0.2132675793770338
0.019228354705598586
-0.006139741980623046
-0.025864258540692662
-0.024437906432623665
0.043184991688989316
-0.011023538869915693
0.170785294665431
0.08164314074203324
-0.02355127179082336
0.002646927585633328
-0.02259216933511833
-0.0028357170368517354
0.0028236985890884147
-0.024071973789584093
-0.003339017204930266
-0.02029725089918314
0.13616785189550554
0.10379860349096719
-0.02075613340578676
0.07011604264672701
0.015151448289601136
0.04909584074353208
-0.0005663535076419592
-0.07796805533272494
-0.28694464258494334
-0.0387980214215175
-0.015667563661843003
0.026194017873466507
0.04909090727655167
0.0023415289336435655
0.01882429413349609
-0.01308182973839353
-0.03138580039371177
0.005374893945755245
0.013456672399459756
0.018655330364884506
0.002367553174761591
-0.03656330758231038
0.12469593023509667
0.060156950830293286
0.0044964964984443466
0.005647357820354046
0.03357039610067496
0.009593252130800905
-0.0015591795897665348
-0.004979170568466908
-0.013974435234490674
0.00420394888563456
-0.01211000917830334
0.018894186004010573
0.0017599353934656837
-0.04288403672149231
0.005490334985401949
-0.022940124466588156
-0.015927121196695888
-0.03567426258181642
-0.0016041583333424973
0.01725329012117432
0.0065074698111161795
-0.02104022857046072
-0.05303030175356378
0.00434054698559116
-0.030867763502598643
-0.015966071097900412
0.006487631958179867
0.04035321107046656
-0.004839479485185902
0.06514044757512508
-0.005990121614414189
0.009738375291367438
-0.01865450669791308
-0.028026036544088175
-0.03604536531760755
-0.011336730412461728
-0.06552340479664567
-0.029717398131554804
-0.01273485498935042
0.02637199590305788
-0.006808911826864659
-0.059630885162752494
-0.00717847768718746
-0.0011157361420447952
0.04926216746480638
-0.012891573203699432
-0.016511053800749815
-0.00610129652706296
-0.010295587022094972
0.01256569185886485
0.07766968617147614
0.06351981561006984
-0.025296121711060687
-0.02348116775073044
-0.03392896293434793
-0.006274497605712296
-0.07162494130682334
0.02580497404294508
0.12227751352364054
-0.05085351761401418
-0.04236845950649751
0.0010780730349484614
-0.0036711318039959603
-0.0025950893200672367
9.971443957459047e-05
-0.016159226460657115
-0.08969116845269655
-0.004467554245433794
-0.0035074069699703864
-0.028290538881655065
0.03329897859535448
0.02451354436354245
0.024763759135768185
0.08594620863285744
0.001898271424115321
0.021716869939142108
0.2778140973680064
0.1524745317859995
0.04612326857765748
-0.02601014024422522
-0.033787735476159333
-0.035219752491645544
-0.014168898299307417
0.042719464439512446
0.04082295963741807
-0.11285440904832238
-0.07142462080165958
0.006230450727754069
-0.01979494511930291
-0.014197613770251185
-0.02722280913428944
8.668540292239354e-05
-0.01649731919091049
0.0015669550420499567
-0.03893150030607955
-0.008011080401841243
-0.030795670024891128
-0.05093332915439959
-0.027391332278978688
0.01603670167986948
0.01927421603336374
0.06136525265027707
-0.05634675936134354
-0.01819769347439784
-0.007717015245418793
-0.027431748008651145
-0.01711734348988769
0.06428121268118529
0.04945185769544569
0.010249857792132493
-0.0629697599296633
-0.09014311388263631
-0.005279668955461944
-0.017436376832261614
-0.022713673138242362
0.00011524438095442119
-0.005380667871825941
0.00797150726899864
-0.012837877298421372
0.1020129457791914
0.22919641864091944
0.003463380079070334
0.049998398561460024
0.013305681233358986
-0.07955911000052396
-0.11453581449500111
0.03534948904578941
-0.054445662709247916
-0.05557001229079638
-0.020097471014554166
0.015384873482085353
0.023412134136650675
-0.017874376399893966
-0.015243820825445228
-0.03890566840656777
-0.005032878759531939
-0.0357865655282838
0.009836230890181515
0.018127201344153732
-0.03916052651033247
0.041508417382139715
0.1385975439547339
-0.025227654235273456
-0.04011592990541255
-0.009408712965795625
0.014485702444659633
-0.03897829275250073
-0.017663438303786857
0.06372587916792641
0.08019254785496448
-0.05271381778413395
-0.0011328195904873855
-0.07767341795633707
-0.08715784946224185
0.06242898867919261
0.014087312829145077
0.06807076428545783
0.06969190720810123
-0.024490266865284313
0.042868558322673285
-0.026449451435576376
0.013812667337865332
-0.05644983799690301
-0.026649319563308113
0.038641792387743644
0.053042186308559364
0.14700369239636438
-0.053565218303988284
0.0049937693487021205
0.011507747928398088
-0.018856732020387856
-0.012208272420337616
0.011246342792414158
-0.023175784384113968
-0.022116383606978717
0.012646424313272125
0.02291224297098366
0.008035597458965735
-0.0007463702313864286
0.024096708893099717
-0.0639589747926366
0.0056925887410632136
-0.00562740731289387
0.008710247697499984
0.0032447306431252257
-0.032044156344571875
-0.012202257673306736
0.0019029832316771256
-0.009132006713950636
0.02387571295245141
-0.025316368977978006
-0.10223748988547163
-0.03647007145293897
0.04121837348070875
-0.026417738173763358
-0.19772946234743707
0.016355401862236923
0.036029450310285115
0.022861260927526387
-0.0008545930819506707
0.010297862298680988
-0.0034294959140058427
0.03431164053334932
0.003961416747721478
0.07157471325033973
-0.02788195267773283
-0.04337818825729194
0.0019488512272099903
-0.03312816268544534
0.026267278232698903
-0.010003297975481995
-0.0010831986507836287
-0.001004977503491813
0.03838938501010422
-0.011298985210921885
0.012461864500893465
0.005073570291090749
-0.009688912216214476
-0.001616934533286216
0.04345869964148599
0.029846954060224206
0.02612761107061635
0.001222920835589111
-0.025378533322569303
-0.00982920838975542
0.08718749533517074
0.07663361142662374
-0.11535276941795802
-0.03651620783092198
-0.0014357961150554184
-0.008931978988490002
0.002518607918845137
-0.0171425427959463
0.034084553759197354
0.006334250686203717
0.020428358488938175
-0.0034270923782426426
0.008916926648948708
-0.08944678966506645
-0.035506557361473505
0.03085105913180678
-0.022585782265553807
0.0008016258780970904
-0.006071205834758296
-0.03684640534713055
-0.011884158661925739
-0.012058225978904097
0.02684319610343749
0.14131642176018389
0.09121639226938937
-0.0009361731289761021
-0.02184485487942221
-0.016744950209128737
0.009511785825062864
0.001845335342253147
-0.0021022603087965776
-0.03152381603664827
-0.05238862481386042
-0.028521908133531535
-0.047379492692658
0.010907018818014935
-0.07196199243609014
-0.0058482148306022936
0.11410576656807542
0.10049914829166373
0.10860483368783898
0.005952958341422395
-0.02279301681063159
-0.01781717570412677
-0.0393890839659158
0.0065792266865018455
-0.026287844694148226
0.02673607313079248
0.039417328044743315
-0.016379393674495115
-0.010351099933862238
-0.02537223914494318
-0.01267397211707315
-0.03399397414631286
-0.012751769909632943
-0.004301859732869517
0.038180936495972546
0.00025584442752517344
-0.015594669383866234
0.00930118924982085
-0.012446966998203572
-0.028520886671700052
0.02001017328637453
0.003353112109161256
-0.0007675470609420974
-0.008137442457770922
0.0021324071918533243
0.012047207988695465
0.008458320600952496
-0.03280790217932996
-0.010377464235703794
0.01137700067258169
-0.023285670650817072
0.00662179579281523
-0.00255620075459178
0.002285516129100574
0.008691321227809879
-0.02369178544367632
-0.00538140649751877
0.020390988584192627
-0.016508599783639104
-0.04805112100406942
0.008513847739753324
0.010243309524276573
0.033282843072080626
0.015808283522427292
-0.015764239730366145
0.00829974632202988
0.021881495476177907
0.01852112918559848
0.039274687340037105
0.017861481709157353
0.07094939553407593
0.008820578646922896
-0.08187713023958214
-0.00650156522823296
-0.0007525575446448119
-0.016464674422506105
0.01239887390556038
0.036104497602004564
0.055497936779319704
-0.026093582948345472
-0.07295290718852095
-0.003111586382549635
0.05052851277330907
0.06698163916348997
0.03030087520845691
-0.04976446011831742
-0.09054552994401871
0.03364750858156476
-0.0795002563534853
-0.15939125865737258
-0.009102300696269413
0.043388267817128526
-0.013872651687562422
0.005098178321189117
-0.016140313198724957
0.00010335038337808541
-0.03355729895322465
-0.018848118200771598
-0.05937218689402545
-0.05660513773966874
0.04870748131112288
0.0004388817989859785
0.04597189537320907
0.0035217601211036177
0.01539507510402226
-0.009306601806695059
0.009852956231015451
0.045229942462329455
0.029448695047500126
0.06069340077080232
0.010566659697026118
-0.045754083865663306
0.020914920809996497
0.021746742600864285
0.016348287311122433
0.009644545967455405
-0.023610958341246685
-0.07402612936588243
-0.00638337751336107
-0.00692714536660411
0.026326902574522876
-0.01077712817580188
0.0789850716833513
0.07820219823508191
0.022829690986446233
0.028590541134806836
-0.013229053871504928
-0.005973668804563943
-0.029440979155500972
0.029921276358687608
-0.0068580602327663245
-0.007564776972062299
0.04174151533228156
0.07089367646878186
0.016672523980436678
-0.005813128439865331
0.0022787986051467325
-0.01670081292187234
0.031966332899502216
0.06678658025266074
-0.047159825755029076
-0.023041303699112625
-0.04339648899280019
-0.05023075329583431
-0.002075878761095193
0.015475070473881808
0.009028622965663492
-0.020220198021823916
0.027018062574312933
0.03611656217685611
0.011092314899695973
-0.03825000610866789
0.030114471562636046
-0.04878618875268811
-0.01955415181732573
-0.02331587170653454
0.016063026513477262
-0.1968164550269663
-0.07461703337891254
-0.052612105964449915
-0.07898535402179756
0.029222027698634186
-0.01645171992168896
0.02153600714899338
0.0188340473524725
0.04634372725985185
0.06395062997142491
-0.015177974175778505
-0.008751320717707754
0.011308433697988372
0.024217162373300013
-0.05440187048113708
-0.028198218684468066
0.06544018336713704
0.07421145353471786
0.018549310673717116
-0.012954370273952503
-0.029431106766005074
0.000429592565529314
-0.03500311019339737
0.00020219918409448447
-0.013612950015316172
-0.025023809153181375
0.011570916349664614
-0.035022833054027
-0.00883741893435354
0.0033239833256432957
-0.021713567849998873
0.00211634698364597
-0.04383575898414385
-0.038027134734052746
0.045802017170176096
0.2433118566995205
0.007399892826931509
-0.015634242673240987
0.02274387063763035
0.025075763599512687
0.008322498261210579
0.08112169011084941
0.1208547756687074
-0.01907871998282718
-0.019670902762419947
-0.022322955190963417
0.005290107300233515
-0.008228058958869177
0.02229768155592445
0.004851893281615893
-0.0013351666211478454
-0.019902266904217668
0.010712747763175035
-0.010888304631804376
-0.058096386618160585
-0.040947182476914444
0.05868444237245383
0.09910787289747411
-0.22796310857446817
0.004576457561649167
-0.0015752999385862578
-0.019557460438548526
0.05513058251453725
-0.015539565807661141
-0.024543406646517944
0.0945210497151238
-0.10656281461233182
-0.14458249583615723
0.059971812378992524
0.03783921050421278
-0.0019163139668043794
-0.043507509231507
-0.03357783547482819
0.05838071527734881
0.006169869462805799
-0.011916377499643398
0.060893849670740054
0.006474164663791817
0.028720227809621454
-0.012600678696753203
-0.04118045107783641
-0.012461770622071962
0.05870008739514999
-0.04613700123048863
-0.023194706076719543
0.021784414157207607
0.010802168393183873
0.01967506874587737
0.03424474734831143
0.02577897057321693
-0.026338388707272443
0.002277668099721355
0.1655318973788564
0.11540250510067196
0.04601616047985523
-0.08098749805187352
-0.27483214183125343
-0.015760818308853227
-0.031226179996887687
0.02464156107149813
-0.012128083145153505
0.08687026028695866
-0.10912964469755909
0.0372092797187898
-0.012214482524508628
-0.0008523803803721817
-0.027261190977918223
-0.01105720238022409
-0.07376986106568419
-0.030355909449420262
0.00473499629886757
-0.003924075586027187
0.008892133200367303
0.006044611454344317
-0.026852111602153828
0.015277496780718516
0.027104386817148496
0.020714614588101816
0.033235726027333684
0.0367950818145239
0.01189708441561976
0.001005118783949504
-0.0438872881940842
-0.005317099873359821
-0.06400440808549444
0.141169953456844
0.02388379516368916
-0.005260919283372009
0.009846679974911024
0.024858826959478095
-0.014843698321800774
0.02085635640305134
0.014649897546648845
0.0008592027355305451
0.016079955785142763
0.011295180724782843
-0.007739870316856092
0.06162522344009844
0.010044531713034089
0.043385388254899286
-0.004763940602570949
0.008633763229940458
-0.0016394321515444431
0.017965201609010915
-0.22613193423713124
-0.1972312058351551
0.01273211513693785
0.03366213200750376
0.009376440196947292
0.07450542584213043
0.011753086391628245
0.01363012148019501
0.004903868530127324
0.016164798172905157
0.1886108002416261
0.02335012681746225
0.017960416338789358
-0.012192860452530433
-0.11948381244286423
-0.0019464681896857491
0.00011638444000713652
-0.008775700102837783
-0.009196367085514454
0.03721161419135932
-0.15589334182111733
-0.17836619178875812
0.04791363211960304
0.016134343241998896
0.005496807203195869
-0.08238272632266148
0.003890052135575782
-0.037850791913413104
-0.03529087355818353
-0.021937332996176135
0.04674478161657942
0.14923176079265552
0.07506617285678421
-0.021403320074189307
-0.02596995136567603
0.00975098641092279
-0.022616080731451584
-0.01324180499881973
0.030212267736815672
0.008733193335369276
0.006398982912871337
0.033807240416489345
-0.020440370729125273
0.013714514611785359
-0.01269065288359237
-0.018800354287345167
-0.0013552194954280835
0.022599338529454366
-0.03402356619137952
0.06131801473696017
0.027537323690272956
0.02045555562085536
-0.04859343157172776
0.04329986480591568
0.08110182697725103
-0.022755514056390404
-0.027693728919112225
0.08854173410784547
0.0570858480878307
-0.02662662174448998
0.010926802408015938
0.015041171709579679
0.016197464077492275
0.02363567538206388
-0.03055830009837952
-0.10405265098279613
-0.04662276442516497
-0.00957691018468677
0.09531462050996724
0.02256034274452729
0.01633053575323167
0.012511142216152083
-0.015123988555001812
-0.0024462602997101695
0.016209654841746746
0.11995844782309557
-0.09022843884577421
-0.12225777335428549
0.02941856659555735
-0.030905256706225848
-0.006117921194421335
0.01002627617244758
-0.04213268706136569
0.0027635826981374794
0.0044052847872854866
-0.012204856688177907
0.00019185510041122003
-0.0568643097654518
0.01556403404883574
-0.029115245392842114
0.026227555912295572
0.008520254512653102
-0.0036023371289044554
0.022579721637585464
0.049895303161478916
0.032865375013915794
-0.01625388345320127
0.04255067351535247
0.01615100955636734
-0.012346113155320991
0.002224742596752367
0.00018299249563296074
-0.017172372907651258
0.04607609066784128
-0.01046309603849744
0.049067135336656104
-0.24571277082517165
-0.15652559412415584
0.022598372780240267
0.024874588552881837
-0.03659489845552725
-0.034829506439921276
0.018888398637894464
0.007754619195929142
0.027152046860405153
0.051960473080964895
0.06696160660323904
-0.006983379369846698
-0.004503348648630129
-0.03694689132585324
0.019288133370357063
0.022406644767267895
-0.0017314829758564704
0.02461509505474916
0.036299780575708866
0.009355854423977452
0.015393752370439787
-0.02205819646214477
-0.015231280206633445
-0.07123543316462415
-0.027334213730298495
0.02184164523031797
0.007179665143465308
0.028233238467525897
0.011226911166146861
-0.03115016306460295
-0.028977142799809997
0.021675385125917265
0.011772652881583356
-0.003542182733465402
-0.038456233844177096
0.10164868922661746
0.09650274981055744
-0.02192714055508978
0.035937467611292975
-0.04195161591466846
0.03513423229309858
0.017510916580005524
0.009336757837228402
-0.03871358116461387
-0.042307097721430785
0.006971024331549619
0.0053115014649164054
-0.046995330003565115
-0.02057537647420127
-0.0037995425968134744
-0.01417837954651138
-0.015763511562330284
0.00819866934331334
-0.0050426086108794265
0.029222108776007446
0.03640190640832015
-0.018772311487539457
-0.00017273171454985602
0.005600266316753421
-0.03729650513675411
0.0010555181381784325
0.018139685549001364
-0.016673833796549742
-0.0035688546461115655
0.004751454588826252
0.03723033577189451
-0.0048638189432969395
-0.01500388738507234
0.0027316808505543013
0.06350987195490539
-0.0003689863441612889
0.01563623117444202
0.027106204641391674
-0.015530018602451253
-0.02574721461636346
0.018083319828363784
0.027812092374171787
0.006541741238111336
-0.006488685106641944
0.0010510793621584687
-0.04785990289414876
0.07863433093062311
0.09757288968934959
-0.12545072881607722
-0.011274787196964233
0.0008189923277239413
-0.021308563702821057
-0.06275237528187642
0.05967899829988004
-0.010621986389556245
0.023846910870652497
-0.025134926369158917
0.003829173168654661
-0.023941035192924467
0.039458690408637934
0.018364578135305606
0.03381396062802857
-0.24128896996884674
-0.06491535032320205
0.07417616811595201
-0.010108338456280746
0.005561039040793822
0.012847749364413484
0.00927779400704386
0.06254100637231831
0.054759685663061046
-0.010680643820461229
0.015913263663524232
0.02964850542385659
0.039715429370487
0.034819589374844494
-0.02296096967166828
-0.04154443743649423
-0.10249812159195561
0.019727230178951758
0.05894896862259037
-0.044967108920304755
-0.028456422906145813
0.0007790466169378518
0.008347150959529802
0.008060053125390343
0.03639107005891998
0.004092807921862357
0.011432102880911406
-0.00859898924594229
-0.06417853965887362
-0.021968057034926283
-0.008812659187892518
0.009940975365557957
-0.11140576748887955
-0.05982797951409648
0.04057385389874386
0.0071504518196662415
-0.022191780305908092
-0.0005953797558270427
0.009577355554152992
0.009180859854719925
0.009590559274793792
0.004914922635525813
0.21651909405967157
0.02879704362011392
-0.00790566809245525
-0.000421024307187572
-0.028667934045581742
-0.052206957947128624
0.01771687114687398
0.03127714732609101
-0.014598904436354776
-0.0202333058277112
-0.02880490772349609
-0.025757375741316237
0.020125378295916766
0.0035754068737705105
-0.000542656649601077
0.022280493870664185
-0.003163555452601161
-0.005859234651413351
-0.0020928154245519765
-0.045819303165300224
0.006054821231868953
-0.010504828920024545
-0.017223980335632622
-0.009449801621399469
0.10775729238032561
0.10967174176986262
0.001219274680974677
0.01969093046811893
0.001941083994148317
0.028055710959778442
-0.06672196430655031
-0.04561400481755574
0.010410414237640645
-0.007103756162042166
0.04358706251025732
-0.03993912103421181
-0.001597391919369629
-0.04134486816979324
-0.02651644745687203
0.016065925392742823
0.01929401976653976
0.008237837327125611
-0.05548451289629962
-0.01136217030139852
0.012030490942223589
0.004848279540798345
0.025987665304500886
0.006968238065511658
0.002275951492993611
0.02251089189458341
0.006308502433598897
-0.05575334646835353
0.019163337040881228
0.04284689289603476
0.000254659875815967
-0.007548588982898471
0.003010791960769233
0.004596386734009928
-0.006554788535737095
-0.009638100512078848
0.0026459668313954985
0.026435832607879697
-0.0085356079695477
-0.007706038872259142
0.029658627799278456
-0.017898244761602927
0.008491217144156717
0.009449327744893462
-0.03595021490036565
-0.22305956610339764
-0.011368157179173742
0.008227896697561994
0.01754459740479874
-0.03341130662900789
-0.010115344626552242
0.02415479863219125
0.04788238185088413
0.029317231349021075
-0.011740872429104498
0.024451229385091772
0.0056702520171597924
-0.00892088337372419
-0.01408306743486228
-0.022512469676023918
0.10072359183267295
0.07262431409136648
-0.0024487270531738416
-0.004187127075591872
-0.0104452363298609
0.03384731887792771
-0.03347894720256575
0.0329988152063318
0.05309555738504516
-0.04291481594892692
-0.04293074131667745
-0.13192029817646905
-0.02595751183783637
-0.0495911783385061
0.019986770758921513
-0.004091933544327263
-0.02688049291820319
-0.03358581191682248
0.030408070157509792
0.04428796709626358
-0.007941480496477615
0.0140385481870566
-0.0232449378348147
0.007880279711249634
-0.010499226199979464
0.002928872337724719
-0.01994968596818237
0.06984321662281477
0.02021415253492562
0.10424239953876771
0.06508473139750945
-0.04517486185897589
0.026542934553991388
0.0012734587997675724
0.04048651968974865
0.04525333061380566
0.04763329290370681
0.008643730929810188
0.03744335560235043
0.03210902758852452
-0.0016753243218127227
-0.053064588005675734
0.04476158501430605
0.03828587670191715
0.018861885765679338
-0.12486580914610425
-0.11883891715221431
0.04750781485252089
-0.006924928586092772
0.04315800187655853
0.06856510906745239
-0.01430571507794951
-0.013099433476203853
-0.0001667715912898561
0.0010170955286016037
-0.02790678535675021
0.013898686909218813
-0.05575046821856578
-0.11972815883469853
-0.009516130190327618
-0.04915218836832579
0.02318287151635804
-0.024243756193884847
-0.018368212078484006
0.02525117316571282
-0.02253370526487192
-0.10822120430033265
-0.0718813117751073
0.025998982475023143
0.021634842911767857
0.0010616753597917476
0.029235178582045298
0.031178209491010037
0.002708495418249567
0.009761787274817108
0.004665846235724417
-0.014394013722127324
-0.01570452073894374
-0.0018839542080715237
0.0016702295455645346
0.010468676251473035
0.013949557874433522
-0.0233452233748272
0.005915618507207085
0.008109500893920742
0.003338850722495065
0.0216769390119945
0.0365593403443812
0.05609122894744019
0.00587268434494391
0.03607271549374426
0.0029812657532004338
-0.06722795636887424
-0.01913519623435682
0.01820111343090139
0.00719197874155394
0.007922844394542921
-0.016879356557245536
0.04897970792683774
0.04720838664246376
0.004304620730394639
-0.0018459748945804622
0.008405410838820751
0.012808360586093234
0.0064161272656290454
0.005875052114066753
0.00023181498483175686
0.07948144889830121
-0.00994032412820884
-0.0056835475334008345
-0.014911461515494868
0.034439438223390885
0.005070675605578817
-0.1296871580378411
-0.002736479934981534
-0.005942663456547733
-0.003597620198968268
0.002526539465249605
-0.007062998021814512
-0.018182293416216532
0.02962905232099653
-0.021021011682547944
-0.017552519726335918
-0.028406072250529688
0.05450082123554636
-0.01829197327413267
0.014481437668600668
-0.07724113633838398
-0.019713770192666548
-0.015085820288657448
-0.019818411194169706
0.0266451374112461
