0
0.002232063212989402
-0.014476317992702829
-0.016182133981833515
-0.02548310072611663
-0.0034738932124899658
-0.049462961466396754
-0.07614169811387982
-0.02305467958265428
0.0114314753639961
0.04305445951663959
0.06619040945869557
-0.05215279703980053
-0.11263460536523107
0.006370407957268365
-0.00951529026149543
0.00384643452851455
-0.02852330309367567
-0.01478789905608076
-0.003682187716325566
0.018308620893230005
0.015115987243208607
0.05977426307881794
0.2535930239335527
0.004673680743058412
-0.04516133636707858
-0.006072994471201624
0.026706186710715302
0.002112767531772257
-0.02492999933113866
0.01787732046586027
0.004925958165992784
-0.03466942595342874
0.0009103715920544276
-0.012041156980176479
0.005235235364543719
0.003041342165022363
-0.05080790596794228
0.011592336755623623
-0.07669085067548452
-0.17322012339351786
0.03410422729837306
-0.010296355749260406
-0.024663224819685064
0.02876628725904244
-0.0010788719554671489
-0.0011485561742358309
0.12687731950484119
0.0008213061263608752
-0.0030816324296380573
0.01778038540871925
0.009014657318117719
0.013608573837319619
0.047383435761537994
0.0028582169613091428
-0.007518573548279842
-0.0030036507972123904
0.018444088270721897
0.03386509953949149
0.02051043376480659
-0.007321146355044204
-0.01233101896802235
-0.04784743303686887
0.002517394307423378
-0.0224191517329154
0.014935003553375304
-0.006987178335348572
0.006536379744071843
0.0010428383318265607
0.034108878184662655
-0.051273832502009196
-0.0696735567727544
-0.0227859431045656
-0.013902902031955322
-0.025261894660957185
0.001852727906145319
-0.0019400946484701787
0.012055852193578147
-0.007682692579098923
-0.020433159789423585
0.021595613577690378
0.042038154497184725
-0.00583765573209153
0.011211681363276464
-0.0061679416896904616
-0.016824656368146073
-0.07004458353137921
-0.03272937957537692
-0.016030450373862817
0.00964473683821644
0.15074174588236158
0.03808100039376214
0.010911659440646093
0.01819191914364694
0.0002686912902562203
-0.006612829809454433
-0.020851334457615646
0.043882994132100124
-0.014726702139104968
-0.04237804145546997
-0.014981398462154785
0.005116911160938985
-0.04045366203556212
0.0054023079530476515
-0.00011500819017862122
-0.011994644780050846
-0.015420756031430425
-0.010385036517715766
-0.027414475377413407
-0.0028238935347764905
-0.04666073084751946
0.04084805030315494
0.13678745704679174
-0.03323363500442149
-0.00797490920611293
-0.03571616670430435
0.02373302137758392
-0.01842394172284521
-0.07530966602545293
-0.005641914749332332
-0.022576689452470333
-0.019535132090088135
0.0031698461723734628
-0.058699130003096324
-0.042774989722525074
0.013719067914843515
-0.008236982915078758
0.007318110291749779
-0.0025563984018645344
-0.012157372301957787
0.06579600560375337
0.2377667690396489
-0.0036391570318523637
0.025729336895286888
0.04706183155995271
-0.003327893631201318
0.0005741892480006365
-0.037101709449834624
-0.020871849622048598
-0.028805820391741527
0.1399960453099579
0.019545183320763753
-0.031022896243798836
0.010138520096719032
-0.004122956189781154
0.003971473199869838
-0.04397833296460852
-0.051773829220915786
-0.02624775386039731
-0.020116795533018882
-0.0010674715850892468
-0.019155386787541227
0.009666901328024021
0.031591110657762045
-0.01751821377104962
-0.008885323967280099
-0.004011082962120921
-0.03966804333240207
0.009090185386993112
0.02446309882879168
-0.0036312059243478446
-0.019677139969636506
0.018862353992959026
0.00689503645216296
0.014893082591441698
-0.0012418885991439903
0.008537780238778906
-0.02328516283171532
0.007840812598160012
0.0062443712438652885
0.01428935939069208
0.011410358044192723
0.014928297508835847
-0.020538107391071547
-0.001492327504245138
0.08943866233560142
-0.011602559234949152
-0.04684044522005416
0.051540118062014195
-0.009082671933205744
-0.04107965558968877
-0.05256847299932434
-0.06835859924998121
0.013833802958349406
-0.040051318285473654
0.023827779213622297
0.051482854941003214
0.011106782378252212
-0.018736904746568226
0.007813863394577762
0.027467407373249805
0.012371165342686306
-0.014100025295689725
0.061219317039096666
0.009581610952403561
-0.015006322662365066
0.01063954306523333
0.003552124022582845
-0.009191224740334406
-0.01449430208546417
-0.023715826214255872
-0.07785175356336131
-0.07736164925427255
-0.03040237444176473
0.0021172447696710447
0.07279629476234281
0.010104849486975308
-0.056108570814204735
0.0165773979786098
-0.012878120408068587
-0.02201517562764094
0.028939368600028718
0.037174277662822434
0.013808929042520053
-0.03019162659502514
0.0023780196186987614
0.03700479560074629
0.044207232067641676
0.0013243103304640166
0.01944533374552
0.016789502298291254
0.029971571946336487
-0.012247420398698293
-0.030042466673516226
0.011237745685099863
-0.0172109650491129
0.014594776716223652
-0.009646795581833092
-0.005639459223857893
0.0006622219449480295
-0.09127004116117515
0.0008191343662699195
-0.06650316862118023
-0.004763122638887364
0.03407764233022188
0.06514992283020642
-0.031874744146325844
-0.00015240492254079636
0.06808077357844906
0.07335581093955912
-0.026979543646438408
-0.022104697403002672
0.006426700399094364
0.02901930454745842
-0.037871764841335594
0.02799189737671974
-0.0375701592530957
-0.12829966054885703
-0.0740198023977827
0.06989938497087798
0.10796133724374089
0.01524122626535777
0.032207214230004104
0.08031102266435008
-0.06180518423705205
-0.1429931534139563
0.004526611791361249
0.036520181425071116
-0.03729965563150937
-0.006162705826993199
0.03895107402462376
-0.018177962471451738
-0.025848434326476738
-0.012410267457652549
-0.018051847209568785
-0.006217574864257073
-0.006630616199116136
0.01431414210472608
-0.004083064503658631
0.005998532414296744
-0.004349986714497064
0.029901181443161083
0.01102988968075923
0.044504449556505704
0.09109547318039339
-0.02955339764963578
-0.025018872444434733
0.03850411797297875
-0.006176291574820117
-0.0022089745499768608
-0.0078542007420163
0.11933349716395139
0.031178368637259445
-0.0068955106899826575
0.00033799341632271255
0.009763678962672365
2.0514244595284155e-05
-0.0059901165906608555
-0.01158764883478992
-0.05447546449778612
0.008894829582326636
-0.05165454897407498
-0.03786881957690105
0.016807995595288058
-0.004157241788404568
0.004533523723900152
0.04526983104149385
0.02386866458475132
-0.053011992650892466
-0.013614041580229386
-0.03779237852986243
0.09433842878480762
0.06478223312874226
0.008062117333209688
0.07805602991015197
-0.33066644102844717
-0.06975637993943641
0.08726153159503507
0.0182584207549541
-0.03233527179210293
-0.013671472852080535
0.014319661760078222
0.07191742996589347
-0.05269461673011048
-0.025280034253981835
0.050087173267733424
-0.019630016256715614
-0.009901582059987205
-0.008782547182107046
0.06966895011720448
0.0574532922181618
-0.0001307329539439631
0.011532226062104864
0.037732545935203386
0.0011572413157116843
0.01169789724192579
-0.007020579217468208
0.04446482634706297
-0.0521908652197076
-0.05650004137838418
0.01610767282953854
0.0047170176382514886
-0.0227015780895053
-0.0015805132724703748
0.02767824850634177
0.038334337585163414
-0.008099490587114129
-0.029067492616397333
-0.056266786379357704
-0.11970772992198371
-0.0045421974070898145
-0.004102213777248046
-0.006370203537390021
0.005862495436993145
0.035134601366424933
0.0213254859238272
0.03858914412955122
0.022135588644951378
-0.00809870462056899
0.030568145471517864
-0.15892260939283578
-0.019883320615374914
-0.00406196127310447
-0.01122659827909829
0.03549757752125888
0.01230804712665125
-0.026862094182058514
0.0179747216962232
-0.010040416273089289
0.00702419070028029
0.07757444693417632
0.00022706783971705865
-0.034941168421709995
0.02920260118977768
-0.008608810077163218
0.01787270145347773
-0.02631042978689967
-0.007289269120378446
-0.03013726915495676
0.1074473349356077
0.0863847976191591
-0.012723584288486786
-0.03715849142238188
-0.1622979418180512
-0.007728844920864508
0.02098498559344115
0.010664934644509464
-0.018087020405128825
-0.01278192273208439
0.05009106243963775
-0.019485620090512166
0.07387774990703885
0.14088908695876856
-0.014812489522016017
0.00952436617580203
-0.005768030075444137
-0.0004516569847416042
-0.013288301541924112
-0.016084151291281223
-0.056671442366541556
0.0066733747813029045
-0.03858919341833128
-0.02179013114318236
0.010914791959403213
0.03084135408877109
0.044348243570563016
0.02812116449907359
0.004834118910905802
-0.04152304126144947
-0.0021622944236005994
-0.0009940253690598054
0.011769114634752722
0.013070270268992223
0.036524407013904164
-0.006697855698674942
0.03344297012332941
0.04387731741718482
-0.00555438274611446
0.017596663541048
0.23531703441739782
-0.10071089467592799
-0.031245510267810018
0.028739256192200056
0.017887169573629222
-0.07102737420040907
-0.08172540440733791
0.010711495416336361
0.019472915973326725
0.0013741268240848167
0.027065437557728476
-0.17309211592561918
-0.17012321106064637
0.04406511538396303
-0.016080836292754898
-0.08732600669504234
-0.025637210700132848
0.018199150302255288
0.0066779742257177584
0.031751840296016166
0.007743110045608125
0.05312653181523747
-0.01677608720520509
-0.05099214644662912
0.007363603798179084
0.03673469260845006
0.0066213043534772914
0.002565683859158269
0.0017944517526198996
-0.008153855316719862
-0.04706740675069656
0.02755212070548649
0.00034583661601716515
0.019949863385068337
0.023634965242846473
0.010826720785395883
-0.0011669420004765463
0.0012304267001091154
0.010364124135273507
0.03326187603302711
0.03008251634427567
-0.005040656633035593
0.04545593932418513
-0.044760668433564244
-0.04458396246743925
0.01121770920271207
0.003958557525785334
0.06350267247152923
-0.00420404510884757
-0.01635900013084156
0.009888550388861127
0.030533351490415306
-0.0005996933543202673
-0.030909052865068128
0.031448047968703916
-0.0014595779870507572
0.01757670090832197
0.009583125797101744
0.009191882147026584
0.02657605297326274
0.031018463794268522
-0.006388955876349812
-0.002819783268224979
0.03656202576875036
0.046641892529625424
-0.028019708692721884
-0.005266468868158472
-0.18506438998791427
-0.17179034879069235
0.05899142095533355
0.010539520827714645
0.03736852671160398
-0.024584175259013602
0.03965284452740738
0.03732179523898326
-0.06232179254706043
-0.0436124750330295
0.029053493531643316
0.020504816530102523
0.06894621395602256
0.016191134654338215
-0.002110744803654265
0.0109676732186916
0.011614620084032667
0.0037311080991396994
0.01891912434249686
-0.001857890233611339
0.0030393293820814896
0.011113860112464777
-0.04779208974354848
-0.03661167671798746
0.00705632988185251
0.009716511333140533
0.01598353449001907
-0.002960677076556705
-0.010520401685982316
-0.05168117643830986
-0.004877241065127058
-0.02598774102198012
0.1138510280593377
-0.0024760141885521478
0.0003920572357027173
0.014538340142768823
0.007589878538128144
0.0083513763185274
0.010599165041225453
-0.13201438212598554
-0.17709077945465462
0.015949738363695114
0.05147262588176807
0.016506332439998862
-0.03431920598585164
0.008795650370880531
0.0019356620640659885
0.03759615489864222
0.07915906020605394
-0.03663316535378715
0.030896165487733638
-0.0015794134360822593
-0.012142387912750722
0.0018393324160110257
-0.039564788156650245
-0.0025431791074447506
0.051024619185046007
0.00027963043439918254
0.0092628999775679
0.04626122219936756
0.013657561366935165
-0.0017691707559974546
-0.031105162616348124
0.07078799456240255
0.06599165384397059
-0.07565114900020041
-0.006302548233917376
-0.01880364749736697
-0.025278576598074195
-0.00810762211350101
-0.010058777381432646
-0.007971577566937843
-0.018962601092599733
-0.025913020726511943
-0.16536539301264847
0.14946958584410966
0.13343455183927377
-0.026601225470845823
-0.004455861234249996
0.01688804279075026
0.02725823586752295
-0.015538635574338574
0.001226037685054419
0.18322453839030314
0.08212009369075464
-0.07276672897429151
0.02888083559981112
-0.05005070763678204
-0.12910566053375994
-0.06662099474559706
0.004983155057989752
-0.0066963997377052715
0.03991276159052917
-0.02965441356570488
-0.04235638653616505
0.009103774987999556
-0.006945655814380517
-0.04185436965131341
-0.009467073511813995
-0.04745765486592659
-0.03478015553911149
0.003413083390591826
-0.014679825730279197
0.06466565006344639
0.19972793224773727
-0.03036794026479004
0.014285971405871241
-0.03638193394146004
-0.012291330340339798
-0.015464415043741945
-0.01384167660086051
-0.04711177880847769
0.005426987581103487
-0.037560268293709384
0.15262354764980615
0.06816103168340873
-0.044239449228729716
0.0039430462025256624
-0.008429335190051818
-0.03552385084972269
0.017666759023688885
-0.0006433350469631566
-0.03142666561793865
-0.05142727007537825
-0.010104263425404972
0.018663039175452048
0.030110632916031277
-0.03941868012109269
0.003681484610948141
0.01581646907535717
0.01810749434898805
0.02831574196119175
0.0060210281381604175
-0.038089631319252436
0.04265303031828112
-0.01863504516969469
-0.018037552230594143
0.0058855104879912985
0.0116994996792944
-0.01321995056598995
-0.018920290977054097
0.012705071606801345
-0.004633314520039887
0.004423785866303957
0.010517091555096048
-0.01866263784699637
-0.05480378387841413
-0.03810714760818587
0.017011290307927435
-0.03099801097162945
0.02989801740618319
-0.007557140320527078
0.12697562278890562
0.11086597533830436
-0.039511737459206234
-0.018046800236676604
-0.051887773486494274
-0.029036234083751777
-0.1822693225461334
0.020589225561436456
0.0429027804499058
-0.03662439068992718
-0.015370076378637139
-0.02799099502856255
0.028711144830790892
0.02032575040767002
0.02999566483398589
0.02439015063930582
-0.005349094368285073
-0.019813711914177464
-0.01723515146737137
-0.031936083117758134
0.042479976709807646
0.18966819809329596
0.01155957025955838
-0.00421285246339197
-0.023338198031277936
0.007239426566376911
0.024920807453750506
-0.035125274657461035
0.004636128631723439
-0.022949153350458544
-0.0003026918040702684
0.0023299570494041124
0.019866131865683385
-0.1221629376090779
-0.0038790259990438176
0.01217391734970379
0.013966977592304631
0.045125058010816725
0.02032315160838817
0.0031408006871472423
0.012460304337450552
-0.018843578115093327
-0.01392588590388569
0.006868432011257909
0.018572279285527266
-0.011540880869754454
-0.022091069221146974
0.030217600902991075
-0.019877906937958066
0.0025245014388089885
0.005809637397274673
0.02988822800063903
-0.07135385778901819
0.1052934004371485
0.07185100919090594
-0.2305816921096305
0.043656801251449405
-0.01957218947769721
0.0030805940850915313
-0.016144802430619873
-0.007531343284651446
-0.049775473479616535
-0.026176276964893778
0.03786399902408098
0.016296959689601192
0.008356466675733617
0.020236779065091668
-0.023035896014130496
-0.10592044710686335
-0.040544977133344276
0.11163489714980433
0.0691876187578998
-0.005599075235100023
0.018745203188194226
0.025772615035255367
0.012524080631604761
-0.00927298174884572
0.011731502009257048
-0.005067983391577215
0.04405129794599179
-0.0025777542858081955
0.034222016774045384
-0.005596055185120533
0.020889655489281254
0.026854029840043838
-0.013329437879441765
-0.02691508303684494
-0.021353867247385236
-0.04415287511710295
0.0005504496835453943
-0.022905591026929895
0.011725884460765721
-0.028277035976456415
-0.003231954954450768
-0.14282147956587665
-0.038007362128552644
0.008706582107692297
0.005162409077507628
-0.007147496593513046
0.018195223365772686
-0.057108241071647796
0.1324081734832793
0.17919787547339408
-0.06910281038651345
0.004465230251883964
-0.026084585244180572
-0.006175728823042704
-0.00703211087927959
-0.01301777410918713
-0.005531558728612275
0.005203273507382203
0.00918014609526389
-0.01693516625731988
-0.04200760777094991
-0.0473188438027013
-0.01348013003344857
-0.0048929823675727
0.018407707692255262
0.20670719316889996
-0.049127876866129225
-0.007942264710891085
-0.03900288072701853
-0.020931188242235988
0.002063623035571514
0.03170026656119125
0.09062862361228746
0.001402095000808026
-0.02643827597165275
-0.002634651384015771
-0.006061156297878512
0.10791019972164614
0.013199193791364007
-0.03014853626985086
-0.029891213681979625
-0.008186084961792168
-0.011875344758958644
-0.015347166930479765
-0.007996159063277502
-0.017169449768133917
-0.01946504961068602
0.012728756247005917
-0.01884068976746581
-0.010193522554137297
-0.000631663463948062
0.010571653922984146
0.016935564583331383
0.015214917015243901
-0.032427469755283475
-0.010566358826835579
-0.03824422509175643
0.006436046845193924
0.02642601503741554
0.023967580564681006
-0.005905757644355005
0.01292300362218444
0.024561659910301202
-0.011495687184430345
-0.08379675600429982
-0.0010533966155866308
-0.005945800366073657
0.02364291027721069
0.0026270216640530844
-0.04480564083271953
-0.03989785896147874
0.04394394262483158
0.033820268138601575
-0.042716785752593876
-0.017775145466498922
0.055190360356522764
0.017510330055044855
0.04159240036795457
0.022092719118878473
-0.11538962156307384
-0.005994820111883411
0.01262260702792553
0.005107132308889006
0.12229746652654606
-0.023918880309031346
0.0016132932957678326
-0.04960582122756681
-0.09855168633943387
0.029528024502610807
0.015600535929040552
-0.00398825481645897
0.020572298701255293
0.02698190874373978
-0.007247723441899984
0.02907223370839962
0.027844261760113453
0.004341873253638345
0.004714166623666695
0.0027681105111119577
-0.029542556234810474
0.01250278261947924
0.048963866937195254
0.006278808383480708
-0.002039966223635829
0.03032663119974699
0.07217759906343107
-0.23610751720975726
0.02884239131602826
0.017178578901979682
-0.04187927354235251
-0.021081333455760454
-0.010703455396498565
-0.009555385388560152
-0.0018269207890941853
0.07274355011511896
0.10590780611283311
-0.027848171829514597
-0.0374208917043003
-0.011699934743613357
-0.001560653303078103
0.011044697178835683
0.0015266592498363474
0.006118406298827618
0.004490541070355086
-0.019992252519871828
-0.07587790573256731
-0.07453329160598898
0.008736986180443272
-0.015286871259980461
0.04247465897132812
-0.009017698469821638
0.0016862108373683835
0.023094674333130626
-0.005485339775223565
0.006840686377693401
0.07652944424276495
-0.08314733844898309
-0.06317518030463325
-0.014264397486263935
0.0015011533340610057
0.03431308571752905
0.010598665664619767
0.009822393694043034
0.015148913865538252
0.03891970651205405
-0.018693436305911762
-0.01354077839591336
0.06906825288448748
0.05407977398163805
-0.0041023301652809065
0.003977823123108811
0.005066757066239824
-0.005651646614646015
-0.016389639733552
0.012168005126629024
0.0764214165945977
-0.03274959438799965
-0.017944830840022522
0.01996731856123907
0.043709315418429893
-0.0006699891586283149
-0.0063508864573499435
-0.004859397954200545
-0.03530957001220653
-0.031299756430329236
0.021925059004300952
0.021941099846462683
-0.008199765243473323
-0.025712610414350905
0.032539794405920745
0.02839229806093925
0.03012053714511203
0.11541806878674495
-0.006573276901619483
-0.050212435308776934
-0.016751851244450534
-0.2830329054061304
-0.0433642303174656
-0.015733691847376108
0.00815629088327662
0.0100058403189431
0.012792406219592274
-0.005457748375395345
-0.010396482323921898
0.0045748783758054745
0.03604092752031788
-0.02175263239259496
-0.033100703489918254
0.008188199913685993
0.05986579691462232
0.03348941227042663
0.01741932418115864
0.0012126287088136825
-0.013137254028648388
0.02159224700542329
-0.008200860301080448
0.012627297405735044
0.026018123870821492
-0.03590374205799917
-0.01828404684870231
-0.007667295320359205
0.04948174316436539
-0.01009694097211315
0.02691657697921788
0.0335088711362914
-0.0025189017089314323
-9.773814538466586e-05
0.006468176463283893
-0.011240208966290032
-0.020561044238616103
-0.033799308994449155
0.013773033303363628
-0.016223549815105962
0.009961346286633897
0.007520025283819897
0.000541600166776957
-0.049694149255276134
0.017300951642071332
0.011892753060906317
0.019127829780775204
-0.02594327661938329
-0.007908120226093062
-0.013915178114231317
0.05235145686881529
-0.014278312493651904
-0.057200590829321774
-0.04551177232248558
-0.013426222255277362
0.0055883642371989915
0.012007448199392772
0.01976586187820701
-0.0031772402034095154
0.020831993564424247
0.013024176244883156
-0.002148038840475329
0.03257370637405695
0.03374413231269373
0.010352440089142132
0.0379848222038437
0.04120770571075684
0.000532310275578878
-0.023081425870010625
-0.011608413720498013
0.00043439148694177695
0.008222195244418522
-0.010498226539286771
-0.06214968815222499
0.017784515637989554
0.02795315012046673
0.048944071637523116
0.0273293872265267
0.00435530291396445
-0.004827841925486405
-0.04751784409684517
-0.023259480794555237
0.012808738901987662
0.021821621807771155
0.012508678971610903
-0.0004295216111402164
-0.002552716948778351
0.00048498557717759696
-0.009226600605214675
-0.006625577450217183
0.019135718640273913
0.027979162479247224
0.0024076869680068097
0.01629348366304167
0.03877363660478245
-0.021242378259111194
-0.023634874380096968
-0.0063834558618076805
-0.0038763293495007274
-0.010387563825830674
-0.2306241980285879
-0.008573387688389977
0.06011764407842042
0.011770685582256813
0.037950474865238996
0.012411997994359082
0.06803918125910724
0.02608119088415183
-0.0023979914436000854
0.04419648147787159
-0.0016283308792825481
0.004984173812121425
2.9864074667743414e-05
-0.36348015433210124
-0.022722251421038387
0.15301755339710882
0.05432230776581694
0.0046293322508058855
0.03497979264026621
-0.0015298502505322327
-0.007349681230232565
-0.21874331170658418
-0.02081232347206055
0.09088040034434729
-0.005872582948612113
0.03353265291178541
0.01845356575578942
0.0017488960544828878
0.04608402947592466
0.04349394414799707
-0.042720299121452844
0.018514816584444403
0.000529388497296182
0.03611616981235655
0.004355374737094007
-0.024419144677812952
0.005129302993105328
0.03342867201312293
0.02001819122108888
0.014410305108942279
-0.11318919012752435
-0.06313296090477985
0.03294783515326265
-0.01245637483836195
0.011800879467230055
0.003315944062419613
-0.035758965160630644
-0.015655047057117958
0.029605419588354286
0.00027089601270209254
-0.009040413081203512
0.05023828923344168
0.04659490280847474
0.008394529056660405
0.06335769170793579
-0.010143549081450171
0.004475054009637925
0.00878007179756167
0.012143579493359655
0.014626385031275337
-0.02268303292034722
0.00988421191772403
-0.009604136094280579
-0.017775183234510883
0.00368110852035294
-0.014811510403535075
-0.004830997076968664
-0.014130768827847858
0.04617488952623474
-0.027441671301400884
-0.03624351642995649
0.03168367889085806
-0.037633431641909014
0.024749357072928777
0.021437827974717858
-0.14786868071667075
-0.019316188110270017
-0.020510731093567876
0.02022590136322095
0.04119223898299095
-0.011851483639797319
-0.0066576000953400645
0.07229776295551911
0.006034181850176063
0.007205158985672529
0.10501723295000907
-0.02757544042223953
-0.01369513211256298
0.015326435245193724
0.002099379008889821
0.018266937684363587
0.007898996253447331
0.002712121483485435
-0.0185994210551967
-0.005475453037981797
0.025090300191702535
-0.014381070535578182
-0.005294061343977104
-0.001005859515836828
-0.0031943744772245735
-0.04715954442519417
0.012193925107647129
0.012359460206127819
0.004911272203677278
0.0012870183493606858
0.013397518804404648
-0.0436760136737911
0.003198296873884627
-0.039793839684498684
0.037159544751884
0.10399013975873432
-0.026677043097767902
-0.023069020066909404
-0.03660991157480656
0.004206019936820812
0.0009448134156723346
0.02608240719428949
0.004221495184543403
-0.0003766174608376632
-0.0058566777650908
0.012917385869510438
-0.024405853560692
-0.003849712408279226
0.00829427201940264
-0.019386814142734552
-0.03763951303393894
0.0040258583393161145
-0.014094151071278824
0.009526494414966573
0.008776975790529785
0.012235022955941604
0.002718777690458577
-0.09718020579922032
-0.03175225479846147
0.023043937620159372
-0.002021756458112048
0.004329480544166035
-0.029097426420043537
0.006844251820629598
-0.018561115459045662
0.039537956865452424
-0.022863251597462542
-0.010903802875539388
0.0385861350623704
0.06711161784746265
-0.005465481359317207
0.029361781469240514
0.013554467506773062
0.0064039308156104155
-0.007283682965364028
0.0064499638734881026
-0.013450376130979033
-0.026076870386204067
0.03037823430760624
0.08281994814585344
-0.000715980871715292
0.009680639112507904
-0.02169110402482508
0.035968971916320785
0.007372535942363519
0.0036388479680335537
0.008714640174339506
0.009459291525940503
-0.017076008557038082
0.011381775097772651
-0.01101434194206851
-0.025558407223888756
-0.007869364212351586
0.0038201638939903315
-0.003683447690119715
0.027599663970810154
0.022521962066932955
0.01020533924141811
0.033604219917275684
0.05608751285724899
-0.016491587292365203
-0.1736635663950085
-0.09308217482476602
0.07684837964732548
-0.10336771592445233
-0.22701878540956352
0.01275295756618806
0.01112287645520908
-0.03324787729183141
0.014161679667586174
-0.005061962341993144
0.0563988133222043
0.068880623071453
0.002223109902866028
0.025374023508319812
-0.004979236974096029
-0.022507355120751738
-0.0025420030658606283
0.0585704358830329
0.11786107367048698
-0.06442847995084369
-0.03262304947997458
-0.02413549724616062
-0.008861896339499175
0.004177522198841407
0.01416358185130121
-0.028148026354507975
0.014388962618355736
0.014315371512042959
-0.02206872794087884
0.017440640102605206
0.2259434233376845
-0.0018824702880469361
0.0006804683126528742
-0.0020358868460157715
-0.0005102724622599698
-0.022913773967925696
0.024501506445889318
-0.019724756743427878
-0.011776560801709003
-0.025553002836992744
-0.003485551088280298
-0.04152516148703545
-0.016019870542077094
-0.014285058720206583
0.012198608896990273
-0.011280671795379007
-0.03627550506481463
-0.03329595706196713
0.0014995697723169871
-0.06055074788574045
0.008109725570834956
0.05863118575160273
0.018153214731560736
-0.023044469997471763
-0.04654297466090836
-0.016806630148633723
-0.0005776623834140144
-0.046732412508736575
0.03618916822529973
-0.047710402032357345
0.19557147209059283
0.05231337042051813
-0.03552935747364874
-0.019734416961061915
0.28036635549098293
0.15496433428600342
-0.04289234202322356
0.03997681857998686
-0.006577735100025063
-0.043658768764311004
0.0006623355643797566
0.018746671094100106
0.021230405472505164
-0.07964517856678022
-0.03430789059036287
-0.06020294944714654
-0.22045184869983972
0.03758264320982978
-0.023280154433205094
-0.0022139332979515206
-0.007155618595986934
0.004362649893901659
0.010010591401217716
0.023983937149040395
-0.034127624632863215
-0.04930415059635176
-0.01921626718144943
0.03153707145951617
0.029696210375611782
0.01539255785977702
-0.03672992921732039
-0.07287939900606989
-0.0023247576853243743
0.003536484953420789
-0.02664559596490551
-0.008721858876208613
0.014273448421719242
-0.056173017939524804
-0.0044144306613712325
-0.012960503594433057
-0.022000483418048482
-0.005638219319654724
0.001719574723779437
0.00400276078429709
-0.002371499122309538
0.09901339405919111
0.05160316928080421
-0.07268691340274926
0.008919629887457469
0.020381799293610205
-0.008064659283006925
-0.003649006016414747
-0.005750212746088377
-0.006175668149859124
0.012003021980858912
-0.015624987295701514
0.0005734718499784553
0.005202183667209679
-0.0033918975237882004
-0.013138166586256547
-0.014992170091992746
-0.007246858429832726
0.08707973383987659
0.016473100784150086
-0.007505937897606521
0.020767620129927004
-0.005784425762187965
-0.02629504464848394
0.011053237860850567
0.00847003124325022
-0.02923593986340809
0.025169780168505095
0.05469953424659481
-0.03762832434444822
-0.04220095921156963
0.010862950504889802
0.031459354223737926
-0.026965863251434657
-0.007929908537939036
-0.025972377100185594
0.07895098986416697
0.23124064781434794
0.006083953009511469
0.003639963189024404
-0.03420711980019161
-0.007308519726040773
-0.030831494438026935
-0.01074469148213735
0.03171293265891274
-0.011378327771988092
-0.01370887774225714
-0.02003046435206701
-0.02469226033414843
-0.03902870521549751
0.021041362393673595
-0.026743879122228836
-0.00964896132354517
-0.02068753728164892
0.0028583542786811927
-0.01231643055845181
-0.11296236669721209
-0.013925841250884962
0.05369231504503011
-0.024976903693094472
-0.015657157065584102
0.033292244339222
0.0014136546212723308
0.024403701875011095
-0.003942357315073596
-0.0033233709356081434
-0.0181828554133673
0.02312063669517923
0.07430089845946931
0.10830006570828919
-0.020084588046533375
-0.049619210860188626
0.0069876453903710495
0.003605532588138851
0.007619154272309127
-0.0008383351823162859
-0.02475837525955663
-0.028962452845877413
-0.0025071667380662543
-0.04292121298101466
-0.011629686106179742
0.005055714078480829
-0.0031297659763405176
0.035284983344538424
0.018762018140191915
-0.01774467012228391
-0.003924636660134514
-3.856509661839348e-05
0.001453522563575627
0.045759130841912445
-0.05011491212185661
-0.0621247892400542
-0.005626597379862165
0.02665266537187352
-0.038191706829407396
-0.04301300793861505
0.06427656646763308
0.03375398690231647
-0.03380262618406752
0.016211182299067543
0.010872955488430973
-0.10018637833118452
-0.06509603751943749
-0.01466361187037681
-0.016976752007476864
-0.03240859787614224
0.05164851025148831
0.018751047480170445
-0.021244968486685594
0.0002896784901863798
-0.01715087589024094
-0.006815353203873173
0.024782310489710965
0.153648309175761
-0.001446005022200146
-0.042377177227404667
0.025058862107172786
0.011117957877122872
0.005974406755060003
0.004189031617502254
0.0011627333019951335
0.0012017381324728046
-0.011289821321227321
0.007169000687042072
0.049283882460382795
0.06285122384551074
0.0842096040993731
0.016652302677749177
0.002383660361842053
-0.015875518460318594
0.029363723494433704
0.014129812737799447
-0.04527005406379723
-0.03946392782777939
-0.014174047630321648
-0.013098816008940065
-0.01298727402759474
0.002955065725347187
-0.024267599719011393
0.14757886443952228
-0.009019964817294075
-0.11472048712785658
-0.0021475890230543125
-0.12265233245168282
0.02406099962717338
0.0017257109007085415
0.006382498551269664
0.004031677089370404
0.007073219905317158
-0.004090639732802015
0.03881033727913445
0.060617029132770325
0.001533616648113477
0.01938779436305895
0.0019737351907911306
-0.020198665442694407
0.01581124831786425
0.020984233979397214
0.02002660390201958
-0.03148347416977217
-0.0305102547778894
0.005752966237395211
-0.04759970051991003
-0.18451910270451008
-0.06726015041770535
0.004683364633969053
-0.03360578395238159
0.03850879709633801
0.0015598279336005462
0.03195097309118257
0.038785992767294365
-0.00827057161625313
0.052234326611710895
0.049030256592966746
-0.02258608738221333
-0.012590671311913675
0.021971697647351664
-0.002553545045637241
0.013645779230913117
-0.006306372304624216
-0.012636506145092301
-0.014733171650089852
0.06288024550021841
0.022057993200520425
0.0013728944359367179
0.0063685947530338705
0.013613576906632336
-0.09750176855041662
-0.07171323325389839
0.03865936529265246
-0.024992994404436
0.004608323194653366
-0.010327757092272665
0.023447164345658404
0.1404136614263253
-0.018155977126808626
0.004429494438459667
-0.0028693157496833405
-0.006938303105082364
0.040841202227381496
0.030480435646221177
-0.022433635833058466
-0.00798169457721727
0.008810271281719946
-0.004697365285050474
0.021010139531196993
0.02547717789666934
0.015393997285409413
0.04857563877361756
-0.07761359383682624
-0.004240566269656341
0.01889347960884241
-0.01435079323628306
0.0021632920006060276
-0.008725659679426578
-0.05294462931640627
0.023442789243037193
-0.04194013064787112
-0.011526462381514991
0.026992019245756692
-0.14289436852119194
-0.0653837425562058
0.004102647118651148
-0.005008391893134843
0.012934325441457797
-0.0012684971284182126
0.01313040323893375
