0
-0.030763465750371477
-0.0004257008666576143
-0.028151687077491532
-0.020760870986639285
0.02490449830361247
0.03865670881819409
-0.012369326845597354
-0.006056688361283541
-0.023226431278505228
-0.005490109240503626
0.00347356962929119
0.01135241743582075
-0.003870483243680578
-0.010364487222390478
0.025733437021421918
0.010051176595040312
-0.1192317287546908
-0.0010723337297750314
0.01077812663732207
-0.017305442360479914
-0.03215881456495872
0.013637020798876232
0.013134776144325178
0.04637408715647417
0.03424002177027253
0.01527791964319644
0.002293017012368496
-0.01772265660639419
0.03078010061744953
-0.011814416889304418
0.027058117269329232
-0.025839527885005827
-0.020206763413703404
0.043814797787140855
0.023766550149917916
0.0021269763762184137
0.0009793170874510008
-0.010894548260988568
-0.02675661856895365
0.014520171791618129
-0.047833990326347005
-0.08352253167028631
0.0011776584677380228
0.0756472305845379
-0.01091060603753282
0.05645031519407358
-0.041132248072030954
0.00245460860515931
0.013334055589535944
-0.011207293132399796
0.0017843990877347295
-0.03496002657742077
0.030882614501827162
-0.011725170765028665
-0.011518102678817919
0.01602222787017089
-0.01674108006287954
0.006819867832818158
-0.007068463331523214
-0.11529744625293133
-0.051941704125507374
0.09672228393365753
0.0408658664231581
0.04298616875281734
0.0689056562317861
0.014531855220369134
0.004521042446681174
-0.036358517006146264
-0.004735782389649802
0.04801545888613677
-0.08654848160467071
-0.003091987243564307
0.020804031008087785
0.01810842453607352
0.03839840841491735
0.027611038801532133
0.02085714845771271
-0.038802962449538944
0.01795393237581044
-0.02562205147425214
-0.04053143137059448
0.0010014144569224516
-0.0002860204244523013
-0.02934456825871206
-0.03291035396021602
0.07401609617852296
0.04215007826138774
-0.03246178528100717
0.08931979975857622
0.0273672075548411
-0.02410694456472173
-0.08819323400908434
-0.007625316495846086
-0.01874472074100365
-0.030411998565856625
-0.04129452745978643
-0.014888045570753666
-0.00026164476953490054
-0.009527409640094386
0.02563942143458116
0.07816762648649826
-0.03696030901808403
0.0638719408023224
-0.053452404704943425
0.060021536122286175
0.11562751776332875
-0.1289331884307657
-0.04154418916665568
-0.01203506167553287
-0.016822943853659855
0.025218184160751927
0.07539232012304004
-0.02269894829580825
-0.014917141752743416
0.021973571234930635
0.03713757942061791
-0.026358589527963303
-0.022022504277941505
0.004715239636825268
-0.03178814417966896
0.030856926049117318
0.06452742956365376
-0.04223829438654249
-0.025123193837792965
-0.013990013106713087
-0.028395926751946608
0.004112329406728147
0.0941813902679029
0.017730019156859834
-0.025086732123961356
-0.009919538641779595
-0.02004108402079505
-0.003056773648133905
-0.049980642407321973
-0.02025191538736561
0.00403123913136548
-0.010804072824506546
-0.010238028273745125
0.012063066713403656
-0.04491869567496816
-0.004996964860200086
0.07148701720729637
0.04060591050526067
-0.007635123550030824
0.04800752311959196
0.09688089647876494
-0.023040194450968613
-0.17475015812477462
0.05595107749129658
0.08197108625950558
0.0015397872366507033
-0.0056347937605920224
-0.017847890777211058
0.01509819841160962
-0.0049106580846119425
-0.02864859606961504
-0.015325508269963076
-0.00588951688960905
-0.07163265588114925
-0.003766424418714806
-0.011105360751371121
-0.019346602471771952
0.017650516751825024
0.016458858443890435
0.010155828127043999
-0.004730401534389997
-0.014050651286536557
-0.049170044687788204
-0.013227806078836337
0.05164136109069415
-0.01923108278123397
0.03411626378612493
-0.015225261420246567
-0.07200775767298441
-0.008133594378611067
-0.0033890953422363746
0.02636362330976198
0.051278874327638335
-0.015805164849453348
-0.010585134007758751
-0.008410182862005683
0.037047999582444445
0.005700592486130967
-0.06712759199431252
0.00798251881111961
0.009799023399193038
-0.008685121731298916
0.0370503429226646
0.05575885502393877
-0.008609496672386812
-0.01794130318866626
0.02352370900849638
-0.014950401320562428
-0.0203365905557015
0.019100037254313442
0.02955241906327205
-0.0003375041245950225
0.0753230108706966
-0.025989610533569792
-0.06721081781694144
-0.028766532341813162
0.00742181308017613
0.017604091785349003
0.006657958458263044
-0.003884446307814458
-0.028148327463851316
-0.02717266200369054
-0.07054310960599994
0.1235002298284978
0.045901135345257596
-0.028522366383086816
0.016292179723025477
0.07351994705646588
0.046222478184872455
-0.060008185858353776
-0.03904805987908464
-0.000924628183913249
-0.034063994775055166
0.012646872637287023
-0.023333167252756335
-0.006226248831744062
0.0180016980670955
-0.003579488306206782
-0.027553638258481148
0.010547999595958061
0.03123565682538201
0.02341902285154138
-0.0024836115086823304
0.04354708151937951
0.007546486058186633
0.013411268657664755
-0.10272937393542715
-0.027497566618222526
0.023365741944974084
0.0515091604884635
-0.0026615511786431175
-0.0019286408315354804
-0.006455232442880601
0.024143258222553268
0.016788655993319017
0.009616420877297374
0.03807070918652149
0.0001494906903989553
0.03274930129169254
0.0075022161453282745
0.0034316468296386503
0.003972988174830524
-0.029216196976074284
0.016641248981192392
-0.021602240486498604
-0.09327458929757142
0.010936514207764396
0.0032852926058406025
0.03147542066227674
0.03694141621410746
-0.0028484503041539266
0.0275170259077951
-0.04142196537849495
-0.15771914619274355
0.016488052401795242
-0.035126117419778786
-0.05649482155463975
-0.08969136550923995
0.0038239608399431657
0.01972141701047996
0.006312576522939085
0.04135448773685683
-0.041337233327685734
-0.03966520603043844
-0.004038960639061958
-0.003166243086353294
0.04821148552955972
0.021383782576152355
0.04163560730720099
0.016173699155874053
0.00520742793252708
0.03479657941172154
-0.015001265158570823
-0.03703777707115181
0.013329107116274877
-0.017635497956725657
0.03135240227468276
0.04111006994224967
0.0381825739550153
0.014736695645637139
0.002197921772619952
0.003751855331728671
-5.5733812444190547e-05
0.017227954153234137
0.012945765848854797
-0.010301866053761618
0.0026785170490424177
-0.011590271773247866
-0.004848471184558679
-0.026477536091706836
0.006946500913656033
0.058638908149567105
0.051621709288399036
-0.015254421478667804
0.022650116859152303
0.027926028856850135
-0.0050234546730036364
-0.03023920786270917
-0.0051461478053506605
-0.021873956186542566
-0.029565114313665902
0.006769602388439137
-0.03337141864053054
-0.020693676882938526
-0.011795170455209362
-0.0017303121099332957
-0.044163689662758375
-0.004426611283215899
0.0234585075805133
0.0034224746269772904
-0.01327727161456663
-0.016565014898629618
0.007787630861462181
0.0435101925699426
0.009530721523990782
-0.00952457201035097
-0.028067008146231025
-0.00463051916239137
0.07865860073396083
0.012998075209220653
0.00861234380098418
-0.06196767724198893
0.029916857670116148
-0.00243931969970087
-0.020769067862879517
-0.004919945055208741
-0.004004502758496249
0.006095819907714167
-0.027506935376982036
-0.002978108394822121
0.04796590006256988
0.050675345894870306
0.014472430933037005
-0.028435225181898525
0.031191511016103613
0.003957608954916312
-0.0052385494001204545
-0.07808523127112019
-0.059949113291715844
0.0073192271769011484
-0.03042308192164043
0.008310607666147128
-0.003233688465782342
0.0005392729469942362
-0.01725112460160902
0.03146429620617431
-0.025886977932912243
0.050519518640982045
-0.05347474525766392
0.07475880359231123
0.036505528580565806
-0.00915490148217935
0.03911432617828157
0.025504488475628275
-0.07843640315975367
-0.07142263017366063
0.031009728960811667
0.0075445947591212675
-0.00782349898994946
-0.03191436481523627
0.025893472491550783
0.02284866594629004
-0.02260854364143
-0.028771059151575178
0.02384086127700633
-0.02648545852155944
-0.029466922540999117
0.048762726539019384
0.06982570949211991
0.0084340294677122
0.012800352071152845
0.008779316069590308
-0.012035112222888002
-0.020647404675123028
0.036556317075579686
0.015157024718716296
-0.010327330006118934
-0.07257305869528304
-0.0713227696925836
0.072891566988526
0.0013942536656659872
0.03761705609328488
0.022836509390336785
-0.030043677805095342
-0.08254539039545288
-0.014907621626398231
0.004801946705312523
-0.06567843974822554
-0.046397997501486245
-0.0039697889863518476
0.021252834609397954
0.1530825622003685
0.007934830163203411
-0.03808213647340221
-0.012025566739110363
-0.017023133978851447
0.03873944050602025
0.11458365917370823
0.04020921267996713
0.08779220687770073
0.03310597228725053
-0.006018963616018033
-0.019494886077725333
-0.00011789475610084137
0.016850488730765938
0.03332487298888859
-0.027425775658277005
0.02389144697316561
-0.006316229098266517
-0.01651123226846227
-0.01703276504499815
0.048004733654748014
-0.17249516832260467
-0.11841376580670451
-0.17158434685264207
0.027833300682433785
0.028031127964182556
0.03401212661041891
0.059918095791805015
-0.018332765495374683
-0.0016135932631339512
0.019189165984498102
-0.0013867038381482385
-0.04120330177673936
-0.0069161999204219796
0.005640216557425495
-9.582624388463453e-05
0.01164367993033539
-0.017814014706509146
0.07421372616929559
0.07391444969031238
-0.007311287945369624
0.007649366117519507
0.029078061787303103
-0.054842879809393986
-0.03991734556940555
0.030281772366454244
0.01912774406710258
-0.04057774670855053
0.0061238090655835005
0.00917005797735375
-0.04290382592470439
0.03263910648886177
0.014685451303258898
0.029469584313675436
0.06703993653349284
0.025401145844654843
0.025146049331319056
0.006198849795074739
0.045780610901402674
-0.03575803905168408
-0.17710864513420982
-0.038744057241191114
-0.03844482992054996
-0.0036100216530119008
0.009420413011155582
0.033663721583252905
-0.034968859962582234
-0.012855107682630167
0.025318135818200332
0.0262325146885855
-0.0069300405246914415
0.04916462097924803
0.015663392345075078
0.011162390160110341
0.02087179300742269
0.024832395025736514
-0.017419824293654337
0.006923790266420778
0.014524362391965967
-0.016077093105626862
-0.016117762366107277
-0.03286699519357788
0.042446970730313206
0.05309892961636072
-0.16667531135893346
-0.07882275743433241
0.019991511766232276
0.0009375510594468147
-0.01568755907441432
0.008233356627532757
-0.011122448976685635
-0.024946713352977167
-0.0012499645717054212
-0.004443178279206684
0.039605838243258376
0.024426163928283756
-0.014646551247727842
0.02313227716410664
0.009167600178061862
0.02835993708044109
0.055455059876881416
-0.00965876941809788
0.0766127676124781
0.04374025788721221
-0.022022744250478416
-0.00857304399664752
-0.08478994817115863
-0.0452922449602048
0.008171966795611671
0.011420206979417803
-0.03987065823350399
-0.1060915010753566
0.01712015640205191
-0.0015648570900447386
0.05262799315709157
0.08717272044289326
0.09826164634119072
0.0023802393322556008
0.0026953281899516155
0.0338706183947889
-0.02750506090651526
-0.06469652204647913
0.0029244689986481364
0.015551567780566343
0.002363351041184406
-0.02746053898078209
-0.06964196309009582
-0.013136326104627699
-0.0005075000968251311
-0.02677184915375062
-0.016782161184502858
-0.014290495279331303
0.0014082186368809826
0.06325674226221267
-0.031331108859538284
-0.0011759602863610956
-0.02097524975287521
-0.0322593841315607
0.030519167829062437
-0.006367024507527987
0.04637613497312352
0.09179094370195685
0.032938432600338435
-0.015972985047429243
-0.021280986515449653
0.015469534906656828
-0.024202006319026904
0.008179434667607453
0.045575499806336545
-0.009886840759953773
0.04150953023104305
0.0465685221552956
0.03407134576617763
0.0077961466697224835
-0.030856917031392463
-0.02539057969611031
-0.008704980789896306
-0.011118314970317096
-0.03043472677434557
-0.04942710439849248
0.013600600187295963
-0.07927303745132216
0.08629832504227453
0.07839200879462846
-0.02393429506830637
0.02574276230845861
0.028738099242286853
0.06544058697937798
-0.046306126077647385
0.026542437082977436
-0.047032812317252294
-0.10167393390416914
0.0021500502576335652
-0.0111266931078292
-0.018151664612967872
-0.02204010886991756
-0.03415605997598485
-0.004623407410572516
-0.027940965821614455
-0.039878571050552446
0.03948761860677282
0.018590893601137415
-0.021897943103696207
-0.004099024216681491
0.023615429916621362
-0.005702732691481807
-0.0046324539149246845
0.010220841899134034
0.009029701777098602
-0.004749275134180418
-0.018246658511475545
-0.0773665001963219
0.0002792559098321341
0.003394756526022487
-0.025769902872376797
-0.03096156577662392
-0.0024466268916876308
-0.006000602214275259
0.06965555454360582
0.053960029796939056
0.04266497181665448
-0.01797685654434079
0.05043582348808303
0.022341134759286306
-0.03442700846239392
0.027668630328632787
0.07483663477541709
-0.051682898626025674
-0.04434031420157815
0.022946235822446003
-0.012956756407540276
0.04556842979375692
-0.007792338585971272
0.007934436777730081
0.06435329644771012
0.055621567931160416
0.08403186691947608
-0.13828438836443577
-0.17022347907301424
0.026418907666644762
-0.011603074223434559
0.0010859316419366315
-0.017412389427557667
-0.02767251724709422
0.16362310880463857
-0.008880560325106576
-0.10117132873270872
-0.0016117515153434628
-0.027900220297801318
-0.020374399048631937
-0.0038834368559630163
0.1129088672190317
-0.01738933085882477
-0.023521576432779998
-0.1517660282080027
0.03158144061214062
0.09244494800048612
-0.0027354272186013657
0.001848394826362376
-0.014019626623946279
0.0038884022643183385
0.016549618296320037
0.005477848608218318
0.01915291708955519
0.005093044817957625
0.07333280681032679
-0.039333826968273006
-0.01391459169807071
-0.05371747508951038
-0.022308151495769715
0.035768893329545186
0.010360076018704254
0.007818987220975257
0.023686153195945883
0.01489883124092525
-0.027472377680811184
0.030744806975902966
0.05426601623442271
-0.02391680501456174
0.00569545282433109
0.011523517964219283
-0.012280839662419787
-0.021312908994897826
-0.009448793945390454
-0.010267812201847918
0.03864401739075384
-0.03210832891129558
-0.013224328827790292
-0.03558408621835055
0.015506923128319043
0.03864707224185841
-0.007367948300981849
-0.015505595060462162
0.001410338530140115
-0.001042974372559071
-0.07413197504621089
-0.05579126937993035
0.03662855585188494
0.07417514443571635
0.041996496189588485
-0.04850853900501455
-0.09029216986941124
-0.005384025849882048
0.0035366610784696322
0.07883291005784926
0.027053596965782935
-0.013287773447073003
0.015550668935362307
0.03309235297970041
-0.02551224290028991
-0.031951162953368854
0.07786943182579992
0.10112120132450274
-0.0516179552630769
-0.0011046630660521749
-0.005023194290737944
0.0026622796967842796
0.0012201682835136251
-0.010636175024616036
-0.012854531911192768
0.024861972459351546
0.005792072955611992
-0.10284690727250777
-0.002576093053060537
0.011723916762974249
-0.01863734420917816
-0.011330672169962405
0.03756029357622881
0.06609965405174183
0.03228838488243196
0.007026267279490247
-0.0016718703342976098
-0.04724904546499291
-0.09542995782685533
0.055814971500718236
0.029667007651480004
-0.01217383881622753
0.010220348681090688
-0.020689676158037146
0.04206484343262558
0.061865057057405706
0.029133377861724014
0.024023503932724614
-0.030340386639149546
-0.015921357693599737
-0.0024750403446881664
0.02461206959380268
-0.07593348440775563
-0.17108414871547387
0.027009794689973977
0.007784848111735091
-0.1678646772561082
-0.021103821333592274
0.01285690422969689
0.020870604615721666
0.12016008426059803
0.017014381599263332
-0.07355206677663231
0.006591016275551102
-0.009478521042450077
-0.015380701860663778
-0.020037991509680924
0.0013385915922506418
0.008797942496852493
-0.027536640881482322
0.006829835953535737
-0.04081874058783217
-0.04125728813279798
0.017276094110476124
-0.010586012058760183
-0.0461785104932505
0.011888256281928024
0.04325610503146618
-0.004549580569369937
0.021634938687189357
0.01477786222460014
0.07148792268719018
-0.009420486147579392
0.04466674626321734
0.007202942339028909
-0.0010606328825098308
0.07660056979843734
0.03225415181538345
-0.025981398272823104
-0.05443784474987925
-0.01982696369495967
0.05853036443956234
-0.0021228413004043705
-0.029496707501428517
-0.011599019542907516
0.08113543958372879
0.024797346658481587
-0.030695184791561005
-0.023850680061864783
-0.014975243832402903
-0.030139107899408893
0.005754127258188254
0.04183341164391871
0.004328674139974829
0.059681732541668635
0.006452156723045429
-0.04324535388258785
-0.022306869286336982
-0.010562945139755553
0.07559019437605866
0.129681429300797
-0.07186113686125203
-0.004598251648681544
-0.02895557374208391
0.024918822343508517
-0.05837811375462353
0.16444467316803157
0.07231233186503375
-0.09625880384693461
0.03264220087337074
0.03634497874754203
-0.02984829868796372
-0.04479375835518798
-0.03425743077489226
-0.05034875914168459
-0.021077048011758213
-0.034571375864576245
-0.019851432556873695
-0.032521203569081655
0.02923480761193765
0.022652219134183076
-0.04908977557572527
-0.005798588535942791
-0.059777227153189824
0.022490019081878664
0.0912357652580097
-0.012188382376951285
-0.013651421305992685
-0.0010712781979282328
0.00458689278527553
-0.00046116364157459223
0.006185725321140918
-0.02283471444271892
0.012968860671789924
0.009062005201573424
-0.015011114623836688
0.008758243689421552
0.0005565506398857059
-0.03472005043210622
-0.05449045849491415
0.007361970743090083
-0.003290891148706191
0.01731459879950946
-0.051201862385969826
-0.060678804717210245
0.05808780071581955
0.06508307297572007
0.034489602354890334
-0.01333892889596833
-0.011435920697893617
-0.0012238532915747151
0.010193433319186165
0.02660717380558094
-0.02294107672891183
0.018610029665425503
0.010611399147451175
0.008803428414649032
-0.004332376783125122
-0.005678808837903437
0.07301834092243878
-0.03212975532390579
-0.05685123745781963
0.026799219988812132
-0.18608748983083373
-0.014648026276114704
0.043894003273081836
0.02036215295655199
0.018505732344326172
0.016257338290454757
0.05177746215879614
0.0358323497973386
0.02579220388351402
0.005485355982843584
0.029045293797002054
0.010150139108402177
0.014268165030084736
-0.02033748584379657
0.010099329630737008
-0.007274491494312793
-0.014769226210037421
0.036261047992223516
0.06742182002064345
0.03586966121610988
-0.005418966379239264
0.0037965321735729547
-0.0034974705704473264
-0.1226690973381029
-0.017614333235690213
0.03739966640071358
-0.031994367492201255
0.02866170202857144
-0.10017890200217938
-0.03627240801720874
0.02373804784018009
0.0008673418398406891
-0.013948389264367147
-0.04397104182822277
0.04607240512042339
0.026258491202087408
-0.012077733165992104
-0.0038450481762563834
0.023306287196305866
0.0032335733732152027
-0.0010021283686964247
-0.04975446130489739
-0.0723905741409013
0.02982381077956902
0.054525814751271086
-0.010128225600561763
0.027966318691707195
0.03643389502319647
0.003352897186314511
-0.008524874726014726
-0.001969023059660643
-0.10935516405717885
-0.057341588206361906
0.01856188663643486
-0.004456878580141033
0.02193645787406395
0.015548667180581796
-0.07291946154365603
-0.021481924504119194
0.08696225881075725
0.04043206550673292
0.06816622603766068
0.019302521587790056
0.021628259834354183
-0.013587807197089217
0.02140950643531654
-0.1131916359012881
-0.015711459458705373
0.04299150968705616
-0.011091579409389192
0.028806608986901405
0.027393070862744562
-0.01917214595560029
-0.02728020193781282
-0.01796053686581502
-0.009394578431136589
0.0012207201186024725
-0.017243860591183408
0.013140779579540539
-0.008796000673377805
-0.00022011635817121127
-0.04989339090399047
0.007355329133915812
0.06964166000970702
-0.03099404889712338
-0.00788452945799977
-0.03099808056217673
-0.016072154339066384
-0.03764268291307157
0.04954127727656702
0.07213316748026273
-0.0382166921729566
0.14765046677828308
0.11867790273689448
-0.004498359089179378
-0.057578655305732765
-0.008724763738223855
-0.011312725544943817
-0.010776237594562291
0.0033008132324355214
0.004327548055571536
0.0006943882325162613
-0.0031468746459206325
0.001790768731525956
0.012160913539670531
0.004616822809248451
-0.07022855963646807
-0.09038307949717012
0.06665925201844258
0.067420376017439
-0.020052375262296213
-0.02247518557435934
-0.0314149505584179
0.09672266712322194
0.0015787964515895246
0.01713385682667593
0.0009795971872207318
-0.0006829212774176161
0.01660146431203596
-0.003815702776555103
-0.05734311676030366
0.02942090497707876
-0.0025646223261248406
-0.009757764009019702
0.025327195752128613
0.02362451004348034
-0.08395447547971001
-0.03590250897020998
0.005119471218818879
0.014116743890026805
0.010996309444314302
0.014821147422324378
-0.0360030637288838
0.0504277936303574
-0.20532013779533298
-0.09391893832340667
-0.07077680368518836
-0.10757160722604796
0.029280959246508167
0.12679414606352662
0.07292031401788131
-0.0031466728518324844
0.11054526005918762
0.015890466815448638
-0.003373851985579397
-0.036282341355122164
0.04596816403101594
-0.008406515134204097
-0.021823578745067716
-0.03629407893585928
0.005500946102852384
-0.02686590874268294
0.0188350009792843
0.015689800381823275
-0.008739638582280199
-0.0032463569069410944
0.023143187808894013
-0.023784028358688734
0.04007365042764835
0.18860763219190946
-0.02142587874576835
-0.04306555658546235
-0.011725998594552586
0.012220911382886909
-0.019146219674506578
-0.0005626266536730726
-0.035638014332197425
0.0423280622923652
0.17779230782155622
-0.045790471139674105
0.010947531473558664
0.023845936026324958
-0.031600711262986275
-0.0220246474612051
-0.011197314948485637
-0.017467480474983116
0.01123577455244114
-0.013648073492383759
-0.012666931037439542
-0.006022476856341022
-0.006561312078164454
-0.005422241307200978
-0.02789540466790586
0.020829836161047926
0.016816573893747168
-0.02485080082877334
-0.024208472610362852
0.005653043035836335
-0.0425818239731171
0.02080917631422407
0.004663824530948452
0.023798301115667476
-0.02512332644437779
-0.014273262795897093
-0.020032073618788292
0.04014631544188849
-0.1511287732214022
-0.10137582969908526
0.034917128628028836
-0.029910962373554128
-0.030642356783834566
0.03920938001513578
0.042346413750361134
0.01449416412201584
0.02556502026710357
0.004168919236854802
-0.017506017399868762
-0.00344498110155437
0.015099261041834225
0.0076240502469986805
0.010004741759895158
0.009673338282916524
-0.025634495368409293
0.0038238812688033146
-0.014051044011029216
0.029372159965012638
0.06209417337908292
0.01816910249851269
-0.009708098630289354
-0.004404963199301415
0.00042297314769474884
-0.0010129984787051209
-0.02050848108359275
-0.005086721550284979
0.02812958024284246
0.0390372524442281
-0.003195336771169489
0.00764510051469834
-0.021804250733356914
-0.0022767750991787277
0.008793801703240477
-0.03392277701520912
-0.004529104312180549
0.014330026843498269
0.02937117696731996
0.09884573627554988
-0.021159152506652956
0.002778979887528925
0.005757568876087648
-0.020547723559742454
-0.01233030703090915
-0.01751742313745143
-0.03727948055613867
0.01519782872699122
0.023517033107335526
0.009928022017483152
-0.02038888538940396
0.016834751517390972
0.01231985036393971
0.0042023842988233445
0.011766880604556842
0.0024718290580262024
0.049605101967408506
-0.014310260217232083
-0.009162477926993533
0.02813967702703815
0.006159454968000333
0.024183137582782767
-0.01838902596505292
-0.039467995224392614
-0.004300908940804239
-0.0313827535310419
-0.001035955027669013
0.032108932026187045
-0.04522860418998309
-0.1337519106414967
-0.0003752760087187378
-0.002588903943945688
0.015270456344855124
-0.011727287468070636
-0.005295197601161595
-0.01436030614384826
0.030489660679304493
0.01868565495184632
0.0002442681679261381
0.009542504690074892
0.04668349530507899
-0.028133017918701226
-0.09600526486763765
-0.035180528390859146
-0.031983699676598455
-0.0014012047763231987
-0.03203376844048005
-0.07463390495740113
-0.014931710188480581
-0.041445292424612604
-0.0009372532845007927
0.049564555418164576
-0.0029838156379749844
-0.03146900418727827
0.0016680353200674534
0.030767379570624573
0.05552798633501371
-0.025548414068701134
-0.022976989435838303
0.17659466220460548
0.09558175936391262
-0.049592102040445576
0.013583705146057713
-0.0023438873410447053
-0.01532902182918911
0.08393804485639977
0.09249302472975604
0.06080829418998098
0.01284503500258233
-0.03752609284524384
0.00807200220973738
-0.03646867311099641
-0.03086090319405661
0.006840067373780178
0.029523877015882265
-0.026862572176897425
-0.016074288698096212
0.007233212253462404
0.010928152005146335
-0.07395674746109446
0.007361178782432321
0.011997208783437574
0.008175993050320995
0.000717075809280818
-0.007146664307031355
-0.050503809424226484
0.028679883448351897
0.09694960346706968
0.07126941193145911
-0.002838302101976304
-0.047931855155574084
0.0063652901068491806
-0.02173467399407193
-0.05994112362070089
-0.023857105729874206
0.0034386134035323847
-0.005970941829663435
0.044545287095428716
0.021950917527998718
0.0036264124729116177
-0.005732967915376708
-0.06172207185430738
-0.0057236873836270545
-0.02531468411481187
0.0021369675163308774
0.004254697611676482
0.016360599666404643
0.007448647391633459
-0.0038247525662764817
-0.013085738322957235
0.0021039291786377496
0.003992613132568515
-0.00026626631522802665
-0.003035412808178564
-0.000344641278225447
-0.004851333759346805
0.020552416614210516
-0.011518705175136217
0.035450516251622474
0.008064825326568745
-0.013573882467264544
-0.021767946273119974
0.02398730287314404
-0.033353778700284026
0.02050498326893639
-0.12381203333855023
-0.1319907599386347
0.03513258163645773
-0.038784543078074274
-0.009069707397303523
0.02069052061356147
0.03934960753677156
0.004390846953211741
0.018593849297010367
-0.036467338377787914
-0.061913659384796156
-0.049628587090786457
0.026691096846146137
0.07750470857037742
0.05643489632342967
0.11751911705161128
0.011771804792537576
0.008340346811499873
0.0016395585510891207
-0.049345069058865085
-0.020857375589293747
-0.011809068481570739
-0.002641428223710808
0.05071262727803838
0.05627951872621765
0.03942753723545013
0.006721627402150468
0.04147139376994403
-0.02669614536543844
-0.007259475091344068
-0.003441896549590965
0.00571498178521519
-0.029954530862229583
-0.012341039252055954
0.01557965640333042
0.029315414024751008
0.014904388384196889
-0.00728249356479884
0.005805932668880049
0.03429750625189349
0.005676416024300874
0.0017790107118826016
-0.003247510451178702
-0.02413319580706003
-0.022687145616455687
0.027757685445582044
0.002166327758844424
-0.035808599028500795
0.007074140933023072
0.022537377975810152
-0.14712964059362665
-0.0031687078054105757
-0.006924036749749324
0.03677363382341833
0.022210754636308956
0.030878955057767738
-0.1382658289503934
-0.13664790186447026
0.0598980390683297
0.02685148186299871
0.013274656566629333
-0.00983721990878015
-0.028990350615619578
-0.011577497114764756
0.052019669795379336
-0.013768059100455346
-0.011435555880178515
-0.0049861898231847186
-0.0358057673494391
-0.019710670937487122
0.03249568913868466
0.021851277450038623
0.004241304666150839
0.07214448859191121
0.08934685993096604
-0.03056014728005714
0.037165175973345906
0.037799322946906966
-0.017873656075013605
-0.034652141038776695
-0.03623589327540667
0.01678391065490696
0.028174203951063827
-0.0029200710192473674
0.009780115575432513
0.010892357873649757
0.029209969311830834
-0.00528318798328602
0.0001643959578084903
0.005552711611214729
-0.0022064725531808853
0.03360929595222979
-0.05441718323456758
-0.05495863254113669
0.011668497527366322
-0.052232122984376794
-0.029459448035878622
0.06252223081835555
0.08032726711560492
0.017633704788575396
0.03773595284722436
0.02664399573671098
-0.05192126994542022
-0.07794210177229526
0.04909058666640539
-0.013980507591961308
-0.01742788913973599
-0.04481354460024944
-0.004412679194084738
-0.040019083360044345
-0.032345395809175996
-0.010361773599839898
0.041647821487544714
0.02911635051900202
0.0017632880625189965
0.045875320634379976
0.009889744163139659
-0.018433924562654202
-0.026398530139260655
-0.12949166376956694
-0.01734251172022785
0.022556657868873172
-0.041947307816987064
0.0642600989566227
0.02447754987364302
-0.00011084197876126154
0.042886736410787184
0.016627248909697273
-0.012471865725731479
-0.022292070818099814
-0.007185756640063952
0.0021062635641256548
-0.026603401322226692
-0.048140514256774056
-0.026790176964113323
0.0813776001053284
0.03269599614600485
-0.03964196590762286
0.06984391010830346
0.06341185493503798
-0.0595571880427487
-0.03849850353116525
0.03657030149143268
0.06817314254699083
0.014813141531934606
0.04478684789621392
0.0034352458385994585
-0.004298263525406358
-0.042396515627992425
-0.0007940171598015507
-0.028204974153780343
-0.07214942752780681
-0.03274140919661108
0.04443512221459762
0.05833763489369668
0.012821734639164799
-0.00957980192063396
0.00938167759475904
-0.043862838213788606
0.0806208980835337
0.14546683857726464
-0.010021165761779607
-0.02525059472418557
-0.04197432937698956
-0.0013322415606265051
0.008169946197173705
0.051510467428354946
-0.03486702210783211
-0.002303744239751263
-0.015962426205097024
-0.008275543903552734
0.017142978961778476
-0.01461279736163383
-0.04773783601993557
-0.022137611210608962
-0.06311279250392525
-0.04841741241182014
-0.030670592700930237
-0.0176645077801524
-0.07282507867929076
-0.013557593776745628
-0.00589993556384182
-0.020965342045890463
0.05394311919851279
0.054461278553826105
-0.046219434442499395
0.015337837433461515
-0.016303153083842024
0.03381493940305558
0.061305174215183146
0.023897430411598967
0.006328613202603638
-0.0012664861664070687
-0.0009954279530098313
-0.03548150582581396
0.03765334909832372
0.004732311957514863
-0.023089912282920524
-0.004844875986161288
0.05590116673333081
0.036858496115638614
-0.019461212252743637
-0.09301568939755948
-0.026862589835044928
0.010152842152063801
0.015939510577519685
0.06976092093563079
0.013047544103180085
-0.06029489730414668
0.01280081957718055
-0.00451757343844944
0.004702655552273367
-0.05213265033627602
-0.0580497648157855
-0.006915844171330629
0.016827645125242083
-0.03518329521888781
0.03461588476505436
0.02662860914921502
-0.015922028766366832
0.036363906552883275
0.0010967474281148631
-0.02298095103697163
0.13812047786370113
0.08311795834132205
-0.023652982540678817
-0.006756803524907996
-0.01550936905068923
0.04033051883121963
0.0027537458599245666
-0.033942978146321696
0.04295909433510246
0.07386697352188282
-0.020252118223458196
-0.004738792406357069
-0.24246862422388607
-0.0023496718565740758
0.05609577032444695
0.0014410003071389024
0.03611952481608034
0.012341064825656453
-0.02197026606619395
-0.023217202796275278
-0.007237277611695703
-0.02451549719368262
0.024918388700843553
0.00516172173176852
0.023707734269881063
0.022109356209533748
-0.007818279675437535
-0.02908174688947923
-0.024031516479819937
0.015495385974920166
0.02129433414433966
-0.016622924819479516
-0.0022941929951579357
-0.006428261624437215
0.013450666503626117
0.03142265428536644
0.004703242211652143
0.01935924770658671
-0.004494528547213164
-0.008560329274003036
0.028770235951168614
-0.021854301449611112
-0.01124561748648999
-0.008176038328651694
-0.01001085561242011
-0.029443789608080428
0.017511397971696083
0.0008557292234900803
-0.03681829658198978
-0.004798133737320946
-0.01765576297896875
-0.019184794292333957
-0.017134292050611715
-0.029460882599139412
0.0198244657521708
0.00044903334086067193
0.10092679609454609
0.08364612780744252
0.0005795126642168492
0.003707091940654535
-0.007625599117823933
-0.04555323766399165
-0.027211476821726078
0.027836454936256413
0.015976796281646527
-0.07904537548548708
-0.03135248099350423
-0.02873839402852315
0.009974798596264082
0.03975331706559939
-0.012285208262323665
0.043045686934998675
