0
-0.07724002573430372
0.07503396999072419
0.030227795463069446
-0.02420406019560111
0.006526894070652674
-0.018489661844955298
0.005474545760180205
-0.018309213596904083
-0.00217347929977665
0.011058521456809694
0.0237796988837634
0.011378164357736859
0.020214566243634588
-0.027022945702879112
0.002112989590238315
0.03049153269938424
-0.009599570788125367
-0.00019010970272150427
-0.02122980545675028
0.02564599010705358
0.02247763374669583
-0.0059021149079871455
0.01204214004178715
-0.019675052525625316
0.054949778127103985
-0.010540047128327531
-0.0009533109648624532
-0.233332708953956
-0.06377048335488877
0.027340273116154733
-0.01949802642930492
0.033060623371266244
-0.014261184898891248
-0.010024362726311313
0.058488662768817555
0.049138145500370684
0.005864163972787431
0.014827523581901644
-0.046724682537318055
-0.009073200730012302
-0.05355988519853121
0.05178560413794342
0.07770105098398476
-0.026583179721335073
-0.011337866158208117
-0.04010593247444454
-0.0004603755551124566
0.03677727322406641
0.015937378064429512
-0.004801281451113525
-0.018406984293263224
0.021621948050274637
0.007768571192959532
0.0015164314011161366
-0.006039618165338597
0.013380256325740263
0.020689845026287172
0.029073603197621426
-0.0370132728620053
-0.0296432924202008
0.0022467425168469363
-0.00534178965760807
0.038909114700718325
-0.0024356665605301535
-0.02228955608165925
-0.010309391518786055
-0.013378894745957255
0.07605447976355048
-0.013433465852550962
-0.018760927954965093
0.004341233290875154
0.012634156010972581
0.0013463767819810741
-0.07213850268340644
0.0213613417086348
0.028877453613385007
-0.019576490031296086
-0.015885029842984382
0.030076746398579334
-0.011464642134098278
0.00855596891433669
0.03550530920268682
0.08157462681318753
-0.04556636559190012
-0.221078112852213
0.01175318454229599
0.1413469315655116
-0.0029360253827862785
-0.01257951068723839
0.04153905507504682
-0.04649149517611282
-0.030498068372127676
-0.0005869340030790817
-0.010900607399766043
-0.026463044588983724
-0.04141172193746028
-0.02499104199342077
0.07918860393338004
0.01504489692377457
-0.005478892381725997
0.023600277805291094
0.02030281785762887
-0.013203509911202262
-0.05494133467488826
-0.08977738013694064
-0.009162085371773585
-0.020211516647622284
-0.014050292390749163
0.006600005569527523
-0.010479498558777148
-0.007786457518758116
-0.01737225351560607
0.011371367442605262
0.04287503681899588
0.015927705784148993
0.015818038402092987
-0.007795307497760233
0.03490698124866117
0.028947336588261464
-0.018695360709675733
0.0032521881213080357
-0.016642898749436866
0.04325399801992692
-0.0007757298411902907
0.004630132772221317
-0.02527456229318926
0.07505866859799579
0.14297555151809632
-0.0674087717983226
0.002851129484330448
0.005040894578707037
0.046086854312549115
-0.025061781572785265
-0.022073907638539506
-0.046902614624793615
-0.01485317081200275
0.012198750225461567
0.00020634076329795867
-0.014740481141329899
0.005401112906343899
-0.04549285781758221
-0.04618003127843663
-0.019418409407619137
0.14877105758461384
0.17799948019108663
-0.009488690670071505
-0.050306406059037655
-0.03904704466130229
-0.024028124247175552
0.01605942454316136
-0.009099375283082389
0.0261301719033404
0.002297448951989623
0.007715401685108523
0.01783322704076902
-0.023124174237626506
-0.01792050338350874
-0.04825574958472657
-0.0015703320746521924
0.012171504807207927
-0.01770079478896793
-0.024687635960132834
-0.007198933781497509
-0.03803081914248952
-0.026147879156192495
-0.00864359675251545
0.008231544318336954
0.0005035203919178303
0.03335958236506022
-0.022587788986889578
0.0026865874592440693
0.018519444727097344
-0.01420230110248771
-0.002727297474781834
0.013695451109420715
0.04057394038699032
-0.02214575634764915
-0.03703619777305823
-0.03699447021896506
0.00042658255889350586
0.01464447375892168
-0.011340759018675046
0.027142019753571688
0.10757877985148771
0.005175803034009129
0.005544527760716622
-0.007461976549348219
-0.06478095138599121
0.012547822614916389
-0.08138288117351865
-0.08707638141738569
0.02859429275201854
-0.01318920597816002
-0.029190584464335874
0.12192490385221212
0.09554420154611393
-0.09279167677471044
0.006150125670094532
-0.010529702067797755
0.03342240194092591
-0.045309334327573836
-0.010052518844072598
-0.03359794459099862
-0.05132407884407207
-0.11626135346231829
0.10389184323132039
0.17405707912482887
-0.06103539869407811
-0.01305294135950474
-0.022386263579711515
0.0233142348609725
0.08155815603276663
0.01996671351806202
5.796799417472345e-06
-0.035225260633433536
0.013341846961760905
-0.017864143512741515
0.01288005884568693
0.005500522096396776
-0.008231388917287526
0.01687557134071062
-0.013168819693715902
-0.004010147867437425
0.020736661620313023
-0.0043099652193068876
-0.019537514333078643
-0.01116045733633729
0.05076293954686947
-0.0070547305992459935
-0.016958659414879375
-0.0689207133080922
-0.019352564814571604
-0.012673480907394185
0.03527134249556245
0.002605622147812656
0.04035031568639484
-0.10352550174151441
-0.010997148720439784
0.01603740057965691
0.07093500914939709
-0.02872961880118531
0.03645883175310989
-0.08737300304841604
-0.08948051826030343
0.02943382095866473
0.13557782809058141
0.030085373553250343
-0.022595746379212918
0.017240002316802523
-0.024879497453904654
0.003843166858749176
-0.05720642163699805
0.0015884015974194814
-0.029950253751195772
0.025289138139290596
-0.019063078175209542
0.014517514293046796
0.07804142960431905
0.06278459636134925
-0.004862433716716465
0.008584674514671025
-0.04758426222920945
0.021811673955933444
0.0530950971612431
0.0050182653259487
0.005597090907326928
-0.013356541290683897
-0.007456012605714209
-0.01699394027717909
-0.012318639927618762
-0.007354112868982472
0.0017690598987135772
-0.01758782892896179
0.02552479374956132
0.02965982994364041
-1.898799463107364e-05
0.0007036954353815587
-0.026228632473453275
0.028496925436672236
-0.12176909560932303
-0.06361105508765497
0.030258345870617438
-0.06481084701558858
0.030493658852352386
-0.004448377146732931
0.00796573263913427
0.010295562331050676
-0.016824379002920047
0.011366769898414656
0.05333815618233509
0.006625634426352669
-0.00011548325394193513
-0.009364574426215501
0.03907088988325742
0.013480124045181539
0.015309676943852345
-0.0056676473329830305
-0.004782194533804219
0.050692097194364155
0.0661175386594707
-0.0026000128601831136
0.013808870248263326
0.01195425831154172
-0.04340506422494894
-0.06840631876235485
0.08356974032759858
-0.006013633244555191
0.011324336292453828
-0.07444238635226916
-0.040275167640803015
-0.02311801830110496
0.06758007412188635
0.04651850730715507
0.008215563543068722
-0.022695018918880344
0.0258398784762509
-0.10416072698250807
-0.14366709760493268
-0.012705042268269745
0.019272861254062367
0.09444462258066148
0.018392524787065857
0.04115802584684835
-0.01160838499103612
0.01728135332685813
-0.03639029341650255
0.021328567188992873
0.011488638096020923
-0.004257957321450015
-0.014470504124428893
0.0004487832201598226
-0.08793587917503407
-0.05161088967841321
0.016695480469714547
-0.006163218844878654
-0.005003848746264091
0.004430920428345095
-0.015897467896850998
-0.04580867290836076
0.030784998704349892
-0.009423858455070289
0.03091229344775026
0.0348453229144249
-0.02599126698449073
-0.015090550644280753
-0.029579060330664157
-0.013579484082145035
-0.005583750518398111
0.02400302886654075
-0.008305069501013305
0.047139234107093676
0.06874711708024896
0.04151864602365723
-0.0036506989403531573
0.02995732979108519
0.001258267642660757
0.0372916624572763
0.04230161964738056
-0.008915706914400353
-0.018689903114942338
-0.012263870333539045
-0.01335210267506722
0.023162961968997052
-0.014374779676882728
-0.02564407129808859
-0.0031838698359246383
-0.02407470959102645
3.544138646741913e-05
0.03741416174895336
-0.001142260645591967
0.024572368145351478
-0.03256033063160819
-0.024413816843345492
-0.025247639186459676
0.08150872364278315
0.03058870022004277
-0.0839620452856038
0.00840493127713597
-0.020642492647800617
0.013211585324416807
-0.010642532050479218
-0.0019959353689730213
0.0015742696838067578
0.06364764040705588
-0.005451967509467113
0.014264212365867534
-0.0028548828207585917
-0.01253506262895742
0.06706925732955632
-0.004373777857980047
-0.04309866347060845
0.011250171829393474
-0.03641282985558452
-0.042005718743042035
-0.03203161946225514
-0.0355662352783926
0.02278488740622352
-0.000945559338661497
0.022985792466058676
-0.004868635481803349
0.07021636167626069
-0.022552269669913454
-0.024065770504579944
0.01047907876438261
-0.03323222337809272
0.04104184926235407
-0.07239721678204297
-0.16095113115115856
0.09339437933014777
-0.11991585819794554
-0.0445372730904035
-0.047704601547385476
0.14287575820678192
0.07609308020522874
-0.039261259054925
0.0030326658227036543
0.003444578873894645
-0.05318682728154363
0.03543154609569051
0.1579047700936871
-0.03531699030101007
0.09302129555331433
0.02061607553216102
-0.00962481122603331
-0.010307364135217299
-0.018001474449966397
0.010610528191703578
0.053953973036446126
0.016770019650674504
-0.038401764098561934
0.1252872363921497
0.029271906181434815
-0.13581157001660724
-0.03163332237785672
0.011123817802272753
-0.04350118888937192
-0.07089816398057942
-0.07673213610165139
0.15098812258588007
0.06255392496399054
-0.030867310036608808
-0.025938307478704518
-0.06914493129108984
-0.042930731671604674
-0.03990736822862871
0.0022200580036817372
0.08862725820435563
0.023250507155359097
-0.02306175730451503
0.013169429002097176
-0.008385240699935206
-0.01862831241296889
-0.001295639287811515
0.0026354800130312757
0.03429081666060146
0.05196693066383254
0.010673047377375695
0.001150156417884543
-0.017419112263266142
-0.14066574101963733
-0.0016720294245361213
0.0755083224116157
0.039521571389899986
-0.009515968439936387
0.04008788415148607
0.0016471564913306891
-0.0055496442327175564
-0.013634412729341757
-0.037985447558788264
-0.01576604510505002
0.00030871113507424734
-0.0074742091717928906
-0.03177744379169469
-0.06518845766348548
0.028947374344661353
0.02785631869603558
0.11087945645203189
0.08305307397124095
-0.02986754392232581
0.0005528184338041873
-0.013429677147094117
-0.02436884153993709
-0.017376026624677934
-0.09812559358509913
-0.08090676969328052
0.04727076109737218
0.005920310019892744
0.06997459737836245
0.03706944350693746
-0.009784992586188274
0.02183261462538065
-0.010687763010919909
-0.03363003458914172
-0.00929187070909525
-0.005828103664424981
0.038294651728125226
-0.015394910608081243
-0.017450683689442036
0.0005696945464281952
0.0013709333678335336
-0.01711006974249815
0.06098739438454011
0.054259607045054684
-0.00037227282742352926
0.002458187093035693
-0.025921389053319623
-0.0072970554483758636
-0.016240442248421316
0.004986379008153773
0.004177567319450647
0.00017311430032731554
-0.0071810431999347595
-0.025618847647301584
-0.025791769202616
-0.05405591253446539
-0.004604471426969538
0.016321549486330713
0.0075032710626499926
0.02073279139124385
-0.0036169673420763724
-0.0039851685203278414
-0.015581780357911792
0.005236967590701682
0.005769040258490926
-0.058892847428013255
-0.006809406032235681
-0.0076219335546080964
0.007013050900398458
-0.017400886700718828
0.018027319639048665
0.010119465367842468
0.038646408884784704
0.0026197136847333075
0.002898168002645147
-0.00177200483133006
0.018981308301393034
0.024788112618247163
0.005727044517763035
-0.030526513660064352
0.020649593644454994
0.01959249334059147
-0.01400083153756153
-0.003530809440186662
0.04048769683527279
-0.004422639756796866
0.013831186244658353
-0.028157287105693457
-0.01225928714515952
0.010402376821594108
0.016520669403485688
0.012122356440053071
-0.008326417207550285
0.014300311691219732
-0.03649838635729449
0.004749733017973786
-0.023078245495163404
-0.013067227567475803
-0.07019448255385173
0.010996879283631293
0.04038612020495838
0.033388697701554955
0.008481594032731913
0.004205341965963021
-0.03192959145460091
-0.012011141646579024
0.006806162046380197
-0.006131017934042518
0.005040905458935612
-0.023036227181719805
-0.031896362273747675
-0.021108572671669476
-0.03078688770455223
-0.012798027206009569
0.03710964124423508
0.04703644564827333
0.009100060467658844
0.01372188286954504
-0.021442829105800233
-0.039823251769424
-0.02090162114760333
0.06512002657266691
0.024408217591762867
0.016914985764563323
-0.06448495037861221
-0.1490835885607812
0.1350588909976474
0.058151601751103864
-0.042895743135514114
-0.06850197958670466
0.07629115772923627
0.03679054180715934
0.02871624560099653
0.15092252969015774
0.025403860433226334
-0.015039895475461217
-0.05679655452393496
-0.04933842407681398
-0.006051633242117325
-0.03930854604788644
-0.006713707745590654
-0.00221293285125706
0.017165818994477517
-0.016208402837982874
0.012207368547137687
-0.03362421051579947
0.016935163334461687
0.09763310367452331
-0.0340989754349399
0.0024170654090254692
0.07363996969845835
0.05187020793048975
0.005991190975257163
0.006549910371369688
-0.03014163986122973
-0.04449955581941594
0.01615605628929876
-0.0175490690230507
-0.015425329728204467
0.022690497654064133
0.01704739848851778
0.02072230913044013
0.016061109574019166
-0.0037556834283740477
-0.03329533473044967
-0.002459608621652146
-0.014592933358243227
-0.009806165636098997
0.015734311208901883
-0.043308210640059214
-0.036146047563471555
0.016480040300323656
0.03229426450444053
-0.019305505817693473
0.008094328525923056
-0.04171691615059543
-0.03553668176893507
0.01533806854084118
0.03153566307965821
0.013081705124594585
0.02279034831605975
-0.041893383584042945
-0.23268484449751636
0.022295195339383827
-0.008480341118565387
0.012727131519639378
0.0021954072120294785
0.0036734231714953772
-0.01135673444037584
0.002476978405208618
-0.00712407770500176
-0.004928587530663707
0.0017694762155524067
0.01737430539073326
0.024790236398654398
0.014809550971526754
0.01702628094268191
0.010802615756195748
-0.01837158702539891
-0.018133507970621077
-0.007055509113298609
0.00651258961524455
-0.004911705981100336
0.0019977363979720776
-0.0008198271784663529
0.007567708677715003
0.028780799540941288
-0.006661512877192987
0.029855977223604214
0.009505952255746745
0.01419362132041899
0.003570723141073213
0.03914128833673823
0.04519151118723227
0.006871814784420782
-0.010320094397785097
-0.04407429757246149
0.0007928740491678334
0.027147641456942352
-0.04691455139973359
-0.008335105121247046
0.008990171538749113
-0.023333740850899946
0.03426933800480244
0.011958704916239692
0.014196046828344706
0.003271129083728734
0.013784896604645509
0.022305865413316868
-0.03239301920720716
0.026708005086570046
-0.008120218570099905
-0.013434879973946847
-0.03428837134160301
-0.0012993494813436069
0.048163912284572334
0.005967346019065494
-0.03595144871089834
-0.009430909028237367
-0.017737059262175413
0.01006299050527236
0.015502887957804164
-0.00373330528209027
0.013065223867223648
0.01310020626042236
0.03553021926595721
0.030093654173466412
0.05296980061142935
0.023818132317474896
0.025728006645451485
-0.0015675778367307605
-0.00029729537427350823
-0.023258861442489003
-0.09093298673046013
0.006187775640136515
0.021697301117091713
-0.01879857155911896
-0.005233441670203392
0.02576285781203572
0.02468449855107803
-0.03063666961206084
-0.020000085183193437
0.023567774061009284
-0.05477257718805448
-0.09143472184831455
-0.019693965811414492
-0.06432547806766101
0.10610740050228333
-0.06960264938799184
-0.03250076319853485
0.030943141152814206
-0.043974937959943894
-0.027556912052676946
-0.01952840451804546
-0.0350351016672635
0.07425782830171686
-0.007926287511145585
-0.02047538800824445
0.013317312054526168
-0.017419853984163965
0.01770769061710394
0.034879129824406295
0.016690533770151162
-0.02629140591360474
-0.0025459384241677836
-0.0031953721672692845
0.0265521096397321
0.016379811954502922
0.005127546703311464
-0.005822328078111882
0.005919691847474029
0.006082278744210818
-0.00726934844366345
-0.004878797041746088
0.12120493511399712
0.04245549709459571
0.015117279399756307
0.0051446150009799825
-0.017487642399285252
-0.04620926044725154
-0.03071089204076428
-0.008276151226521972
-0.02774553752589556
0.017848422672517742
-0.031032684194385568
0.04067145482579679
0.0024832098108539965
0.06106076388948306
0.009049233471087697
-0.07265713671040425
-0.039357340430592254
0.051321016637625276
0.02928164089568352
-0.03842123365383484
-0.0095231714177093
0.016004431605691587
-0.020789982863225722
-0.02368431763300323
0.0003143919243520787
0.054328545749128265
-0.03183559367678497
0.043694022506631784
0.03362595742722397
0.012923250840046656
0.003359174016385228
-0.027785778609882107
-0.03183802285388425
-0.05653880515752485
-0.015267831742641003
-0.020259227164433707
0.10100520731019666
0.05733627997223639
-0.03733690852906223
0.01933801669068731
-0.03174506921548333
-0.01663814008915444
-0.010702949948195085
0.02062544499174256
0.0006684977797087409
-0.015795691445639932
-0.02085765061996955
0.054630394840413196
0.03451257364345956
-0.053157256723536335
0.0011139615757809343
0.0902026449776755
-0.01830495382844244
-0.06717094430922228
-0.017159966699017135
0.0011618498378988657
0.013421807079505263
0.004708224407404325
-0.034168466483176375
-0.06633464403281492
0.026126000027008784
0.03636786188356744
0.019540851059544694
0.012745223144803513
0.007555362018247316
-0.0026234860837647325
0.05066606282079842
0.0059322852625726015
-0.03693814082375339
0.02195390937149929
-0.0012680143773815685
-0.015456209044742611
0.012289884113836263
0.0027762096086531326
-0.010333804216201687
0.00720635505611209
-0.08807485659290615
-0.09595642908297546
0.030983464108704378
-0.01836613784675157
0.003986258919241447
0.09274633791101018
0.0406764570055937
-0.014957566634374113
-0.01776457644197441
-0.025021901504585595
-0.009551478917047622
-0.03245993022683826
-0.02034080312136893
0.0044177608233200985
0.015209426073866994
-0.03954263450603231
-0.009338597799262376
0.0369241860933043
0.06130678846402815
-0.02436732439167691
0.031109529592494734
-0.012585285746096374
0.0005856728505515144
-0.018108865870392076
0.0287493409569109
0.026711725251561548
-0.03261481768307171
0.013818164166313226
0.0372796590470905
-0.040789487921189985
-0.003507606086998519
0.004733783770991129
-0.1033532914106223
-0.11688656328514613
0.0759323390596446
-0.012872731506577082
0.009057479150859034
0.21973016260515807
0.0375226228959235
0.023152458315217554
-0.02449896697082812
-0.07006020787974279
-0.02177370207097948
0.0034643331949926995
-0.0054283006141666555
-0.004935403085776681
0.012746090421759197
-0.0140702738789469
-0.0026043092087182688
-0.01815425592143221
0.016068971488696612
-0.006625357233832771
-0.030699671431550127
0.014504763365435372
-0.04630780337820091
-2.6535066284903292e-05
-0.012750117075354445
-0.015969831624461566
-0.01451336888412482
-0.002282592343405467
-0.0422251121586508
0.007746821830105488
-0.001476860947025616
-0.022814560020000676
0.05871652073239347
-0.03704779810567511
-0.024184319268596214
0.03647355454071319
0.2190765687881721
0.04881209985868903
-0.014384216978441607
0.045305727537656354
0.058540253031756154
-0.015430856403510041
0.00507318594053239
-0.03747039662356111
0.025618546141510486
-0.0033810723778294038
-0.020120209945597486
0.007056797044740604
-0.01754686626778794
-0.017472702362640594
0.02552316774178827
0.04960906510835761
-0.10555246190129582
-0.20664017790138448
0.05706095646426448
0.01631451464399448
-0.003037328053113591
-0.003716989923513857
0.06497337604506334
0.03863591528089491
0.0038233336767365092
-0.04251017832427547
-0.07696140168660642
-0.007510850191910652
0.057905720040921184
-0.001479023462633739
-0.007106356757071862
-0.08722316412164928
-0.11661279258403759
0.11531604071474862
-0.005542062888578995
0.05742454568044313
0.0701971480601657
-0.0009724686827371438
-0.004681242896657593
-0.05341239112466417
-0.014347465800126897
0.0031171471192223644
-0.0045218429797321685
-0.0033388926787914
0.021192268942735695
0.012603574202954564
0.04940586491708611
0.1019220495210217
0.02681549586994941
-0.02408892221569146
-0.048046834382070795
-0.06532608124959198
-0.005981846425038088
-0.02741477663422037
-0.008976215155590965
-0.016015270780198244
0.014611940175918766
-0.029622455906728386
0.009766638683982804
-0.02118085039006276
0.005904721522848752
-0.0067963555461615045
-0.018920054497460693
0.00802716413973215
0.001470644052926539
0.02921717129748671
0.049236813733300536
-0.07835769033108599
-0.0354987039819651
0.0813277393676466
-0.0754610437382795
-0.007486457835396792
-0.051826254288885536
0.05836271036275678
0.06346654310554213
-0.04099170486813387
-0.024278690054391122
-0.019207017739633868
-0.012749436322298848
-0.02157050033276601
-0.014261352475920997
0.014250275884208735
0.024619806396505208
-0.02443268358770087
-0.034963477274762206
0.045928389219915766
0.03315448927588898
0.013197876962373822
0.09897021805383321
-0.028209621440707492
0.007751343015649561
-0.009983038077361788
0.010571005021236372
-0.0037658551032664295
0.06824489713539669
0.010003797142797088
-0.02717880650259517
-0.013608480485624389
0.00833256298715727
0.02533760004217705
-0.006704880053984777
-0.0016134741957131023
0.003964474338956867
0.014221411041452175
0.014147413943931528
0.012489241093546608
-0.0030407257734922566
-0.02259238068820196
-0.019040516989276165
0.02954658332182479
0.007758828481112577
-0.03087020192721548
0.00047415298054011
0.01266387100903392
0.05932909563380701
0.07310510970957428
-0.01749027102539959
0.01581836055365042
0.009788805118281103
-0.048282824541313656
-0.03922918710867101
-0.024300668403195693
-0.017184732666251087
-0.020679299134000198
-0.01646649683712962
-0.02482926558004675
-0.04787001808574468
0.0018937320571628718
0.01999121516631776
0.01172361808929741
-0.029476612854813823
0.022118272176748503
-0.1652215673596222
-0.0053970019680422325
0.0015134959468955358
0.047530315531755046
0.10199544351007261
-0.04375510281528555
0.034987566734310256
0.0028084589382872975
0.029941453355362517
0.012216441580689725
0.018796904411894164
-0.03406284509266761
0.01458767681860288
-0.01130689654674062
0.08884785981246583
0.006560082026053374
-0.0465874039819244
-0.009145401595826663
0.06749013651816307
-0.0009355066437823247
0.005170625043752269
-0.030397991157295363
-0.01860244513429681
-0.021252964379992623
-0.06241241661918392
0.006859158923297456
0.0016400017118735296
-0.007409762273882926
-0.006542229864910953
0.006980564260830752
0.011314462272960917
-0.038110484576565726
-0.015578418043437313
0.007743797407633058
0.03311757698481624
-0.02158044743771785
-0.021976960350868453
-0.02418045550506048
-0.0014051908335570838
0.03055004860030157
-0.027742424748411414
0.004372657753990848
0.0016904828875618672
-0.05370444744086447
0.003065868256730844
0.004148245396823711
-0.03571332525505436
-0.014861989599669868
0.012551103310824362
0.010326477634716662
0.0013232980259066849
-0.04191640187959894
-0.004170136197670499
-0.00564059489955126
-0.044611539198846875
0.047310609917131936
0.044570689416198905
-0.03696674602979893
-0.021443968677537322
-0.02578923366691779
0.017920118016787268
-0.0010934956357304699
0.07076348068983669
0.0060925922650261815
0.3602934929166474
0.11465951647414332
-0.01593809676326136
0.08449602677577037
-0.03427007370402428
-0.07444540019128534
-0.07200293736438788
0.023253406796404162
0.010511230010745436
-0.05354502404165044
-0.017909958171498853
-0.026288883971397503
-0.016958901114405955
-0.020859727366038767
0.001462209212088593
-0.012714554643271283
-0.007312942407369429
-0.019806894808753573
0.036813465051931456
0.024147419952273097
0.0011236020845967777
-0.016479056389981633
-0.004133817330032319
-0.01108444800000715
-0.013263212553935111
-0.02058426213915152
-0.0016384292518130676
-0.020328371323335242
0.007729450614192197
0.05282228754861859
-0.027302473918284578
-0.0019268510592256043
0.014914996764454859
-0.06412410164019892
-0.004101900148850374
0.04052612558768552
0.049047649400322295
-0.131646943090055
-0.18722839415267134
0.053926582468687555
-0.01392822126983451
0.0003254872174034461
-0.0135655333917169
0.06207232919430936
0.0017863529789371741
-0.004949550547136502
0.010203768043562106
0.024382061793093553
0.0025513033195191975
-0.0034175568679825218
0.00871261032718284
0.013527446082507982
0.0007169975465752549
-0.0013994395854040698
0.0007662795246553884
0.00407861694037824
0.012141899792238458
0.02124219028556117
-0.03234695951023656
-0.004301095388178559
0.0114909677245604
0.012521645119855797
0.03155287334530955
-0.0302012127086952
-0.023594360556305743
0.0016022319750381218
-0.028469566710108026
-0.0025145812142410113
0.03714138732053466
0.037246744127713144
-0.0023847732677149407
-0.05042860193607157
-0.020994038322554583
0.005332156009844799
0.006889079351091007
-0.042015878370716776
0.10210398895152922
0.14525371039984358
0.0243193660417521
-0.034774391349549044
-0.008313598103959405
0.05540422627449355
-0.029904423179189246
-0.0020944373471147764
-0.03386907827189176
0.04993268593623621
1.6116294255450087e-05
-0.012690505592730052
-0.027233597456766356
0.0007753888307950839
-0.016687692279702147
0.035440197276417146
-0.060331974810051536
-0.13878554179685335
0.0151401167685067
0.0021996077662415478
-0.043790902773472695
0.026457215182261
-0.02366702284881217
-0.038143474370146306
0.005941015273355945
-0.004542063338693504
0.009656910284483958
-0.016827734622677892
-0.0212850286844154
0.05431164801178252
0.15919163657144575
-0.015630245733725418
-0.0011182789127823446
0.028770987274874545
-0.008768302394359587
0.02464185478999322
0.04638931984031694
0.003597890830478019
0.006724852158359019
-0.028654386019615445
-0.02661799239081684
-0.028619685789954327
-0.015288103432235614
0.016532028258818523
-0.009250060421764553
-0.029236446704303296
0.00987109021067158
0.0407596716057647
-0.020805765404659123
-0.026487909029555706
-0.017110201498031663
-0.02029760045476353
-0.0781393831137842
-0.030088936789772796
0.006234772442874656
-0.013988657309268147
-0.017221344423029594
-0.00974001000831196
-0.004402265170523255
-0.05958515690760389
0.0631656781497625
0.027653292780382997
0.0720258946402647
0.007647595011305301
-0.09689659432670168
0.02427954039927865
-0.0063346979433320655
-0.024585006226956255
0.11223086707284993
0.030258667168495096
-0.020190199091629606
0.023180501717412476
-0.016111639943364713
-0.0527901826688692
-0.045031542187026666
-0.0499552288020224
-0.03312263763226749
-0.0018287899982198526
-0.045245467825989955
-0.00014131392073535456
0.03614036997993587
0.028130078371377536
0.062142530318737926
0.15168971830275263
0.04621969719334246
-0.027907601825155434
-0.00880055079484897
-1.9371144715745285e-05
0.009005785365074698
-0.00423059349178859
-0.021598837800114318
0.1033375502915571
0.03765477961749421
0.09505203244938348
3.295747387560229e-05
-0.012503947544043915
-0.039382195702554135
-0.026788114889283097
-0.001547346591071739
-0.04471408244583008
-0.01536869487438527
-0.015961829623466463
-0.008508799066740725
0.01796670141967963
0.07509895713333829
-0.02875710422079187
0.0688421621600585
0.03651279153122261
-0.018480436170815257
-0.011905264734012856
0.00016760498485265246
0.005240700666105277
0.005609670468506237
-0.036640983723969435
-0.008312264904520025
0.0030746382990398603
-0.023937706004010746
-0.03963253878231641
-0.21099458670668786
-0.04335397104726362
0.0012479525421512916
-0.01026401383101022
0.03321877539257089
0.013742253192367541
0.054073894403952674
-0.039786311816240934
-0.2258323919161835
-0.02023449392333919
0.06715012538810125
0.08327936334481036
0.09426930117443437
0.08830544596978089
0.015982421894291297
-0.0009064601177557347
-0.02087146621554731
0.018243800142102855
-0.009242588127600815
-0.0004459438537634872
0.0009723408994422615
0.0020653539913938175
-0.058655112265661356
-0.0382919235955628
-0.017764113084083166
0.03265192070333858
-0.0036541133960929714
-0.027011754723944768
-0.001973043888575442
0.011340404929009642
0.048165995053902684
0.0381817763747688
-0.0034039033230286344
-0.0073745756993227815
-0.025558497561200762
0.002405572838208395
0.03722650737357121
-0.03162842144678751
0.019317390547594248
-0.018435164523311086
0.02907214339118805
0.010066051618861501
0.06321604379912359
-0.028066601766587224
-0.2140355782233001
-0.00791395690141418
-0.005269057185477725
0.025866048465277115
-0.013441063248474206
-0.023061920504870534
0.020102565192394117
0.0001922999460677838
0.0380440478504217
0.025955506698442588
-0.03453739477215654
0.03807947579190577
0.037462762439748144
0.011966255047191706
0.040384567517583576
-0.04899764184003015
-0.04066640496926026
0.04910671089289825
-0.011073798527286271
-0.03858958695513665
0.0356825629240771
-0.020782473134678545
0.12677423652849584
0.1097447738717396
-0.033381933944673974
0.011687689021598769
0.028465652741622004
-0.0245800753942873
0.0026316686670973667
0.047869075048936116
-0.02810545709959777
-0.03706037082221028
-0.008768143853159265
0.020070410159994233
0.019713600950376036
-0.011841862294339851
-0.07371665333031525
0.0025545947489584906
-0.004085255237416116
0.007796994623910156
-0.010928310034128032
-0.020993156439663197
0.006291689548208731
0.020093082008190082
-0.04128086678903283
0.026161302965300864
0.0011672285338174195
0.014222303498261578
0.007975895202648397
-0.021199869108756503
0.009737324502721257
-0.018630322546346424
0.028243748271085972
0.0008221806740995736
-0.03470277000221202
0.008711505862533631
-0.02563366006858966
0.038905193752700615
-0.04972322600999412
-0.04308414496128539
0.0497045337330368
0.01751041831285296
0.01367441634046217
-0.01375072067578795
-0.15983196303730174
-0.04218408760569485
0.02142177155355979
-0.012357508987144614
0.023648656636197602
0.07588278676166449
-0.022759241528160355
-0.03455928152064891
-0.0748918454215833
-0.020332315888498962
-0.021555641153890696
0.028166726949923775
0.016858496938832686
0.025503688980303824
0.0072601934041736935
0.015020778520003596
0.01324718061278626
0.02379085747146786
-0.00950949074872721
0.08740798257601382
0.06818679361511569
-0.010972426212026402
0.0029092203749379935
-0.02616674108335374
0.014998731398448812
-0.004990081239151883
0.015721265404346263
0.044822361765687414
-0.003268590147864154
0.007648755854641389
0.019007498364138644
0.012995077297963727
-0.03663540402496255
-0.04152567353184132
0.04676735015728554
0.007517874442923072
-0.0189693055243653
-0.023414329698712537
-0.10637440732246992
-0.04140854258619753
0.03707802739678305
0.008489441492481063
0.015129650771507325
0.04225088323028411
0.030760983077133302
-0.058796625998395566
-0.04987847661477795
0.012811470485268496
0.07086388003558297
-0.009478080101309313
-0.0386238882689751
0.011432934172623897
0.10805144977995257
0.002465051552108241
-0.052329615191545005
0.0019555901641690097
0.024706861963256204
-0.012737553531277961
-0.0028359308188926472
0.03405054459109165
-0.014691344390201326
-0.017512402291570518
-0.037526144196431674
-0.005320043204266834
0.0280289697712598
0.03166827077408801
-0.0563044421229663
-0.007813813267196964
0.015514836699652063
-0.026599331469063396
-0.011850695177991338
0.012127292449684192
-0.03495007717945068
-0.029517178003675433
0.036866489618479624
0.044081219277618724
-0.04379806150357541
0.024273149000720088
0.053698039406254304
-0.014098691372897224
-0.014065901282554022
0.0019436749569951063
0.009511964603103015
-0.003272292946929756
0.05953987739352907
-0.05080304193404396
-0.03384440833266095
0.02730272896947448
0.021673151097250497
-0.014305176723647457
-0.0447057970317912
-0.02240338404967355
0.07456381687198682
0.0310314277238138
0.010914482824895997
0.00897774758420382
-0.12732433827399625
-0.056993288245138676
-0.002103731131535158
0.003879691462062486
0.009023917293177978
0.012087368330365835
0.00246791485971541
-0.06539028640837087
0.002975908635921222
