0
-0.010017442077465525
-0.0063233223145220604
0.0004729762888986915
0.014647692321880021
0.08614334147058454
0.01499778170449477
-0.041955788913093296
-0.00443744307398622
-0.0028991153968205945
0.014241635475813978
0.003185506323062966
-0.03167665350677652
-0.03630206353950248
-0.16566254868449184
-0.026753435594796374
0.008098250682910875
0.028827124374791097
0.0257982460168526
-0.004552761414714108
-0.011734903105134196
0.00859100362727831
0.023071014483738786
0.039802999215738655
-0.01168404379381891
0.008213704929877759
-0.006269159538127767
-0.03849717264634016
0.028275295036187753
-0.0033065917191825167
-0.022853625446707333
-0.0011895340565084916
-0.1324458840344156
-0.03644086554004111
-0.003665850945223181
0.024852265165566826
0.0458907633788859
0.032052907585246405
-0.033343223642392575
0.08867979578307233
0.06800135686832755
-0.02212465308021143
0.030637181264175826
-0.013206025519620765
0.003358330483908477
0.0027479116373986838
0.027960869922409835
-0.0008294563193388566
0.017821703316819433
0.005842909363706667
-0.035095298628287676
-0.01718782203939844
-0.007534241799875259
0.02210283305362881
-0.008950104644788699
0.014853696573213664
-0.007989266967076851
-0.010289893670841897
-0.03263391006390346
0.001263054776083677
-0.007205250315975507
0.041285885156397584
-0.000809030351472648
-0.01294823186951367
0.013649145447293445
0.0257881548733297
-0.028373485316624477
0.013229825877572812
-0.02686098286470558
-0.011550769558119766
0.002749470552586688
-0.015402426086299693
-0.0033113631932207835
-0.010711325788070835
-0.0054341609852380695
-0.03239876042327378
-0.004185401825700154
0.009948508490191816
-0.007147545706038613
-0.0008263589845026269
-0.04099963787607865
0.008557206966275066
-0.012280665230865575
0.0041453388504298135
-0.044967643722971365
0.019872706063915144
0.0541169872285263
0.00964962067117353
-0.012719174896381018
0.02136010633371239
-0.035174838535301775
0.033148896588853706
0.03204927521601767
0.0629424636960433
0.006750181230795056
0.01283067614638263
0.004728953817147364
0.1613169679991857
0.08795574247874621
-0.010839969169530322
0.014196314584996771
0.0022564850260383736
-0.006254255693435614
-0.02687617905809631
-0.011173320002025793
-0.051151767610160236
-0.021564316349769207
-0.005814901592151606
-0.019197662488456155
-0.03877495813538077
-0.02046877438883148
-0.022683234546473707
-0.03038427841490014
-0.013141531580430061
-0.06356943993567025
-0.009958316034507668
0.013764731695058227
-0.03435126039942733
-0.012132804819470449
0.00587559402997092
-0.004608202902798917
-0.015822218779309425
-0.005664687405749688
0.007238785358002456
0.024321635685892306
-0.028444226209198353
0.01347063032379531
0.01049193290017155
0.009540342847005426
-0.04845647563385941
-0.06256245428319211
-0.007923871343425256
-0.031492363278988716
0.041617470225410666
0.027153851610907786
-0.02716836056105234
0.029363695471650696
-0.004378313977140133
-0.0024552473504639064
-0.0012441645484464901
0.008468856475955798
0.06936534973606485
0.02058909733322728
-0.049120469186738826
-0.00611070908345744
-0.018608993573627764
-0.006090167101265268
0.009446680070410574
-0.014251225508141016
0.04117074073752379
0.16921496333297756
0.07584781012581546
0.010343711209659542
-0.00746676810779474
0.001102122693339644
-0.019446358711292272
-0.011197123906430427
-0.0013152724707847477
-0.04234872231460426
0.01298934650466075
-0.04846570843772404
-0.035744899444438795
0.04178216478784819
0.015912826864993724
-0.018166938295177133
0.005013804557434531
0.04357263042242513
-0.03456201678066707
-0.008593048432154879
-0.045965027611010865
0.02236518886912892
0.03342574491078221
0.006528729186822432
-0.1226911225836572
-0.051837615246388455
0.08135149334198417
0.022688769087389267
0.0416509719698843
0.027606789712673153
-0.019865019836332008
-0.014855666016554525
-0.009351847020290339
0.011463547251994275
-0.04609278110126541
0.005065742632772338
0.07412661183423971
-0.14545775002938122
0.005594617543188217
0.03705310954949406
-0.005476038239362427
-0.005278930990493559
-0.05224924292652419
-0.006387092237542959
0.023919756553175266
0.01472995402083242
-0.12009291700018376
-0.00501632534882645
0.0629138819749032
0.03194045511096001
0.004020687490617811
-0.04445547952741217
-0.022157179959976334
0.035404883617908785
0.015263985875962257
-0.021305451336488184
0.005671404612056755
-0.007805484461930472
0.04201997847067722
-0.018498943369298013
0.003336124691286499
0.004151227360993644
-0.02444221861014488
-0.01930676406338383
0.043672499332184506
0.04439524099129356
0.0329287203517881
-0.02540684359969537
-0.04151146135318183
-0.03489929959397573
-0.032531151969142184
0.15218561423770408
0.0560001972980306
0.028546679804259116
-0.026318312659695548
-0.03294998089671063
0.035806151938740066
0.017419025077446096
0.09921974823426018
-0.06960595729075007
-0.04249874740906609
0.01883185420347339
0.031044636369186192
0.018786731916736753
0.03677497921861119
-0.03495578012332882
-0.016481132629101163
-0.007617804024793523
-0.018010688881004322
-0.003260424428826905
0.001812594666396916
-0.004096348629804437
-0.020645678283636816
-0.020897423592782204
0.0007173947975672928
-0.012674426123219274
-0.00361301923901394
-0.0046670901745696405
0.028900810189896077
0.01221310968675882
0.007113563656001602
-0.04358938520456392
0.01344700373189183
-0.14531933120852805
-0.0326733715032131
0.04666960473845057
-0.013958704998673792
0.03665513069919022
-0.025097179945130506
0.05043529584281984
0.0022133738857280246
-0.01287999198125755
0.013537260724221546
0.013851225188145192
0.011344999964770277
0.017820677499543143
-0.020192805092471493
0.016187524308548924
0.007286236610386532
0.02987316757322329
0.006492101787354704
-1.4699344638511983e-05
-0.030854423814486862
0.01428939860255819
0.028651673055986024
-0.0005387702275010267
-0.03155216756212925
-0.03422604274205905
0.000412985158364756
0.006939166158399747
-0.025612735601453326
-0.0215704641705494
0.052943526185593844
0.030798385800693724
-0.028311976737254926
0.010544528235969595
-0.005735885711566958
0.013062435827425384
-0.038434171061025556
0.06599890683167989
0.05447925511125987
0.019981435712762334
-0.08696410221268129
-0.17599321980106947
0.05016033687563685
0.015262648907621317
0.0527826200945039
-0.0011500755940168112
0.011857515364189318
-0.0013487853497784856
-0.0571474886974752
-0.012776923019426943
0.04732984875692764
0.0037002447164287354
0.02362381915998741
0.004811532034299912
-0.03581768562926118
-0.054120157199280754
0.011047582836202718
0.04214516193535894
-0.01080360912407858
0.0017575591311359412
0.0562252547405597
-0.023753714371596953
0.012115747209087192
0.008628331440172452
0.04074546957843588
0.00019385092827185318
0.046713250730315854
-0.08285901644717514
-0.18040731768472615
-0.005677208085701064
-0.018873297613106587
-0.004641497224910489
0.009560122214166087
0.008208228071850109
-0.025907852698490223
-0.019565707146913695
-0.012683483290126649
0.004463445298191309
0.01851329199231952
0.010515496215903296
-0.009987200004486755
0.12016594496212372
0.03113826225707887
0.002705567665578183
0.003961133845402458
0.008455882273975845
0.07225028464057566
0.06656411634811973
0.009753984339198352
0.0666844556196277
-0.0551160964663922
-0.032752330741791756
0.06977997127039355
0.016580914627369162
-0.03440948595988689
-0.02045778407224889
-0.02438527388718843
-0.013738983744871728
0.0037902477536426215
-0.00032195138000967554
0.02899207201957687
0.052579617647175385
-0.028577235052042065
0.02433271974266103
0.028143758098852837
-0.012063175743896357
-0.016187749609396358
-0.0216627554065836
-0.03400697953986434
-0.03664145909432882
-0.03944200780846596
-0.02362024339738615
-0.03279090086181575
-0.04671514114145005
-0.00679329775618031
-0.04123338954493372
-0.06029627298848848
-0.006930304082269032
0.029602876912343413
-0.006035210182694285
0.014447649666665402
-0.011739990480949964
0.002508301190771811
0.04050414400934456
0.01845054230942199
0.003847299117495919
-0.012310265320766506
0.02395880045375716
0.03484337536446465
0.007681409301068537
0.019453164921834753
-0.0031063390670215555
0.004335931755370299
0.016547262635288718
-0.009479669174274105
-0.018259291168663844
0.024058775093911654
0.07621295287070175
0.13740785129397579
-0.035614546576485925
-0.0499126910468873
-0.009531274138575756
0.003166569567623545
0.005899809263157381
0.029871315823695538
0.005654708588539597
-0.01230444647777259
-0.005595031514666465
0.0057715149992052
0.0130321955583744
-0.018270232027795145
-0.022026865494654897
-0.009046642235203881
0.010734084962866602
-0.009971190987868292
-0.020825782672970205
-0.006395582014272683
-0.01714902741449138
0.005134143114821576
-0.016868131899658963
0.04191455335020329
-0.0978857704551271
-0.21631268376949614
0.0071939049060592945
-0.02433947687207376
-0.016727565159269934
-0.03721845998364565
0.01777111987609096
-0.025593291596409457
-0.0024253681703541364
0.008132399809394914
0.032889492216251336
0.11220519305457792
0.057992470567520334
0.03454832450914071
0.007326688417811162
-0.0020827841771177
0.08309374889565396
0.020767249221973077
-0.03439268779324988
0.07734342189419628
0.024430666580008736
-0.025279312673142464
0.017147540870347436
-0.010374733134463087
0.019113187290255778
-0.01477674434688953
-0.002307437669047726
0.00838699972351773
-0.020789161178894934
-0.037595562860673344
-0.02751973071250957
-0.044748093884714436
-0.015932723331697984
0.13004990535142827
-0.021477589075550214
-0.07902270650339677
-0.02647589113920517
-0.010929102390862509
-0.02391535892353361
-0.005196577086113124
-0.010905720656365662
0.029735911106148354
0.0025919360175037797
-0.0025244128598465986
0.02354899780489551
-0.009071734853081636
0.011188408938693278
-0.0316072421957799
-0.009690539517152699
0.0416153175834418
0.03074097857446601
-0.060684638655846265
0.033062016167115
-0.022636438996527404
-0.008698604561746214
-0.005831368960586646
0.011718290023059984
-0.02739914164112518
-0.07611652046856902
0.014422545979536931
-0.03690630552253222
0.07113552548898533
0.09450204611670884
-0.04384555086358719
0.0850177331691567
0.15842122742417783
-0.04062150442345503
0.01844993469919302
-0.055302950873802874
0.010183005537234311
0.023446615904005184
-0.03388104329707681
-0.03935913687269848
0.013629858029728067
-0.011260710356203912
-0.046942894344757
-0.02329145662842476
-0.07295681927301627
-0.02964849516051205
0.011424689305222257
-0.026088508299503224
0.01911217983200396
-0.0067058412329913265
0.1436002991052079
0.030128422229309174
-0.026973147558522887
-0.054617209439068504
0.09913949603264034
0.1247641322522583
-0.07379101193626449
-0.03385673193106512
-0.08206527455759578
-0.0036110611330328985
-0.008608536909305227
0.009996749157488074
-0.030788813620035153
-0.019337965088420925
0.024692856296990733
0.006779050524409017
0.032485641824636986
0.015083701844330166
0.008331074588320707
-0.0028737598497783133
-0.03044691231686019
0.019980288847311678
-0.020953766343255582
-0.06106014313651008
-0.06751732789010148
0.022712008289382933
-0.00869126250377745
-0.007751800581300123
-0.03385206707137731
0.029970217865773058
0.012353680035681828
0.0700479725352425
0.0005985094676911019
-0.021074217626326
0.00853530984140439
-0.003321550071079996
0.009218886706410797
-0.026750686587440675
0.01177269196328931
0.005653140653447914
0.015393837894025477
0.006827227229657858
0.01912759965678558
-0.009913784418661507
-0.026983778339011798
0.03608575061006737
-0.0031108294349999764
-0.034322965614512396
-0.04510540478914351
-0.02977165464643393
0.013095702993019648
0.04315125673469339
-0.018310832635886044
-0.011184499404491604
-0.00888060975161337
0.0006351979981163179
0.13020962518465543
0.10888829097517239
-0.029615176429464388
0.02659989629655239
-0.017194866178288037
0.026062201316197416
-0.04977011276271958
0.018822126030278555
0.01711027036682113
0.002363310231195755
-0.00893106182763898
-0.004678943325999196
-0.03372357097329407
-0.008273573046287128
-9.26729861922115e-05
0.01728748885527601
-0.021517895424022482
-0.0035610272920863755
-0.06139097339448007
0.06847890596042643
-0.020307014291641844
0.07810894595115146
0.01655364752740247
0.013473400224392243
-0.11014878955250286
-0.21482259788480604
0.03944290968486293
0.02044767071805137
0.02431960889867029
-0.017562045192279874
-0.012479881810816015
-0.027471186925811245
-0.021471313494637597
0.00723590837176594
-0.005950945569436483
-0.00876531214945329
-0.026070465841090816
-0.02810628717590663
-0.004267299276029283
0.11467578343742316
0.029015626844717486
-0.0073098203672102725
-0.028995976072714837
0.024823169799407616
-0.008352654679269066
-0.057419111194882834
-0.006100029172752777
-0.005380193842530134
0.01525740080877733
-0.008260687607627526
0.06597348773837614
-0.039349601367585016
-0.00048324553065532143
-0.020684852833980118
-0.014842298456740436
-0.0059867015249904995
-0.011122285615425831
-0.018719930564924433
-0.015991409249552578
0.07497270799430618
-0.004313057652109123
-0.022824514812930064
-0.0006960774398457347
0.022198000966642425
0.15464300677569354
0.012318932220830619
-0.004809883625676449
0.11486106497552176
-0.043639652700584196
-0.002722705094595113
0.0699795130218479
-0.013967610783809021
-0.041494548391061606
-0.01383266028439733
-0.0007363013635452078
0.025901962259406296
-0.021513325874954636
0.002732943972152352
0.01239993854833298
0.003464198828236217
-0.010188405014955186
0.07385306444013263
-0.0009085871334671259
-0.019520687026421898
0.01741447513174051
0.07109604273994413
-0.00041680982975547177
-0.024342409955331386
-0.035079319726669216
-0.05075319712190638
-0.029098439042414423
-0.006759575132983327
-0.028022314392330848
-0.026742782580058796
-0.0604028158508983
-0.010189840787911707
-0.006179516295754047
-0.036059889293448735
-0.028104771886642975
-0.0034278449720944147
-0.018210383301802347
-0.029914687077344307
-0.05345273686352124
0.03390946981561459
0.0977362988584676
0.003545750883630683
-0.01933690266169776
0.052397032140559824
-0.02249661810514044
0.040899402344318776
0.08630032882612769
-0.06635529065493945
-0.011431354355877374
0.0013584007856424333
-0.013931105467572882
-0.01602441745413272
-0.007670681212676807
-0.008764235583398422
-0.00010428395965906978
0.07376082274491455
0.02106098184386393
0.011369226595585473
-0.0055612949821420895
0.01835946424767168
0.010796340541294611
0.01494166965104682
-0.006641585566595492
-0.01309651152840231
0.03984797050103714
0.041387841815460846
-0.01644031243355024
0.023076669909133703
-0.10590756686174513
-0.13219398242135635
0.015500987241564132
0.008630360945054632
-0.03146928596447483
-0.060336803493248894
0.07977753139386724
0.004234873652492752
-0.001422256382418395
-0.036372695994370575
0.007856911409911451
0.03469047429776208
0.028378099693887788
0.02671694306969851
0.018831726011342743
0.014112399613683574
0.11246781228251806
0.030039827166993927
-0.0015028037776426354
-0.04303410128523127
0.03319882762781248
-0.05307961742454715
0.022527037328219045
-0.007924902797572382
0.030611516660744742
-0.05122168389199462
-0.020554734841954136
-0.08444406096797057
-0.14034636661888358
0.0464113143525929
0.010177091931207366
-0.06172422282494125
-0.028621620384754395
0.029842569747331613
-0.03276555462657209
-0.016676167710856536
0.009456162253237251
0.00311095933324649
0.0038152814182409087
0.021942574827855665
0.025535125108224747
0.0897350718857909
-0.04057983061658373
0.019840992871639977
0.1758897113235723
-0.029157299683332985
-0.019422736245198677
-0.09851099952841863
-0.05449767320839381
-0.01887533989555733
0.0012202663510245723
0.024140699220151756
0.009842695150647032
0.013873338070778575
0.006225085104728466
0.025027949546824264
0.007545401994497498
-0.006841252008042604
-0.004401019529421271
0.021304396918201535
0.021031307012590532
-0.024351608702066957
-0.04779198223070208
0.025537878460177632
0.022849067170795965
-0.007258236380363525
-0.010265841708558938
-0.01412293283175088
-0.028611965548566036
0.02018950298100661
0.11121948451123898
-0.007123668158592219
-0.05288593788290521
0.038121103190358205
0.017486525197664762
-0.034748692481500004
0.012137047169373182
-0.04321715401434229
-0.00586072208763962
-0.011438926655055906
0.0023540053643908345
0.06957253403158638
0.0032667915263053823
-0.017717493927920522
-0.008345138439755852
-0.012479285244036476
-0.013731548315672418
-0.08779138233523243
0.0005004358516128357
-0.010404507216238371
-0.023820500324392705
-0.028429327087021714
-0.005862804080061757
0.07164550598149445
0.06760402076448671
-0.024783233386029495
0.006183201194106567
-0.02255704403443615
-0.00010036264265443572
-0.004945969416406292
0.00687770494862725
-0.022047779996389634
0.03955690061685448
-0.0001769405155159
-0.004031750352934428
0.07732571286944068
0.013399344909843725
-0.06326835419853914
0.1579687092931272
0.10049739247882797
-0.01660308408600751
-0.0524551299934663
-0.05241331598021562
-0.017600371951617604
-0.04430856134149866
-0.03856819895564938
0.03901752790087565
0.1620610726536972
-0.06131296018506405
-0.017884351464840905
-0.015298456209129466
0.00496380048620837
0.010036615012157853
0.001407346933854357
-0.0095802033866621
0.02663001647469182
-0.006175241731441529
-0.18471252833368426
-0.03394605570525188
0.03036553985360305
0.043585504242160206
0.010934539807363261
0.009982190225714279
-0.023249326951478615
-0.032529642544319615
0.002928030126042091
0.01800169923166417
-0.030005351754647247
0.004635372654408949
-0.0006859968460874691
-0.006856081594363673
0.005498107782239345
-0.023578993621776376
-0.007409936030924672
-0.0077950059758906615
-0.007405244542121745
0.023865829487960667
0.03536847275308101
0.016906121641335817
0.003736059133512892
0.024942297084163057
-0.03583228720558005
0.03600780027957835
-0.07968936575172644
-0.15489727994619465
0.014162959897987656
0.02965476168043244
-0.0006459219465484258
-0.005174254468898286
0.03270124377821456
0.01803709205116749
-0.012484363785225985
0.018189065032172918
0.013059399259863278
0.007559316776080492
-0.002429472720357604
0.0191314681521016
0.1328010173491677
0.020197607664979803
0.005135548230005391
-0.02041772549501311
0.012323851598559183
0.007758092735314969
-0.030283030933840195
-0.024111616549691652
-0.027624669080501582
-0.01167034425908134
0.026864233580420373
0.001847456912681737
-0.02266337843620477
0.002451920039862235
-0.017814762283237
-0.03288955393238346
-0.026618393273065262
-0.017860059041886447
0.017468556509279146
-0.002687345358274498
0.007335479100510012
0.02473582545531702
-0.031621053292494865
0.007405822196603105
0.03350648817495318
0.02007989714241024
0.02567173582187391
0.05115587338846254
0.0947892135660362
0.017269506907392224
-0.0038574422926366337
0.10761259928608306
-0.06750339305121068
-0.3032594362883363
0.03700302277610526
0.0022309878261379404
0.02651352235188249
-0.007134483701906298
0.04076984461642193
-0.018094357140587398
0.05384879292099244
0.030751038757359624
-0.031345358362222166
-0.013205602718420384
-0.04785424827792618
0.019024650925315374
0.026005463363555196
0.014635858926885096
0.025869358870593932
-0.009618679757157736
-0.03900056716109998
0.009376607370854073
0.002463091039427846
0.0032786405766821597
0.011848784414457135
0.0254379264537109
-0.00732942608665936
0.0017554422141020174
0.007821747105788916
0.01467992016651361
-0.0030626406174063597
0.009648210488285992
0.013460177082675322
-0.036458497798336334
-0.016025950522429028
0.015817528542511672
0.00035885682245976344
0.004222636302168461
0.008247124038431669
0.06282586968238617
0.07355693125835211
0.007671415070885875
-0.031108361632781144
0.006865191681970681
0.029003277527918207
0.009470078696875828
-0.07034110471225105
0.0254369143946214
-0.19127894279276866
-0.3243593541196509
0.05292894646099325
-0.004412008243230746
0.0158499600688934
-0.010976928730401842
-0.004869935167506296
0.005891713089757893
0.0028948468834924866
0.024823475888827037
0.03543719287481703
0.009592050406258894
-0.0061454301296939235
0.07935546171450415
-0.031849415666590754
-0.025578244539993487
0.024025760574102852
-0.029834081779303932
-0.013437224558870855
0.004149337093416633
0.021055401611578053
0.05503573592770005
0.01145912642005408
0.027802758211703187
-0.00020819288247856586
0.07361134417224549
0.15102996881699615
-0.03492857616756814
0.01611656652136362
-0.06993261681339702
-0.03564967534246135
0.04090554595318686
0.07858130642879653
-0.0230185939298507
-0.013377463746468744
-0.03843358493396945
-0.01884614067582389
-0.03806521091036371
-0.05329242348377919
-0.04978422842912357
-0.039699517514453754
0.03444938113413555
0.03232511251907232
-0.003962731322272515
0.035148072732764726
-0.0016196005961967813
0.020857848135382124
0.020997661716118984
0.0057628378659100934
0.01637887206659404
0.0007449828380954919
-0.030690811144091473
0.012280915976658337
-0.011197798690600988
0.026545052387178344
0.011784631438494342
0.06494101869226601
0.0519096075475534
-0.057223261027677545
0.008564477383234266
0.011767050350364487
0.0266458927312707
0.026602559305597413
-0.02420309454600716
-0.01662750909542726
-0.006122262311294447
-0.0049531782910686465
0.04308478250827565
-0.013067969049975666
0.010627581012501655
-0.0012995017080645556
0.036809783960548875
0.07119234958139274
-0.007819638675347042
-0.060048324978776865
-0.049827390086047633
0.03259608086695776
0.02912815421584145
0.0037181192039790313
0.020833643894485058
-0.19028243973146736
-0.06971767094910784
0.03619837680002834
0.003913282889854611
0.03484335759209708
-0.012504737785475686
0.0017602622691461267
0.025053607605016875
-0.0008452172753224366
0.06629333422663171
-0.09634926505083587
-0.27708046926135543
0.02418786907176526
-0.03835724439071092
0.013013121549869082
-0.009827793853458342
0.01719568365518699
0.03457733906577648
0.03180877441440618
-0.01978582173649459
0.0025856392582563246
-0.032495840459605005
0.06261642494974345
0.025390413462975697
0.007318314512550311
0.037961417823786765
0.005412886520286916
-0.00924904248354963
-0.017771356057878645
0.011320761756985957
0.002695074277739571
-0.0022606921443233535
0.012347210332807437
0.015950139290066157
0.021189325608657397
-0.007558963442985901
-0.009280661577707511
-0.05695124321779299
0.021369463874858774
-0.002746029037819219
0.03524428034542039
0.07661312692935111
-0.004333797690829144
0.02798703961059877
0.008784093796967629
-0.02429164414895411
0.025150494205859752
0.008545071670538692
-0.04270916188447919
0.05813756388723603
0.05253401665499112
-0.01998896344474869
-0.03670617418067641
-0.004817631210128796
0.0036079796087907846
-0.03128579295557219
-0.013008335558361598
-0.051998794328739883
0.008554142024674949
0.010982594933736694
0.024059802196735466
-0.010990832549837617
0.07316253287574599
0.015913428847534168
-0.022984537507756506
0.007658832237759395
-0.018348833253467183
0.03160063796009801
-0.013241861792581666
-0.034352587994318444
0.03647008933765862
0.004469226021429963
-0.04557742932999529
-0.035465579483736874
-0.03364834449791608
-0.01165871433790961
-0.001383130483594665
-0.036821497202995615
-0.031826342965818724
0.017701004709259942
-0.026422519045129954
-0.035667860595437306
-0.03193410429878684
-0.0018637257613637246
0.10122594372555994
-0.005318490162647609
0.037156080654646526
0.18306168690457633
0.04369629677297426
-0.007133062984257803
-0.016212755396790332
0.00941015493397254
-0.016315685409889685
0.020941075848011248
-0.017738272426465973
-0.043470193550347445
-0.09268775850669549
0.0007679924730375087
-0.00398005417235512
0.021754880418159813
0.04160555139157019
-0.026489900800201072
-0.01919542865829502
-0.008495073870033587
0.0007024438592408396
0.0038594347668522776
-0.007758425790911035
0.004517339305636063
0.0030713078318013592
0.06425084455416386
0.0523149120749827
-0.0679502195546827
0.036054511565465006
-0.1341941369050773
-0.14888844498294107
0.01379364165121063
0.014951726819278118
0.03595749278804022
0.0523258430979151
0.11085953836536115
-0.015056018657316986
0.023405920318608258
-0.0587077655661352
0.013140668256609539
0.08541516807463492
-0.005471564557945028
-0.027322867456682248
-0.025891556934810604
0.025672130716363057
0.002424503915545204
0.009537046726964447
0.036536937031315046
-0.026756736806812866
-0.02268528445611836
0.0009502036281963712
0.030530233251116052
0.007345350114615186
-0.010575756066251088
-0.0006270836757959732
0.07865405167563262
-0.09592829216462231
-0.08478361517517002
0.0001208906968256463
-0.0015143324455037831
0.049093050491728164
0.014817288256705748
-0.0028579840827069798
0.025063932751350926
-0.10495665443505794
-0.07714224194118331
0.016232250839636645
-0.011990949101616754
0.00413132509951878
0.0019762653239656625
0.057604590078025486
0.030932279579799635
0.009096817838533893
0.015571460756021505
0.006083913447100886
-0.010931208299235818
-0.015628567028277574
0.011056994813625964
0.0186498716143185
-0.0015670073647909184
-0.02443504018603434
0.017564190463664482
0.02224888835575675
-0.003972536768476193
0.0048278863238333785
-0.019006888968952064
-0.021249014335395576
0.030262129530256685
0.04157664445943123
-0.012525574254165242
-0.018486103352085864
0.02599623121053818
0.005846042044627044
-0.009055876219269609
-0.017959357674488245
-0.06796569391734605
0.00838954572164689
0.01119163558426593
0.001192961089827858
0.010323512109547356
0.04524686763415766
0.013878749463202264
-0.026753619136506347
0.06502272464331886
-0.01111887385073668
-0.027334592288895048
-0.04274300485585158
0.027210603240281385
-0.016005538465023093
0.008199647194298079
0.01838627215126135
-0.032030061036646976
-0.06286711463206475
0.037974622378401594
0.03042385965242828
0.03533381198096905
0.008787389533759814
-0.1630858529150966
-0.017023240031488484
-0.028013975346435068
-0.011411956259905544
0.007922127240659176
0.026499430596858265
0.0348794760378464
-0.03306385042659264
-0.030913612657760877
0.07229334981342679
0.06399773778434185
0.042919161194390765
-0.03848405753084052
-0.16341640263516888
-0.009407694515279846
0.008179089672184331
0.032477457883918245
0.016506366893192903
-0.04324698092044034
-0.013265329523801142
0.009582165511244153
0.09531621833498014
0.089037563281214
-0.00011738462786913
0.018086682401651538
0.08720026973256544
-0.0196885310478241
-0.010301028476103166
-0.0032542902365283997
-0.011220632070706333
-0.025525796638776622
0.016889480147006038
0.09678962372337221
0.026548754340085974
-0.01279949587928228
0.03512990918583843
-0.018687308341642873
0.03825779194913707
-0.029119707138845933
0.009303825951852362
-0.1383745475175414
-0.11690285772731056
0.023552178321357142
-0.0015763293966192455
-0.0056661502097321995
-0.03539034686513895
-0.005570019511039095
-0.013762932375182394
0.039222674833253625
0.005827721865971603
0.024034334935918507
-0.0007151427454850842
-0.005247597342717067
0.0019132625440995954
-0.015337205833809228
-0.043037189675527776
0.013418418569422259
-0.013862137026528248
0.0063030849013387315
0.0101005665231686
-0.014703523740120045
-0.02902150630294687
0.001436796487501923
0.016722553893847532
0.04402193228890285
-0.0070722620146197335
0.13087706962329773
0.0253860374055455
-0.04139374812937601
-0.025455381539471775
-0.017234176782037928
0.03498590631295661
0.014390113190670099
0.026521679130408086
0.014770972846410602
-0.020607224808693942
-0.014557994585315186
-0.00352962634471426
-0.0009699322094739846
0.012454601552244407
0.0015379133977881712
-0.06505398150112185
-0.0646619370519999
-0.03538006269023347
-0.023015279393483266
-0.009129170432968757
0.01939350203643418
-0.003024883092417066
0.017551268500418733
-0.03613539130034557
-0.017056526194378707
-0.009889311569777924
0.0022058007276269703
0.0012806830224248757
0.03413723740642235
0.018746190956945376
-0.013786815656150737
-0.006882389612938615
0.015215307800953372
-0.027806703657853527
0.034331136115365674
0.012371102965482205
0.0736094701674661
0.012358692052014791
0.004782655088956581
0.03480178450560152
0.031597883348060435
0.0011914083536011782
0.0024065148307299577
0.019327263009377194
-0.0070833632000781264
0.011554509084486886
0.06214947105721551
-0.03065378959293926
0.008664653742742447
-0.08059010631494266
-0.11273597490161451
0.07957586494209092
-0.01589634205878122
0.03789585302186322
-0.007315132254723396
-0.00952827308283461
-0.019615825585468104
-0.012876887306799147
0.03308000363257058
-0.054776729877391454
-0.15346936185917454
0.012525582628814858
-0.018179503091296186
-0.01285542560166114
0.018934167211688068
0.01500900760982803
-0.0333342953302421
0.0207693052137065
0.09987907864097771
0.06406738156713422
-0.008193910060754137
-0.03993388837111935
-0.030103364024968014
0.041596682992370876
-0.009481599396884605
-0.041381767273906134
-0.03213393784419988
-0.01082022791651299
0.05587696313020572
0.12684440714039882
0.04264874070725575
0.03140026576220967
0.0532930464462862
0.08232522967698312
-0.005904597419678225
0.02305615701774318
0.12357418121760161
-0.0020204366124805598
-0.1902749254504222
-0.04567573810051921
0.0036217304410226967
-0.03096633616869438
0.06840292217271922
0.0046161474128187385
-0.035883597871165115
-0.003445865024691206
0.029645644190125737
-0.08220140304789088
-0.21300396122280021
-0.0425467626573163
-0.020848957677453605
-0.0014636020359205786
-0.08931351088319518
0.006086133384462216
0.04338101204220489
0.004081731955344664
0.03329066802000612
0.036440659793041355
-0.001990565242802337
-0.007317636995828977
-0.018424191802693692
0.0514719378364022
0.018484304141054356
0.03745129091677219
-0.010763071692228999
-0.006654600858504482
0.030509567663498126
0.019156700575137922
0.006561155250536049
-0.03858031753380322
-0.05777818225448906
0.0010673322338142477
-0.039659865231873107
0.08477312083161702
0.06340376981195979
0.012934916087579582
0.021521499577980902
-0.015197179120288047
-0.02719349244745021
-0.002203505487271399
-0.016994118692382456
-0.04363485442748096
0.021652383609434837
0.003504866581393666
-0.0036058963824567606
-0.012538082002685485
4.3403507778526614e-05
0.04030987574097741
0.02092936517167822
0.0031233288230175893
0.009518539939454458
0.01997920613461099
-0.03344455246314272
0.021361151094597436
-0.01358431662559816
0.043899235933306725
-0.0056605574034869904
-0.04121692140699039
0.010627320111709066
0.009220753807135747
0.010580885944215022
-0.020777724131372573
0.013465852889227569
-0.0074941677031707
-0.045132970408460704
0.04566409458386486
-0.044242382325141466
-0.0683538001784357
0.015546595734906491
-0.006080313812024624
0.015942572073005715
0.07258396278483024
0.019094527581611034
-0.020204688634731
-0.0022365221050694964
-0.024545200495988524
-0.0050616947558434966
0.0029446722608789783
-0.02173918209501403
-0.0455241494942651
0.00618937787985522
0.02099620805442783
-0.027918353039979842
-0.021119802196277005
-0.019273975594279267
0.0316855442333214
0.01782017478581027
-0.0056486095057788135
0.006151645068713718
0.0008145700399871302
0.00483357741844219
-0.034118166707093237
-0.02202833333689876
0.06216134871438999
0.04911844092220133
0.05316276937553413
0.019336153555138482
0.015047470912357398
0.02831846861942579
0.051734860758958785
-0.018499133259181743
-0.009185968958686971
-0.03152485361479318
-0.011626475697614345
0.00046271320997405053
-0.030582257245146023
-0.005215098787929743
-0.024677948053912227
-0.01715921439998536
-0.0057750453851316535
0.030054237162623534
0.014440067759334943
-0.0037478385435064784
-0.043017428854491266
-0.030909911262581826
0.003507109231744559
0.009279311015813528
0.0052026308477643255
0.044303119445795576
0.0043010897978099615
0.018358462331732894
0.00079524938618245
-0.011337261139519324
-0.010164547807039572
0.007738613394370082
-0.0011606709081736436
-0.004795884233145141
-0.013150302927545737
0.018320999883434264
-0.18055312893141226
-0.016292639814454613
0.011390237341771326
0.010688812133645479
0.06809506438904211
-0.012801644536527821
0.09206111429729111
