0
0.006082278744210818
-0.00726934844366345
-0.004878797041746088
0.12120493511399712
0.04245549709459571
0.015117279399756307
0.0051446150009799825
-0.017487642399285252
-0.04620926044725154
-0.03071089204076428
-0.008276151226521972
-0.02774553752589556
0.017848422672517742
-0.031032684194385568
0.04067145482579679
0.0024832098108539965
0.06106076388948306
0.009049233471087697
-0.07265713671040425
-0.039357340430592254
0.051321016637625276
0.02928164089568352
-0.03842123365383484
-0.0095231714177093
0.016004431605691587
-0.020789982863225722
-0.02368431763300323
0.0003143919243520787
0.054328545749128265
-0.03183559367678497
0.043694022506631784
0.03362595742722397
0.012923250840046656
0.003359174016385228
-0.027785778609882107
-0.03183802285388425
-0.05653880515752485
-0.015267831742641003
-0.020259227164433707
0.10100520731019666
0.05733627997223639
-0.03733690852906223
0.01933801669068731
-0.03174506921548333
-0.01663814008915444
-0.010702949948195085
0.02062544499174256
0.0006684977797087409
-0.015795691445639932
-0.02085765061996955
0.054630394840413196
0.03451257364345956
-0.053157256723536335
0.0011139615757809343
0.0902026449776755
-0.01830495382844244
-0.06717094430922228
-0.017159966699017135
0.0011618498378988657
0.013421807079505263
0.004708224407404325
-0.034168466483176375
-0.06633464403281492
0.026126000027008784
0.03636786188356744
0.019540851059544694
0.012745223144803513
0.007555362018247316
-0.0026234860837647325
0.05066606282079842
0.0059322852625726015
-0.03693814082375339
0.02195390937149929
-0.0012680143773815685
-0.015456209044742611
0.012289884113836263
0.0027762096086531326
-0.010333804216201687
0.00720635505611209
-0.08807485659290615
-0.09595642908297546
0.030983464108704378
-0.01836613784675157
0.003986258919241447
0.09274633791101018
0.0406764570055937
-0.014957566634374113
-0.01776457644197441
-0.025021901504585595
-0.009551478917047622
-0.03245993022683826
-0.02034080312136893
0.0044177608233200985
0.015209426073866994
-0.03954263450603231
-0.009338597799262376
0.0369241860933043
0.06130678846402815
-0.02436732439167691
0.031109529592494734
-0.012585285746096374
0.0005856728505515144
-0.018108865870392076
0.0287493409569109
0.026711725251561548
-0.03261481768307171
0.013818164166313226
0.0372796590470905
-0.040789487921189985
-0.003507606086998519
0.004733783770991129
-0.1033532914106223
-0.11688656328514613
0.0759323390596446
-0.012872731506577082
0.009057479150859034
0.21973016260515807
0.0375226228959235
0.023152458315217554
-0.02449896697082812
-0.07006020787974279
-0.02177370207097948
0.0034643331949926995
-0.0054283006141666555
-0.004935403085776681
0.012746090421759197
-0.0140702738789469
-0.0026043092087182688
-0.01815425592143221
0.016068971488696612
-0.006625357233832771
-0.030699671431550127
0.014504763365435372
-0.04630780337820091
-2.6535066284903292e-05
-0.012750117075354445
-0.015969831624461566
-0.01451336888412482
-0.002282592343405467
-0.0422251121586508
0.007746821830105488
-0.001476860947025616
-0.022814560020000676
0.05871652073239347
-0.03704779810567511
-0.024184319268596214
0.03647355454071319
0.2190765687881721
0.04881209985868903
-0.014384216978441607
0.045305727537656354
0.058540253031756154
-0.015430856403510041
0.00507318594053239
-0.03747039662356111
0.025618546141510486
-0.0033810723778294038
-0.020120209945597486
0.007056797044740604
-0.01754686626778794
-0.017472702362640594
0.02552316774178827
0.04960906510835761
-0.10555246190129582
-0.20664017790138448
0.05706095646426448
0.01631451464399448
-0.003037328053113591
-0.003716989923513857
0.06497337604506334
0.03863591528089491
0.0038233336767365092
-0.04251017832427547
-0.07696140168660642
-0.007510850191910652
0.057905720040921184
-0.001479023462633739
-0.007106356757071862
-0.08722316412164928
-0.11661279258403759
0.11531604071474862
-0.005542062888578995
0.05742454568044313
0.0701971480601657
-0.0009724686827371438
-0.004681242896657593
-0.05341239112466417
-0.014347465800126897
0.0031171471192223644
-0.0045218429797321685
-0.0033388926787914
0.021192268942735695
0.012603574202954564
0.04940586491708611
0.1019220495210217
0.02681549586994941
-0.02408892221569146
-0.048046834382070795
-0.06532608124959198
-0.005981846425038088
-0.02741477663422037
-0.008976215155590965
-0.016015270780198244
0.014611940175918766
-0.029622455906728386
0.009766638683982804
-0.02118085039006276
0.005904721522848752
-0.0067963555461615045
-0.018920054497460693
0.00802716413973215
0.001470644052926539
0.02921717129748671
0.049236813733300536
-0.07835769033108599
-0.0354987039819651
0.0813277393676466
-0.0754610437382795
-0.007486457835396792
-0.051826254288885536
0.05836271036275678
0.06346654310554213
-0.04099170486813387
-0.024278690054391122
-0.019207017739633868
-0.012749436322298848
-0.02157050033276601
-0.014261352475920997
0.014250275884208735
0.024619806396505208
-0.02443268358770087
-0.034963477274762206
0.045928389219915766
0.03315448927588898
0.013197876962373822
0.09897021805383321
-0.028209621440707492
0.007751343015649561
-0.009983038077361788
0.010571005021236372
-0.0037658551032664295
0.06824489713539669
0.010003797142797088
-0.02717880650259517
-0.013608480485624389
0.00833256298715727
0.02533760004217705
-0.006704880053984777
-0.0016134741957131023
0.003964474338956867
0.014221411041452175
0.014147413943931528
0.012489241093546608
-0.0030407257734922566
-0.02259238068820196
-0.019040516989276165
0.02954658332182479
0.007758828481112577
-0.03087020192721548
0.00047415298054011
0.01266387100903392
0.05932909563380701
0.07310510970957428
-0.01749027102539959
0.01581836055365042
0.009788805118281103
-0.048282824541313656
-0.03922918710867101
-0.024300668403195693
-0.017184732666251087
-0.020679299134000198
-0.01646649683712962
-0.02482926558004675
-0.04787001808574468
0.0018937320571628718
0.01999121516631776
0.01172361808929741
-0.029476612854813823
0.022118272176748503
-0.1652215673596222
-0.0053970019680422325
0.0015134959468955358
0.047530315531755046
0.10199544351007261
-0.04375510281528555
0.034987566734310256
0.0028084589382872975
0.029941453355362517
0.012216441580689725
0.018796904411894164
-0.03406284509266761
0.01458767681860288
-0.01130689654674062
0.08884785981246583
0.006560082026053374
-0.0465874039819244
-0.009145401595826663
0.06749013651816307
-0.0009355066437823247
0.005170625043752269
-0.030397991157295363
-0.01860244513429681
-0.021252964379992623
-0.06241241661918392
0.006859158923297456
0.0016400017118735296
-0.007409762273882926
-0.006542229864910953
0.006980564260830752
0.011314462272960917
-0.038110484576565726
-0.015578418043437313
0.007743797407633058
0.03311757698481624
-0.02158044743771785
-0.021976960350868453
-0.02418045550506048
-0.0014051908335570838
0.03055004860030157
-0.027742424748411414
0.004372657753990848
0.0016904828875618672
-0.05370444744086447
0.003065868256730844
0.004148245396823711
-0.03571332525505436
-0.014861989599669868
0.012551103310824362
0.010326477634716662
0.0013232980259066849
-0.04191640187959894
-0.004170136197670499
-0.00564059489955126
-0.044611539198846875
0.047310609917131936
0.044570689416198905
-0.03696674602979893
-0.021443968677537322
-0.02578923366691779
0.017920118016787268
-0.0010934956357304699
0.07076348068983669
0.0060925922650261815
0.3602934929166474
0.11465951647414332
-0.01593809676326136
0.08449602677577037
-0.03427007370402428
-0.07444540019128534
-0.07200293736438788
0.023253406796404162
0.010511230010745436
-0.05354502404165044
-0.017909958171498853
-0.026288883971397503
-0.016958901114405955
-0.020859727366038767
0.001462209212088593
-0.012714554643271283
-0.007312942407369429
-0.019806894808753573
0.036813465051931456
0.024147419952273097
0.0011236020845967777
-0.016479056389981633
-0.004133817330032319
-0.01108444800000715
-0.013263212553935111
-0.02058426213915152
-0.0016384292518130676
-0.020328371323335242
0.007729450614192197
0.05282228754861859
-0.027302473918284578
-0.0019268510592256043
0.014914996764454859
-0.06412410164019892
-0.004101900148850374
0.04052612558768552
0.049047649400322295
-0.131646943090055
-0.18722839415267134
0.053926582468687555
-0.01392822126983451
0.0003254872174034461
-0.0135655333917169
0.06207232919430936
0.0017863529789371741
-0.004949550547136502
0.010203768043562106
0.024382061793093553
0.0025513033195191975
-0.0034175568679825218
0.00871261032718284
0.013527446082507982
0.0007169975465752549
-0.0013994395854040698
0.0007662795246553884
0.00407861694037824
0.012141899792238458
0.02124219028556117
-0.03234695951023656
-0.004301095388178559
0.0114909677245604
0.012521645119855797
0.03155287334530955
-0.0302012127086952
-0.023594360556305743
0.0016022319750381218
-0.028469566710108026
-0.0025145812142410113
0.03714138732053466
0.037246744127713144
-0.0023847732677149407
-0.05042860193607157
-0.020994038322554583
0.005332156009844799
0.006889079351091007
-0.042015878370716776
0.10210398895152922
0.14525371039984358
0.0243193660417521
-0.034774391349549044
-0.008313598103959405
0.05540422627449355
-0.029904423179189246
-0.0020944373471147764
-0.03386907827189176
0.04993268593623621
1.6116294255450087e-05
-0.012690505592730052
-0.027233597456766356
0.0007753888307950839
-0.016687692279702147
0.035440197276417146
-0.060331974810051536
-0.13878554179685335
0.0151401167685067
0.0021996077662415478
-0.043790902773472695
0.026457215182261
-0.02366702284881217
-0.038143474370146306
0.005941015273355945
-0.004542063338693504
0.009656910284483958
-0.016827734622677892
-0.0212850286844154
0.05431164801178252
0.15919163657144575
-0.015630245733725418
-0.0011182789127823446
0.028770987274874545
-0.008768302394359587
0.02464185478999322
0.04638931984031694
0.003597890830478019
0.006724852158359019
-0.028654386019615445
-0.02661799239081684
-0.028619685789954327
-0.015288103432235614
0.016532028258818523
-0.009250060421764553
-0.029236446704303296
0.00987109021067158
0.0407596716057647
-0.020805765404659123
-0.026487909029555706
-0.017110201498031663
-0.02029760045476353
-0.0781393831137842
-0.030088936789772796
0.006234772442874656
-0.013988657309268147
-0.017221344423029594
-0.00974001000831196
-0.004402265170523255
-0.05958515690760389
0.0631656781497625
0.027653292780382997
0.0720258946402647
0.007647595011305301
-0.09689659432670168
0.02427954039927865
-0.0063346979433320655
-0.024585006226956255
0.11223086707284993
0.030258667168495096
-0.020190199091629606
0.023180501717412476
-0.016111639943364713
-0.0527901826688692
-0.045031542187026666
-0.0499552288020224
-0.03312263763226749
-0.0018287899982198526
-0.045245467825989955
-0.00014131392073535456
0.03614036997993587
0.028130078371377536
0.062142530318737926
0.15168971830275263
0.04621969719334246
-0.027907601825155434
-0.00880055079484897
-1.9371144715745285e-05
0.009005785365074698
-0.00423059349178859
-0.021598837800114318
0.1033375502915571
0.03765477961749421
0.09505203244938348
3.295747387560229e-05
-0.012503947544043915
-0.039382195702554135
-0.026788114889283097
-0.001547346591071739
-0.04471408244583008
-0.01536869487438527
-0.015961829623466463
-0.008508799066740725
0.01796670141967963
0.07509895713333829
-0.02875710422079187
0.0688421621600585
0.03651279153122261
-0.018480436170815257
-0.011905264734012856
0.00016760498485265246
0.005240700666105277
0.005609670468506237
-0.036640983723969435
-0.008312264904520025
0.0030746382990398603
-0.023937706004010746
-0.03963253878231641
-0.21099458670668786
-0.04335397104726362
0.0012479525421512916
-0.01026401383101022
0.03321877539257089
0.013742253192367541
0.054073894403952674
-0.039786311816240934
-0.2258323919161835
-0.02023449392333919
0.06715012538810125
0.08327936334481036
0.09426930117443437
0.08830544596978089
0.015982421894291297
-0.0009064601177557347
-0.02087146621554731
0.018243800142102855
-0.009242588127600815
-0.0004459438537634872
0.0009723408994422615
0.0020653539913938175
-0.058655112265661356
-0.0382919235955628
-0.017764113084083166
0.03265192070333858
-0.0036541133960929714
-0.027011754723944768
-0.001973043888575442
0.011340404929009642
0.048165995053902684
0.0381817763747688
-0.0034039033230286344
-0.0073745756993227815
-0.025558497561200762
0.002405572838208395
0.03722650737357121
-0.03162842144678751
0.019317390547594248
-0.018435164523311086
0.02907214339118805
0.010066051618861501
0.06321604379912359
-0.028066601766587224
-0.2140355782233001
-0.00791395690141418
-0.005269057185477725
0.025866048465277115
-0.013441063248474206
-0.023061920504870534
0.020102565192394117
0.0001922999460677838
0.0380440478504217
0.025955506698442588
-0.03453739477215654
0.03807947579190577
0.037462762439748144
0.011966255047191706
0.040384567517583576
-0.04899764184003015
-0.04066640496926026
0.04910671089289825
-0.011073798527286271
-0.03858958695513665
0.0356825629240771
-0.020782473134678545
0.12677423652849584
0.1097447738717396
-0.033381933944673974
0.011687689021598769
0.028465652741622004
-0.0245800753942873
0.0026316686670973667
0.047869075048936116
-0.02810545709959777
-0.03706037082221028
-0.008768143853159265
0.020070410159994233
0.019713600950376036
-0.011841862294339851
-0.07371665333031525
0.0025545947489584906
-0.004085255237416116
0.007796994623910156
-0.010928310034128032
-0.020993156439663197
0.006291689548208731
0.020093082008190082
-0.04128086678903283
0.026161302965300864
0.0011672285338174195
0.014222303498261578
0.007975895202648397
-0.021199869108756503
0.009737324502721257
-0.018630322546346424
0.028243748271085972
0.0008221806740995736
-0.03470277000221202
0.008711505862533631
-0.02563366006858966
0.038905193752700615
-0.04972322600999412
-0.04308414496128539
0.0497045337330368
0.01751041831285296
0.01367441634046217
-0.01375072067578795
-0.15983196303730174
-0.04218408760569485
0.02142177155355979
-0.012357508987144614
0.023648656636197602
0.07588278676166449
-0.022759241528160355
-0.03455928152064891
-0.0748918454215833
-0.020332315888498962
-0.021555641153890696
0.028166726949923775
0.016858496938832686
0.025503688980303824
0.0072601934041736935
0.015020778520003596
0.01324718061278626
0.02379085747146786
-0.00950949074872721
0.08740798257601382
0.06818679361511569
-0.010972426212026402
0.0029092203749379935
-0.02616674108335374
0.014998731398448812
-0.004990081239151883
0.015721265404346263
0.044822361765687414
-0.003268590147864154
0.007648755854641389
0.019007498364138644
0.012995077297963727
-0.03663540402496255
-0.04152567353184132
0.04676735015728554
0.007517874442923072
-0.0189693055243653
-0.023414329698712537
-0.10637440732246992
-0.04140854258619753
0.03707802739678305
0.008489441492481063
0.015129650771507325
0.04225088323028411
0.030760983077133302
-0.058796625998395566
-0.04987847661477795
0.012811470485268496
0.07086388003558297
-0.009478080101309313
-0.0386238882689751
0.011432934172623897
0.10805144977995257
0.002465051552108241
-0.052329615191545005
0.0019555901641690097
0.024706861963256204
-0.012737553531277961
-0.0028359308188926472
0.03405054459109165
-0.014691344390201326
-0.017512402291570518
-0.037526144196431674
-0.005320043204266834
0.0280289697712598
0.03166827077408801
-0.0563044421229663
-0.007813813267196964
0.015514836699652063
-0.026599331469063396
-0.011850695177991338
0.012127292449684192
-0.03495007717945068
-0.029517178003675433
0.036866489618479624
0.044081219277618724
-0.04379806150357541
0.024273149000720088
0.053698039406254304
-0.014098691372897224
-0.014065901282554022
0.0019436749569951063
0.009511964603103015
-0.003272292946929756
0.05953987739352907
-0.05080304193404396
-0.03384440833266095
0.02730272896947448
0.021673151097250497
-0.014305176723647457
-0.0447057970317912
-0.02240338404967355
0.07456381687198682
0.0310314277238138
0.010914482824895997
0.00897774758420382
-0.12732433827399625
-0.056993288245138676
-0.002103731131535158
0.003879691462062486
0.009023917293177978
0.012087368330365835
0.00246791485971541
-0.06539028640837087
0.002975908635921222
-0.039984596541769425
-0.01664487553717559
-0.04622392204312068
0.06054567917175115
0.09692187975255925
0.017086428143642675
0.02133381935761676
-0.005690214979783135
0.005996285121576316
-0.01068719102756964
0.016632707766566033
-0.015266781788192602
-0.001329529748792101
0.052454380142599996
-0.02111716809624247
0.025480155304421215
-0.022491612777868708
0.01894407603999027
0.002731334424733007
0.019559088758419576
0.07977153461055793
0.0022035195459788885
0.020301047027282314
-0.0067710718476810565
-0.05066639223197556
0.028305899803480594
0.07655069981986302
-0.05158357678125208
-0.005563087008391583
-0.013862409653409666
-0.03213311719293923
-0.019925904749125502
-0.02490084846767201
0.02022542463028656
-0.019303542686786346
-0.0027800350802846116
-0.03289393932776692
-0.004911936868453179
0.023929689833359392
0.014132412268319773
0.00033372871208829744
-0.001267817275030404
-0.03900473735466915
-0.009871449211428098
0.06301632385687739
0.016799567880858443
-0.053666926105804466
-0.00013748981694586658
-0.014658891611392862
-0.03393439404095922
-0.005334327781176326
-0.01446168596981073
-0.019486503809364793
0.0012471137042272696
-0.01910661189770037
0.006315355647752529
0.006391670887720082
-0.02045815852942909
-0.0019135265713624752
0.03096960440556319
-0.00851526055245449
0.013840307491856687
0.028749930931980697
0.0963410711374047
0.018569274287231267
0.001625916109534334
-0.005830741346097861
-0.014589754566699108
-0.0292558606062372
0.00950884633431489
-0.00721852360230938
0.010105016235470998
0.038790693342048155
0.01603651870973072
-0.010021568534211937
-0.03703090422978806
-0.07655502099550773
0.0936044255754023
0.029680373543654503
-0.0478919723969715
0.05239646249582207
-0.0006813305394263543
-0.01669713949946166
-0.024640817249752006
0.039796051736359146
-0.0022806029372548792
-0.049304581302859835
-0.004752843802236549
-0.023825970303562632
0.010167327478078704
0.011807367353373552
-0.015183622939785917
0.02022031182057639
-0.019350643895596535
-0.017619382801745555
0.005103433643440752
0.0010871791015631485
0.004185614710841044
-0.06132157547992364
0.10452245957581638
0.11420676908165522
0.007384903275896851
-0.06766155847624089
-0.1546579643396777
0.005929664711688077
-0.029381873735168373
0.004786777370912213
0.023055413454912944
-0.026990515806659104
0.01103912890618622
0.023874282356727658
0.0034477640376904856
-0.016316706855773397
-0.019323044930960275
-0.0006719628965997371
-0.025856706956403686
0.009816863752198828
0.0007633681609683616
-0.0016841938802941625
-0.017251818822105056
-0.039502998236059614
0.005481338810780589
-0.02990852354382879
-0.022111959342872946
0.00940459462930778
0.05081413309976896
0.041465863856619184
-0.01335088574622977
-0.012982831068192447
0.021629137610027698
0.03680201630370574
-0.003083776946014934
0.009630902500766349
0.03429737145199736
0.015561438802594666
-0.026489568607092222
-0.0025632733593497652
0.009309712926464075
0.013667807639883879
0.027857112487997084
0.07187406407289328
0.028190071556672303
0.0025603754442935856
-0.0003646010011004485
0.02148902251782783
0.020379980993499594
0.0037898628712832207
-0.0205012872197305
0.007100961851009123
-0.003863669461017995
-0.0022149300808562825
-0.11361464663618107
-0.06100797248742176
0.009830835715612359
0.011763921452091037
0.004811715366811933
0.06044787501886509
0.007107380455978397
-0.01161434933368714
0.004845653008258389
0.015061533021744756
0.0013826259351169586
0.04704518518298583
0.003947180995504552
-0.04638946752997072
-0.002262811244283819
0.009508267870837367
-0.0051230065949876445
0.026110733336842797
-0.04686600542749652
-0.08184913482659599
0.09636328165802957
0.04401138389360272
-0.024512104706192035
-0.201559646949241
-0.01322770494654518
0.014510541348173893
0.055026558258191735
-0.02568248343994407
0.007428923423888928
0.020002321776947933
0.009280182281816294
0.07895613215240953
0.029316836734633422
0.02636453781526272
-0.017673560267606164
-0.11108241052263276
0.010874162114400794
-0.022378209019039752
0.0350397857994696
-0.05915575742643407
-0.04730337096475521
-0.01488671991487736
0.05837884477170188
0.012756155034601877
0.008347497307216381
-0.06690566626126895
-0.016141159804255033
-0.023976945078462278
-0.07298252925054331
0.01384781819144388
0.02901588481016546
-0.0181224543226092
-0.027939434140654792
-0.0006051465126500381
0.035401084741748454
-0.00938144172206055
-0.032846485205247584
0.04958160831589348
0.05229703696111647
-0.06042003054327561
0.10532827377950867
0.1649235904499096
-0.03678810091950562
-0.011264320385967886
-0.012850596353397262
-0.006489929621276813
0.05054613212264383
0.007686880755473399
0.011074774105694152
0.015943893014446976
0.0036826025355267016
-0.002615831586928345
-0.004250276249136388
-0.05877444617890763
0.06538495060112075
0.05854831914290266
-0.023934575990335872
0.05727643338036658
-0.02432316295075054
-0.0030545067252026876
-0.05391283206379323
-0.035924080453857594
-0.017465849821465897
0.013753567160143554
-0.01731392052409033
-0.018397427984774728
0.000981754064956918
0.019797685837742197
-0.018346199585423672
-0.008242965442348345
-0.04197049702517501
0.02882800185871069
0.008603408079030221
-0.003983577186892275
0.012840747076744383
0.0007917900363700258
0.10365113127579999
0.053572261788376666
-0.014110842039217773
0.015956054463284606
0.07015691675920556
0.04718756501462757
-0.19041744967633903
-0.044192883597996765
0.04207243168907866
0.03298907229652067
-0.005765429439915284
-0.002854312871670781
-0.019958567048294122
0.027742441636537416
-0.021970170563698793
0.009129855542072985
-0.15828749388807065
-0.06619015774389228
0.028832771698038405
-0.0009005933896789559
-0.08795975933945113
-0.10469881877739155
0.02813860990370513
0.05271205421293944
0.02508434839793206
-0.0016875429272822761
-0.0009165352293899994
-0.019776034409709625
-0.025360592665385418
-0.023359916549109395
-0.021790723208395417
-0.014156554758710211
-0.014286428101585261
0.030093626677129205
0.010915018439012745
0.032854019985618134
-0.011731982794610064
-0.03078866280391381
-0.04276435598297867
-0.022660068391951626
0.02792692632335278
0.19944470884234702
0.020589157050170614
0.0746239742442983
0.017519410612032164
-0.02343729950381387
-0.003866475477939595
-0.03480715816373495
0.07009192352589418
0.0478959158495975
0.0004915826154792807
-0.012727890476188872
-0.0430221095265698
-0.010974466057962118
-0.09208907837308254
0.01758281869137533
-0.009831829958856434
0.0682021011632043
0.02484078936161527
0.037694640881791024
-0.016124540553909064
-0.01173020393266896
-0.018246050936858094
0.028299176005333066
-0.005538028819839095
0.007723779899642432
0.04273524074239313
0.10460791963461785
0.015801187485351528
-0.0004904625132207262
-0.007963028938355378
-0.013010569059145613
-0.030626918500362428
-0.0023694679526561823
-0.016643760039751824
0.13916723353108845
0.0871324556280066
-0.013820622489575317
-0.02475251037356143
-0.014213340770678462
-0.1766649843716026
-0.07822735125547313
0.04290808034081725
0.007983049829286321
0.012040519762515993
-0.027114626714392347
-0.1250426174773947
-0.09853402724031375
-0.032317497081498205
-0.02891018797801854
0.004874190797844306
-0.0048208588212327284
0.04071946366152756
0.025483875332034098
-0.007815648144365136
-0.015415516198469436
-0.007014659932292129
0.018764643946882743
0.04794519182953945
0.011873204566443883
0.03348557976162687
-0.011928786376677098
0.01680658096168195
0.005027399495452413
-0.025209049669654763
-0.04140410624605479
0.038758135397838706
0.012136115329226862
-0.03278648094568653
-0.05185435952688206
0.014110042346429688
-0.015525898386103137
0.047529923932146834
0.036307991861449736
-0.035163124548733556
0.0938240857407671
0.031482786726051204
-0.01119890070274798
0.022965674701626946
-0.0015387815389624347
-0.11981433633353958
0.00825561656327385
0.049760258468552435
-0.06266364746197724
-0.0370243797983793
0.060597442436836436
0.06299968876789656
-0.0018113824681729497
-0.0179848476104652
-0.05018083890768028
0.02484268226357712
-0.02122270257757463
-0.01571602466603261
0.00488645994352022
-0.011304912171616796
0.004640067143642842
0.02242885185256759
-0.01105862108333319
0.02597291044515101
0.1061011051906488
0.020103015402353448
-0.002260456703692888
-0.03140833024732471
-0.03227678686072013
-0.015041221578336969
-0.015484627028795087
-0.013136334242171647
-0.022729083524731148
-0.009911628513246094
-0.01715929594482387
0.01702972732046645
-0.027012610475447788
0.11196711513618572
0.03903056671072819
-0.0651113343241676
-0.06273521314023105
-0.009818091547964779
0.011161433586426317
0.02721680997584957
-0.0028759786787837718
0.09010696199134544
0.008769300357888359
-0.00726285767329834
-0.024184150283618637
0.010261777326224374
0.00011425831837527839
0.0380431588247589
0.01280004045988574
0.0032078638727927322
0.02854741686191879
0.009429535469246552
-0.009158215757137963
-0.010883153911940543
0.023697988402119875
-0.017541908853759045
-0.20443093159788983
0.04202271755089348
0.12394772273899225
-0.012685424711603712
0.0004477728252835306
-0.022608607886639414
-0.02907896130710771
0.004900656770335875
0.034185176298643795
0.0012487322042236016
0.02625552361682867
-0.0019208052871994678
-0.007593651596266177
-0.026281937388293285
-0.01774370536646362
0.016982552200798726
-0.058604399423314336
-0.1013305147594523
-0.030464474872375823
-0.024527270747750917
-0.02530251946331332
-0.005708634587827807
0.02998750196159936
0.030823831043052405
0.029640251502445022
-0.03472922981161779
0.01608481781918214
0.0025271095524394935
-0.011206092268938959
-0.013264051456404432
-0.015754071419556637
-0.014898269469971775
0.006893771165389307
0.006434961539336816
0.019166410692382545
0.00640685360718629
0.08742797730541149
0.08080919223202275
0.0293770628484858
0.07332063464063658
0.040464280295368756
0.04539415987204512
-0.022553877279397772
-0.060280884772635615
-0.022707316819095436
-0.002255081126438982
0.05402553914287855
-0.007448707726034112
-0.014201322609072786
0.016208496765620552
-0.03616909446219035
0.04973115226035334
-0.13117422661815917
-0.17240651443929095
0.043781897721740064
-0.0338962606105689
0.002217034200117981
-0.030197690254730694
-0.03945571200597544
-0.0429001875172296
0.016707950385501717
-0.04495402579340775
0.05996858568125672
0.014107380320178674
-0.035240281289667635
-0.022998661761545063
0.1948800631822725
0.0066696824181558916
-0.034827820535669476
-0.006583198270327827
0.03284864463082159
0.03532202245895318
-0.03625844864886196
-0.0012466114013792203
-0.006387095388419572
0.0075283601178155034
0.033294518682486056
0.017724230244482872
-0.007635859521306988
0.021435745005292082
-0.07923411671701767
0.01979699921184161
0.18132503882300635
0.02264014234488068
-0.007429525370057785
-0.016265186004422227
-0.007296385529360425
-0.003432494945267033
0.012891368059611512
0.04123690319559479
-0.024219430990194454
-0.028700877458112877
-0.029395993596357486
0.016764622639720502
0.020886300073417963
0.011297356286930923
0.03824583944274853
0.0031794818555510493
-0.10803819870186757
0.016805508644910955
0.006520254626942396
-0.0003633891991285534
-0.029957894439467468
0.020216389026129065
-0.06557415889361662
-0.2719736421855067
0.006799132241563556
0.0749400019869847
0.03699266477788343
-0.015516329094455925
0.02355702502897216
0.003084866068420831
0.13181384915559566
0.06898873374319596
-0.021642474263032917
-0.01738599063359638
-0.00044345463120239783
-0.033272333899105666
-0.06851419551252284
0.01396002863998538
0.02250298048538197
0.02672677775016693
-0.0038225751950042588
0.04586036862797253
0.09688898667889695
-0.1207461417686834
-0.1295384490247898
0.028902897799597066
-0.030776043562763387
-0.001005139967671819
-0.035961293335579354
-0.004079432866818967
-0.04166107605577681
-0.030972444044565228
-0.030241709059245756
-0.018632708020101335
-0.0025578148172538556
0.09411109721843748
0.07188493778860051
0.009598725648596757
0.003497328013969757
0.01998737676063386
-0.0285747882526258
-0.12555802333329955
0.0984932065153689
-0.003056751881268008
0.009306011531973933
-0.00783699107427125
0.07666342168310071
-0.018219365775043222
-0.021359497946065495
0.029765654966625917
0.03114932649153193
0.02083748877804599
0.03309020421902626
0.07221087944129807
-0.023608113406092104
-0.0015364822498552015
0.017836214987269033
0.01918434604350851
-0.01693495994331228
-0.0017273946575948542
-0.04057374941574036
-0.03760511913379993
-0.014965612928785982
0.0007985724300692599
-0.025915664888860677
-0.01255589768502232
-0.016451920628422212
0.03632870829240009
-0.02504643215252966
0.03865523358771565
0.09037713028824451
-0.015067702244326962
-0.030520404272943814
-0.02015546975974717
0.014324213310120387
0.0562477951557537
0.03201603918147819
0.003924351866155242
-0.009377416462427976
-0.004639623669872496
0.014858532378107869
-0.004118586851318106
0.008559980028678351
-0.019412192201254203
0.007231440077931426
-0.006828452149323492
-0.0006180618144429951
-0.019987678334675435
-0.0018675829755649992
-0.08033770012779225
-0.037331914109675526
-0.010330535005057881
-0.03384540716199976
0.000884498209945784
0.060435554400203775
0.01602533655043757
-0.019216696321938672
0.011485860959963928
-0.01070299184416097
-0.003965347719139176
0.026694530451857303
0.03257580753317035
-0.020763923301015806
0.0018936415693926254
0.04043765196945042
-0.05224550346954331
-0.09484480925481599
0.03509821364228919
-0.013304816664085119
0.02536673214091547
0.010134990902758425
0.015802685209488253
0.02392865932755476
0.06812097130659805
0.10825024323098406
0.0011440523050160129
-0.14792498329656598
-0.11272972105944185
-0.013080609647163339
0.008894891671811133
0.00010067173901048434
-0.007660447088970323
-0.0037274398482967843
0.039202781332729
-0.011286670821824454
-0.004556616532192615
-0.0005539652014608648
0.016959153634507514
-0.01631831915840772
-0.03775495403821236
0.02054598430783029
-0.02689638132420904
0.014312198946930343
0.0122184180075949
0.013271300307769011
0.05612472737796982
-0.0289116713301809
-0.07489144417360688
0.05146523820629335
0.03763887275619914
0.04863339759562671
0.03354344481304584
0.04531681395576515
0.0014596683069304972
-0.019867620495667433
-0.0054884979261934025
0.0044433177047098595
-0.024580023708026078
0.026225345446232683
0.01029073204280052
0.004775652183997319
-0.024106888949272258
-0.09104661246263096
-0.001749401902389509
0.017764342963014688
-0.01726584602005566
0.023421972350996797
0.03883743509486914
-0.09869420954501011
-0.05734128261312568
0.0030555992286106564
0.012418450262529732
-0.019001909703476174
-0.026035172504149436
-0.004674499867687523
-0.02494218843330225
0.0004535824022594865
-0.012461079319553276
0.0051505047247542984
-0.03405635862361895
0.08224889965912859
0.018747836657779886
0.05743765146986818
0.17858300576582337
-0.03937242724985576
0.06290874985686323
-0.11149885135366326
-0.05903821097159092
-0.04085494085023914
-0.07260875885713797
0.040063701585642965
0.07076320960568852
0.011007215769338694
0.006195600513043236
0.03086204525526382
-0.005688482186235548
-0.031197919514620993
-0.03667384025061026
0.007339782615891245
0.04012165177906325
0.0011128760698048044
-0.012254056127816562
-0.007946384369769468
0.038719600595250335
-0.01684551923236557
-0.05835716977645059
0.05941464930594458
-0.0252043449236377
-0.0006580205106402077
0.024322539945261297
0.016308265879443087
0.023506733306992492
-0.028609191557789314
0.015173556323521192
0.09619593092338913
-0.00651650591883617
0.00828647609453631
0.015897420987621962
-0.03462320189254672
0.002240650758625699
0.008612064805973702
-0.023298272275506782
0.0006567540328974549
0.004021623377259553
-0.017806416159305522
-0.0549481884639406
-0.003567445757731876
0.025159624823585504
-0.006970005526665257
0.01800678476693744
0.003355381510165295
0.06623858613008725
-0.03170156260079162
-0.0004030615934653597
-0.21751757087043852
-0.14653323366183643
