0
0.021184417106744294
0.018324682914078152
-0.07537004916597635
0.011426759722267577
-0.002251032554865317
-0.06897567177370567
-0.0008564922536164788
0.004166118182191019
0.043670868306750106
0.09140207777079092
0.0324456086975055
0.18658627016862986
0.07402396316721434
-0.07867558165573714
-0.023543075011288564
-0.015481220456199233
-0.023253868023385166
-0.011828068003937727
-0.019271738440323632
0.003326483618371849
0.007814153368900368
-0.024539169419865364
-0.003261160835091963
-0.04783197604120478
-0.03602923993073256
-0.03307373838811094
-0.04289771184463756
-0.02020009109429392
-0.02081177120177675
-0.031187181402085776
-0.012720360910007408
-0.013601357918512956
0.002177780631774305
0.042639269138232135
-0.013193456232210951
-0.046624989048970354
-0.03192338743802666
-0.008202000899819702
0.008369078199754975
-0.031073216869576425
-0.023598485241506473
-0.027628413906633797
0.009724959129907729
-0.019569499717931718
-0.03880297678624056
0.10555758161825864
0.0009938448957343092
0.060408344381827635
0.04688132721728326
-0.033523159719331334
0.03560927681561165
0.020309008996284898
0.04801902218687872
-0.015451620041770413
0.03905673845239649
0.01268691625368601
0.04156576811501649
0.15462128727417931
-0.013222906383201827
-0.015993680108361635
0.02422668452169861
-0.008128094069029075
0.037966732298083755
0.02019096515145003
0.03224432438697778
-0.032216546718238835
-0.026067055254208823
0.005085531225792099
-0.02777085986929763
-0.030580490687663726
-0.0045612535237255095
0.05154818241479854
0.007792329084546686
-0.03219091700621691
-0.018247403547139694
0.006573749497363206
0.004466167469810554
-0.018820080671143026
0.0395496990750024
-0.03058216053211615
0.005548339736291108
-0.059205345636459406
-0.18633399540877418
0.05475879420918561
-0.03443192364455634
0.013599361271917805
0.04684284202162385
-0.028673181311025208
-0.017625515231669116
-0.06722475790274393
-0.0025517661118189617
0.006038573659337029
0.005513674277441675
0.0004336388367997613
-0.015599297116830604
0.01477258527192692
-0.05418184671539401
-0.01976139018744391
0.00517357495967614
-0.004066060212065291
0.04243494413118922
0.020994479204028874
0.029173602609821995
-0.05568170994087007
-0.04742311493007939
0.009626107154173245
-0.0030624046809689157
0.0006959175861375809
-0.019715250239361902
0.013948394852340687
0.032792774901991346
0.09994543801256722
-0.010898775513694857
-0.00061797338931534
-0.00936877656964487
-0.08618501548117814
0.011366134000753913
0.061571498647847646
-0.03053793709882123
0.0716946503978568
0.08063039982626542
-0.03562132969085742
-0.008288337847234971
0.019671719885314375
-0.01199362596205756
0.005650462173816335
0.05929401375937796
-0.09390767059045331
-0.0761678678411533
-0.015563482093478966
-0.047066677967924325
-0.024719464727209907
-0.017435910579176445
-0.00751025276491668
0.016818773508420884
0.0005072729403673048
0.011042125619177898
0.05423458139830935
0.08312245497877874
0.028253302264185116
0.015767435126814614
-0.005141591947573623
0.08601279451800646
0.1462767539484243
-0.009856544619910352
-0.03562048571380018
-0.029898457533908015
-0.008714890910704388
-0.023487945386468905
-0.021331359097305293
-0.049419188282083026
-0.025698366743875496
-0.0541359979412648
0.010850179899918691
0.06429439535214242
0.06057646416210842
0.022792980864147078
-0.014258491873624674
-0.017241246749353494
-0.007983145341144287
-0.04517121729764786
-0.020603417252106727
0.0008437319732594927
-0.04236853488574357
-0.04596357792692491
0.02246576657074833
-0.00416227877630817
-0.028904380325741157
0.031478354542174625
0.042655917563638616
-0.021787886061009256
0.009262374101090683
0.025211658418674645
-0.0015580995808805681
-0.00900353483326292
-0.039575117529428945
0.008489408876799175
0.06456668528593201
0.019715374468936078
-0.041160298596283146
-0.042400079357008805
0.007678188095986327
0.06298253612926172
-0.01994554697283041
-0.03375058876752815
0.042570298497238535
0.016326182978393368
0.0024460227809662513
0.008192918371884685
0.02005874122113363
-0.12572436486699362
-0.05884584721408099
-0.010596433149056077
0.05987838202262676
0.11987133243775638
-0.00992077734780272
-0.060067992774459324
-0.075549342436581
-0.011475166835499708
0.0051685526929754495
0.05353838162314159
-0.02838463706663646
-0.020588658321817183
-0.014871414947985679
-0.030875013887234796
0.03069839089370794
-0.011630670115469376
-0.010490919107159151
-0.0363956172839682
0.01144157142145584
0.016756893041186105
0.019439372284916524
0.05326889632163776
-0.003983875569967836
-0.018936593965347456
0.02205066502512951
0.00584274567771855
0.018467655807674645
0.04164541275029248
-0.01534982459864029
0.05630629768185171
0.007736804957253674
0.00795886112967935
-0.0013817086855938312
0.018325737041098005
0.031611804012166574
-0.0008406607091917472
-0.016813156901270106
-0.002725740052099746
-0.018762739305382442
-0.0071415726708338265
-0.0033729378702037705
-0.022288646371760784
0.019004683794659284
0.024333079099210377
0.003063656030604908
-0.014432756529338816
-0.0015656192102869193
0.012076360130214195
0.01114869012432352
-0.029619876599324836
-0.014547238599066446
-0.09850042187776471
-0.07449742998130439
0.003642370595809201
-0.027969889155154005
-0.02196942729390303
0.050569688750227694
0.0392568313790532
0.01891270922585549
0.011086181267188541
-0.04900457487787198
-0.005109936141166924
-0.000994771130914263
0.05601430638279325
0.007604709412196387
0.006788736952046417
0.08971995987272433
-0.03365206952412721
-0.032030802142336064
-0.006204529157905592
0.01289307008354995
0.02069677079114495
-0.044661461190429366
0.0004180201906998889
-0.0029016981329559838
-0.005799544478273138
0.024527961454211857
-0.01781217336087761
0.01950363111920578
0.039556074234855645
-0.03558596891354969
-0.07936596155381616
0.054029559407647115
0.054845838599238056
-0.019252353185302357
-0.027501553544114526
-0.02812590550743838
-0.001862237742420189
0.003301759691565117
-0.011655893033382523
0.03686798979341747
0.014590322644622504
-0.007303305463911068
0.013507129147859192
-0.05865529969293912
0.04198515599775657
0.04710698723529561
0.0011486195126666253
-0.004040209383682045
0.013528372985148815
-0.0768865699507813
-0.01460796046500433
-0.015439429373731947
0.005963090282573522
0.09420075071554895
-0.03350841356161648
-0.05190370368686853
-0.019477493051519256
0.029919757004107157
0.015431062818387704
0.06857550280485838
0.03298814000426088
-0.030536113541236254
0.0010210641824921634
-0.0041339162720021375
-0.02626908278206644
0.015679129291135453
-0.0001418055900258946
-0.008146781300256091
-0.014660095797647286
0.013394463274586915
0.027027782356291448
0.024881715126184714
-0.03324365479768218
-0.05794240300548119
-0.024511111503931506
0.0013928260459466035
0.02691977291282497
0.049644279908522534
0.02686661817766635
-0.07381238314332361
0.04522342522759669
-0.034666436214964194
-0.049229252577365615
-0.009672357656681289
-0.016897391438054923
-0.0026435257253165784
0.018532696199125214
0.02189739286506975
-0.04598983097664086
0.03614422340163843
0.03457259003439868
0.016545096897170253
-0.017594837656345667
0.016682821394659687
-0.034203754570441905
-0.02066881608478469
-0.01174035704731885
-0.019545275815736732
-0.03552832512824239
0.0009744785483248214
-0.042861337270888554
-0.019560060614047796
0.04502285101392067
0.015134039771376165
0.011194080073446978
-0.07796237473471694
-0.010124172503346754
0.023480834383080237
-0.006035520592687259
0.08698041861430807
0.05350073532012177
0.018141607202950997
0.051908095279515565
0.05509320182219236
-0.034179478985298904
0.006120219926755956
0.12536599638582913
-0.05480700453710447
-0.013686892511175996
-0.07104153039005028
-0.027916345301324422
-0.03989799439809481
0.01740957923892491
0.011839219850936103
-0.0570130141255673
0.01132442759964061
0.03050882209434064
0.03582226461136656
0.008793459884432855
-0.020260228463776786
-0.013447558414934663
0.02163410789529526
-0.004099246655923507
0.005286140516415139
-0.03749084985283885
0.04654879454694992
0.1371678395308384
-0.002346476337311623
0.0451733973660946
0.01936131819084355
0.02761849343357689
-0.08538675039362979
-0.20316671686065294
-0.005296303796392343
0.040352851078727964
-0.04175634058179281
-0.022277583267233777
0.026646268720763876
0.05614437553203939
-0.017896049186810755
-0.005542037689830557
-0.013398816983363858
0.00317784689266123
-0.01721164441518481
-0.01872956129636029
0.023466187245435588
0.01597961525629371
-0.011335920602727714
0.030545191896954715
0.02253679180990561
0.06139954976137215
0.006174478165509192
-0.024335103855992274
0.08789664722534607
-0.01554143393859577
0.013601618676307154
-0.042322063212047026
-0.009393493634988686
-0.14095236178855458
-0.057192142613319834
0.041381882376287094
-0.020598805102013673
0.01944729052199771
-0.0581834493090992
-0.016084822098861952
-0.026396666843125343
-0.03344902904006862
0.028760429144021882
0.01752372705143422
0.0015946840754588417
0.037267807744051945
-0.015873004945770278
-0.01615550231918192
-0.025317427801615916
-0.0631590453997826
0.06138412544659585
0.11171499231879407
0.005721132728193668
0.012695806888435397
-0.020740467543384124
0.013692529275213482
0.03285787658743256
-0.035555448565482387
-0.021357868444710253
-0.006873445235419614
0.06245650105337898
0.006669746050550518
-0.02681683889250965
0.024204221774729424
0.006057116824633439
-0.0068149348873962415
-0.06828924795396157
-0.0025347127972805282
0.010127377397827752
0.0006330655806568543
-0.008840342734405964
-0.03294139715246516
-0.0016533347075848223
0.0732042559656558
-0.011729429400787514
0.010062207711149134
-0.010349543212288573
0.02555778297578894
-0.006717888185289501
0.018251066026934642
-0.010696179439315391
-0.009914769477472305
-0.00461203150828911
-0.007286938784956662
0.002132391863181222
0.03186082306708745
-0.014756270705710672
0.025071437721398342
0.03767294034669878
0.00198756300522815
-0.02921242399080274
0.024901323516152537
0.0029856677153724093
0.004237202903647559
-0.018901698541774207
0.024001707173180044
0.005135479971241773
-0.015706139335099043
-0.015586975760793367
0.023440096648798474
-0.036554640752609904
-0.027640429863529437
-0.016426556995927148
0.05022383821387954
-0.0863433643847709
-0.062150305109120924
0.022136407368246874
0.021399031605209017
-0.006061549037384864
-0.0006681603247015121
-0.005701802585158953
-0.004443148907772271
0.00618688399793463
-0.024548238734135412
-0.032550217655167815
0.010324774568207216
0.0010865607630868137
-0.028552768494740564
-0.035652970142341776
0.02064482983286146
-0.028014854814010524
0.00038729528750086427
-0.00753591502709336
0.017728431016298393
0.007192960353579447
0.12580517955717344
0.14706096697726057
-0.024924454988662716
0.016736351089340195
-0.007180375224688077
0.031862176811700144
0.14183081572531783
0.01629004548910001
-0.017110224952400558
-0.02321865684331824
0.01087514022299341
-0.01835656042376713
0.00156634025974956
0.02416400642027034
-0.05269881562579446
-0.012464461708185917
0.025074724912094736
-0.018217770509919733
-0.019937809197954213
-0.017472343806117317
-0.01641465149003416
-0.005813446406578595
0.007763143220613163
-0.028795617483835106
-0.07321343583929561
-0.01278580605545935
0.007117357036078414
-0.02080540017029458
-0.010786447297150423
0.012363973155279234
-0.004091007243311255
-0.010940557460908364
0.006037071120560793
0.014732781763863624
0.022474888189091203
-0.00621209423410726
0.0083232253770768
-0.06760234245191438
-0.18453460324391796
0.003834391456397487
0.005289819877809683
0.04088296562070319
0.08431891563567263
0.030658982609338567
-0.007093663931293866
-0.028164231975270414
-0.0412829369620708
0.026896795621590128
0.018515010227229043
0.013829896857152071
-0.053805821022975646
-0.0032109773536910555
-0.0001418078184725018
0.026799272195182806
-0.018091800411951214
0.04577886039271749
0.10147712366483343
0.03654273517894699
0.03683437176922241
-0.01474255934782156
-0.022668604544627536
-0.02435225968956282
0.03938615752268029
0.0006570372947620694
0.001578429704301256
0.03853374546425132
-0.02053905319488865
0.05937107737541338
0.011806827476259708
-0.010534964704894704
-0.09518349597260348
-0.065358998450474
0.018921957470488363
-0.001922799985063262
0.007964175267793501
0.01807481209159355
0.007522154924451394
-0.1508002660685664
-0.015534304467698788
0.00808011788873874
0.026842588200435908
0.003459854730843003
-0.017263466241716863
0.018276720786834212
0.011587708576995922
-0.028409511771136462
-0.019355159340348153
0.023544214353660334
0.02632259149816158
0.029500030454439143
-0.008089817316119654
0.021959759863484793
-0.02776800849140427
-0.0716631103263369
0.02525658705302681
0.016531075665246298
0.002236115837739863
-0.05088430726493614
0.0837698757493628
0.0655346673367574
0.002529155342556273
0.03877673931015522
0.005411954146002462
-0.024186760508691774
0.012049561007393472
-0.06203532166872444
-0.02193098178921251
0.04456349204112333
-0.012429203532354646
0.014639295159797991
0.012594430912850025
-0.046666758590843016
-0.0627992593338559
0.006419849290471767
-0.027395418585798595
-0.004263799726227084
-0.014974255148604804
-0.07144209718754865
0.030018874302816332
0.0057549206038612
-0.035006534297670124
0.02506714021120275
0.15506957747662836
-0.013287265379146049
-0.07334854763391542
-0.08277063620011435
-0.014433784873581504
-0.00017080335633492112
0.004694030645552347
-0.005619485748229452
0.07267390340173323
0.17201556900776735
-0.01574779578778937
0.05452076619540538
-0.010281353669220354
0.012729311035774831
0.0028276905604772205
-0.009590701317839028
-0.028484350775027586
0.0005417281066840676
0.053819177892083916
-0.022558873666036282
0.005466219301012092
0.004199171423491944
0.010552627061472343
0.008560572149202604
-0.00646238958772727
0.006399977192367872
-0.06277936594182952
-0.053110452669328484
-0.02424586703439411
-0.07031683632377507
-0.005197908397704536
-0.01654931563129673
-0.03209812627166228
0.03741442558774069
0.1494315257918982
0.04365631415995314
-0.04739764993045361
-0.05165760791181196
-0.03266435797129387
0.0033017042121111246
0.044131760374513315
0.028512525197405582
0.025674421594440836
-0.013361315913437834
-0.000612277686176372
0.0032487759985017853
0.01353629701752089
0.00736591155375306
-0.0038211833537236998
-0.02628563817919335
-0.038258549533601915
-0.0063706818848887235
0.04229174195047972
0.0336041464185002
0.0004113216232060971
0.03807178458688365
-0.003287639883103318
-0.0006465058458179299
-0.02131975977719556
-0.0018419421970243606
0.027477843923692496
-0.0005759243218927074
0.006125309047270097
-0.01239300165631037
-0.012976384929320885
0.01663798501614809
-0.01836506275107232
-0.08721101155818628
0.02857643131984651
0.034889170215573424
0.032840256531623806
0.006075144154071751
-0.04862324706522168
-0.01611403771580906
-0.000981387200990654
0.029510996015622567
-0.08029190351454113
-0.02918617581927213
0.005332859344549096
0.058337535731990305
-0.11749542206283589
-0.09575494581116929
0.08280442075872654
-0.011585126692927966
-0.019816280178231938
-0.0038177454917063254
0.00703076704884692
-0.10257492913419629
0.028252760391603973
0.014002758440916883
-0.034296654866319644
0.02925639587161551
-0.03244510330662386
-0.09105275841263769
0.08812276188220089
0.19155998474665795
0.014001054090442146
0.03129656787312699
0.013473320214543312
0.03815979999188027
0.051095511798477745
-0.0032984009855054385
-0.0003594772559072001
-0.014827989408305823
-0.01771145762853369
-0.02966558598434187
-0.09818117727185222
-0.025579976362293443
-0.04141539255490581
-0.021440533948148457
-0.04163302053575937
0.1394710861340641
0.03090246423674638
-0.014956007255087443
-0.051967626446001704
0.08221644755104263
0.08869885554407882
-0.051333127317302295
-0.015686833047542176
-0.04086119768749628
0.003006886497075354
0.0163737850326554
0.06116360398051089
-0.013220858216486333
0.030895720844433726
-0.02276008051442562
0.038924463526239565
0.015121208131796507
0.009562515152525762
0.0062075358779388355
-0.0030115268269232695
-0.004676536502107211
0.024357627995911183
-0.10233308198585303
-0.008425619838730991
0.006333572787125193
0.004389998854960821
0.030326853586214952
-0.013094223966458105
0.024642150358047343
-0.05042385840101594
-0.05065690818906459
0.02441688202634403
0.04745873446424531
0.015948323268657
0.010426398112289773
-0.009533548629255944
-0.03141867144854302
-0.1123775142959724
-1.1235972152420898e-05
0.036743735283309695
0.0018316689392721928
0.037106007144843745
0.014538262785583556
-0.025678728465819874
0.000432370007995572
0.008573223754692995
0.002149777734100489
0.031165983743132102
0.045166901804584984
0.025772085069823425
-0.023403617292849548
-0.017208607724077812
0.009632503178433685
0.022404217060439848
0.012832786427018667
-0.016976343683696292
-0.0030384051484882127
0.0011416300548533294
-0.04891899009079585
-0.10274632436245702
0.04450677024233661
0.040327882154084733
-0.014815063381409962
-0.037648308337289944
-0.025077401564785034
0.03310352240214626
-0.005378613006251914
-0.017500434186308405
-0.02674301020559666
0.02292771735620501
-0.0341068216415238
-0.006354235918468938
0.05633426520977992
0.04451587677853798
-0.0024265363869528556
-0.03175685115320947
-0.02767072201984384
0.034425470967057704
-0.0017148704259188222
-0.005839090764848773
-0.01551127346167673
-0.022059766970378956
0.001065997276892052
0.004180729657741079
-0.03628701011863584
0.015006261455695323
0.0037593869649721243
0.01731723976177064
0.023796852170997956
0.005620907624059738
-0.0027754289717066153
-0.007706909659014356
0.005023506957889524
0.004380174225201364
-0.018482183230505562
0.08510750931511542
0.022152242602070105
-0.019277703160183905
-0.008460170556096018
-0.027867406646168838
-0.015065863790321111
0.012805631153386437
-0.0027000109031416752
-0.004535557968765799
-0.01163270969763535
-0.020460295219261074
0.006762499227491776
-0.02321548452833721
-0.02147591909173313
0.01826292460198703
0.0035029823863695466
0.009451273201743628
-0.05408979231096176
0.0610676543568991
0.07109615730276668
-0.028855688015199523
0.008542458027716462
-0.020469016381071774
-0.02814460222518068
-0.024739544857385578
0.010265188667956768
0.0031249329731591765
0.00387978924394552
-0.02351484856467022
0.06665462708948437
0.010725214748860965
0.0030366715093186622
0.03813051226771686
-0.023515464068183813
0.002842404222167488
0.011509263896139032
0.016093080972617944
-0.0026793062194252655
0.033640230575676756
-0.028001268905991538
-0.01860714316524607
-0.032114861006043736
-0.06114030771865288
0.014740832678219016
-0.0054788573006167175
0.05626277766148576
-0.02341207758080481
-0.023808035791019404
0.05523423668379578
0.028784400210932655
0.014210464596549153
0.002138594292970723
-0.05299737947662648
-0.003609877670087873
-0.005965436716932339
-0.028366556869684895
0.009209655744351933
-0.004082656752099566
0.030073071413608952
-0.009769824312296647
0.007411717777719132
-0.021395487823690364
0.04873934388356822
0.019102536243929897
-0.0077114607971298195
0.003506230078988434
-0.025341168827223655
-0.007616357903320034
-0.02111143479197214
-0.0027952653088424246
0.002124354788845931
0.025317067354314774
-0.028520604500533064
-0.008341265624466205
-0.001253003421913947
0.007821178776617735
0.005525007171931137
-0.059810381394284934
-0.017535797450347352
0.0374340123450439
0.013925834047345112
0.03361847039973951
0.006487645113187792
-0.008293003150738781
-0.034883508109889105
0.02280735799197852
0.034935546141856934
0.02017209919634984
-0.02886285379367706
-0.002147303106570365
-0.019806475910357984
-0.034115136631354404
0.01800679361254823
-0.000931202273845206
-0.042437283473036345
-0.008064743610054674
-0.036328695212685606
-0.0014037937101575736
0.006581693481160079
0.0010868301917358394
-0.12188557076612454
-0.0017433548043074753
-0.049829876650901335
0.04144640164421812
0.14041980657468786
0.009390498418482439
0.05840291394781803
-0.040806816118868106
0.060204333560336006
0.014689891668958548
0.12204471261791643
0.13038078020054042
-0.029030094592613416
-0.007842356762377186
-0.005682884263742373
0.002052597529904179
-0.005119076853783419
-0.051568380033041365
0.0003006546816415561
0.0025189387913331224
-0.023593042167200384
0.011702237206093315
0.013891060803931116
-0.02994866403173858
-0.04173702117360574
-0.004819118973640608
0.015777296187559006
-0.05906266772975657
-0.03800469327409101
-0.010585771301078666
-0.014990114740131375
-0.05262339886233987
-0.02792176935000108
-0.01760742347053113
0.0008727184459859155
-0.05903469469134165
-0.05505493938497568
0.08123775623713096
0.05976886450912068
-0.002800719446806929
-0.009868931059356559
-0.015559772918915967
0.007059199615548559
-0.02070463887755393
-0.017094062475654852
-0.0008118164780589015
0.06722787729427829
0.12479846896639388
-0.034307582429755214
-0.03753810826279667
0.0019769760784395787
-0.051399308112788554
0.09576053019335444
0.10068835759499646
-0.03667239329046994
-0.009673672430701542
0.010601909491880574
0.01509753033229699
-0.02453849721267623
0.013121925124389887
0.013747969779753538
0.003755716724699602
-0.01485996629197237
-0.021614157264681116
0.0059089026354204
-0.01568548984585614
-0.01703976814882045
0.035237800990385044
-0.005883837583515748
-0.007068141058586738
-0.025832901170758878
-0.001254951812368912
-0.004761657325112936
0.0041524962399965325
0.022521411498885556
-0.042020071675574616
0.029427710684706922
-0.04868038755285472
-0.18929469540507268
0.019246314141754282
0.013939143722379766
0.07010013579034241
0.024582903613327618
0.0217642343357051
-0.006004792945498911
-0.005520992603956234
-0.03073348377078516
0.0022476545613996065
0.022482943671384464
-0.03602224872595232
0.023825077719893062
0.02207779931596329
0.01566368998075677
0.051093472015381294
0.14229485558468416
-0.031001965395048403
-0.0042354020369260535
0.00819654737720056
-0.06895527269913664
-0.046005793888828
-0.018118854056350053
-0.035447682395062345
-0.024390788779347517
0.015352657019935738
0.022774632542852665
0.04759525400322373
0.024350960358559878
-0.148450809408643
-0.04870857104670754
0.037244801190772864
-0.012076631632849364
-0.008903637463330066
-0.017684793336410494
0.013449547240589308
0.0006836618778935267
-0.011526072442862955
-0.0034433238879482135
0.010049575779274095
0.024203270610523697
0.016888692165269253
0.06001023690992958
0.01686828861965282
-0.0711710813171457
0.03927555422680077
0.0063539755504057665
-0.011874002169708174
0.008817338590648467
-0.017054317778041173
-0.01274166968372044
0.037498324701033266
0.014051009228533024
0.002819937258496673
-0.0017744091555549981
0.03970047269108931
0.03467422010841403
-0.05328986093605503
0.011012685821846325
-0.022858143541126846
-0.026181246007874925
0.06332749533772385
0.21326992404957415
-0.005536375553645666
0.006912891427036429
-0.030041699717914552
-0.19598052413238667
0.05467063523378583
0.023279913507774516
-0.04704055248956318
0.00937283341802791
-0.031707504158602316
0.03331868012867482
0.17747924623259803
-0.0022763221975566346
0.04295996520887901
0.012834205247305271
0.01788966968646477
0.10907464887572482
0.04766097803749303
-0.36503612111277145
-0.159190437977334
0.0890886749607705
-0.010055319567705494
0.014559558708140685
-0.0497017542098666
-0.018055460766071774
0.03220274275747202
0.024449699075124277
0.002020250051037312
-0.023157655877752883
-0.09513286888700012
0.05391661416989457
0.07137017028394292
-0.0413118943958647
-0.1638180995309478
-0.06581112795668269
0.06554213397527228
0.010024983973440222
0.003993884828311597
0.0069677712479686
0.055645414388565156
-0.017472915525804895
-0.025098024145687042
-0.030389389204742018
0.005859969280794055
0.04323175681840708
0.1642493681904491
0.1019486424331768
-0.02221300610806553
-0.019852608231795098
-0.029597751376794077
-0.009456920496842073
-0.009538788628996004
-0.05934003576255748
-0.013203938935010174
-0.07332466683629467
-0.09671784838558867
-0.029363328244103485
-0.02475999124084969
0.013276289839341126
-0.023413238564093598
0.020716333157429465
0.1150160060389611
-0.02797703036358066
-0.021155127316056052
-0.010633750266488287
0.10641368992536247
0.15311026779195874
-0.04587228231865564
0.016461863756989558
-0.002294762875596653
-0.017152936420376193
0.021822775482882705
0.012315219287518173
-0.008106586432445244
-0.0016032592225875028
0.004621917164163811
-0.0067721160444505655
0.027821163831055633
-0.019187828389054796
0.006742602686124213
-0.03766614510215882
-0.030822745044809002
0.014261431403427862
-0.006688578229369613
-0.03997047833569529
-0.006551465355267361
0.04220424111803819
-0.019690103820641007
-0.004957259108218301
-0.031020373704592808
0.04191008460545195
-0.01631819803775693
0.04340889589956917
0.126534502583932
-0.04130261606792458
-0.030912875181698357
0.035448887209190025
-0.00706091047040983
0.012978616937911965
0.08527861772373524
0.01161601400562909
0.00919974833842556
-0.09957968178553864
-0.018828685354772588
-0.0384958381408708
-0.03235771765153726
-0.021954171936141565
0.018212036068215875
-0.0454767015350337
-0.05989726055916971
0.032180208723487175
-0.005224235416718155
0.011304617755573433
0.005893711403906579
0.01594624244715031
0.0059624856996426875
0.014045226505724822
0.029627234887477212
-0.0003412690020273361
-0.015101992693371093
0.03347529447881328
0.0008221476114640691
-0.016750652902492714
-0.03407785158820851
0.037609876685487105
0.02423099514259119
-0.013367239242847911
-0.02262248683461668
0.001487331769244263
-0.004376351577031977
0.006668835752556887
0.014129857274623514
0.06575219042701735
0.010391814737547666
-0.018619976621324856
0.017036204507881708
-0.015087626915391748
-0.002135110632865832
0.0015357501540065753
-0.03389169982500677
-0.0566777431802681
-0.006957336295314461
-0.03803134960452951
-0.02054546320999524
-0.03826060425515443
0.011657213789267195
0.02408277121179121
0.008709164486680084
-0.02433567232454377
0.01883770872186507
0.004957047383966087
-0.05219883780430715
-0.008506997621218666
0.03994657789817818
0.033677612785820835
-0.012016937868385933
0.005255825401245209
0.04090573205658533
0.006134680864422742
0.0010110746860526566
0.00967116186555597
-0.007998932001784103
0.04500244952198332
0.03980064207386203
-0.09196565814073726
-0.05432294716265523
0.003587611090276044
-0.001278546767878307
0.022978879387722737
0.0034149553417139153
0.014849972188314933
-0.006032974434668429
-0.0011420095776579775
-0.029455643886936368
0.025242501440913823
-0.032482685464682456
-0.003984585046600862
0.013754831017752132
-0.01619517700812295
0.018066240975426112
0.009030400888619275
-0.007423446641463416
0.015953592182912462
0.04101853270517189
0.0008044182063716145
0.08377010001585022
0.020565782186019958
-0.0369027080043398
-0.03732761965544148
-0.016907294811518273
-0.04508556829416275
-0.05172836946126636
-0.002520783660989672
-0.03552538920513657
-0.00224662255849491
-0.03909118440870313
0.089041050677127
0.06755140315530901
-0.047282057590434565
0.01186899928956748
0.0039152731509603566
0.0037305151701731184
0.006782956494587102
-0.02803627116721548
-0.05112220369440317
-0.004654652003360282
0.001741849325799806
0.06158924679426812
0.07568467054562202
-0.08603989795327954
-0.005949584572664855
0.011610006659776826
-0.04286862431482493
-0.045774501713671555
0.000358830675868792
-0.021512664948354618
-0.037264277008700816
0.05744109465592984
0.01557825741581106
-0.05112079288253385
-0.0159530535073236
-0.016107866597501876
-0.005670661665973508
0.14140827060177075
-0.05707786775511365
0.08288106207031828
0.11017754957439577
-0.024329972415363513
0.16860310579575674
-4.990103101781026e-05
-0.015148017026541635
0.007503747433262285
0.004174720099328511
-0.026619176319521442
0.011312585554694084
0.005165693796887961
0.055465747477892284
0.03125438000971932
0.01635133840460976
-0.10171858781816157
-0.0910121148677367
-0.0010769500553482144
-0.04774702703596323
-0.030255899687863245
-0.022375865211065472
0.019745575558443647
-0.009981147825389287
-0.040488746814014244
-0.029295348919854077
-0.005157461776769993
0.029933102537932122
-0.0007762570171832816
0.000350339262640984
0.0022950026720713274
0.04572632961386781
0.027315070824232904
-0.015327898185919505
0.008110141562834844
0.06183511631826711
-0.0014462596180469106
0.002043724913033362
-0.035352410005171156
0.006441809095239209
-0.02063203670491407
0.023165463826333343
-0.14388927968886867
-0.08490160404326982
0.2691524474376398
0.07466079599825944
-0.06751814205288324
-0.01843881251614633
-0.03340220965013856
-0.059336347414572436
-0.018108384251711216
-0.0702412035006018
-0.01355620834298872
-0.0009195105374430797
-0.006561163757526443
0.028788930686740943
0.007578727053088545
0.013284719912591385
-0.016453291240870107
-0.009931953007826367
0.012494301936673854
-0.00944116629186419
-0.03194391300596364
-0.010046418734359543
-0.002941172811346494
-0.0244805430401981
0.022764059409474704
0.030924538669592133
0.04253593524988093
-0.024668283681132098
-0.023484113590464543
0.026861046002930374
0.061818355819965205
-0.02668940886903191
-0.0028293472772783703
-0.01634087845780396
-0.024427324333424948
-0.025279207207010802
-0.004735428806861204
-0.03075187722947068
-0.0008795195711923549
-0.0029655551862226397
-0.05451381836363742
0.030088083238501366
0.13041907048190912
0.0005124445101854708
0.00798352826944025
-0.11480386578851377
-0.03431771143764868
0.008166809420617677
0.016080646229463185
0.014620977009726106
-0.020599971166436307
0.03011201806716963
0.045556360873700026
-0.017897997653337768
0.04216989876148176
-0.01896656513569583
-0.023436440535315826
0.002660197158183447
0.0764399817682519
0.19422242031301032
0.05368873086753306
-0.043592664722461615
0.025615634346866926
-0.0012677742662465046
0.04289240617167996
-0.017651356903883843
-0.003528893223929072
-0.007900838384628423
0.008106010390826545
-0.02611299671660353
0.02655203179833839
0.02309282610371126
-0.006839763291348528
-0.03403964323074251
0.004359341818854347
-0.14857234804872274
-0.11826597395406728
0.022169231766299403
-0.03009955720060916
-0.013197433209543625
0.004370847485779428
-0.013097376790217337
-0.004561130054295272
-0.012985191852408394
0.03552963236818439
0.052103206648862935
0.011899087696729545
-0.0022924014878962676
0.017770311713406445
-0.014070888362699742
-0.0386944105373518
-0.011003141751544253
0.02659575164991678
-0.02028799468587485
-0.00998643168637902
-0.020214952003059047
-0.05631035827515028
0.0022411869971861774
0.0270168920540564
0.03540522711028018
0.0716456725029577
0.007958862549508122
-0.013247247471312045
-0.02003893387899762
0.008000959121827854
-0.014160528712717481
-0.10749176446877848
0.03318430638729942
0.01689176685762082
0.018131615559615667
0.019122866505785915
-0.020756955851909214
-0.022664107790128927
-0.002403846148866967
0.0014361566077443347
-0.021708035804776094
0.053775302773999396
0.045465472726341605
0.0037126713387195132
0.010337861875219172
-0.01833762841616005
0.025513543046301178
-0.0033143538860061304
-0.007112504382446266
-0.011505112476526844
0.04317552092913541
-0.019916076162667197
-0.031602645240233734
0.031796790756131746
0.02609520538751614
0.016050981381825057
-0.03627784678109173
-0.0007210252528042036
0.02624540973751243
0.03772441282735681
0.0034038649217811427
-0.030987416931483998
-0.025181943221302936
-0.014457774093589821
0.006059243063354139
-0.03199078796305403
0.014045432706863984
0.0463140001021361
-0.006604277571581635
0.04161027077678859
-0.03127415112586763
-0.038591394693102146
-0.010167308537354789
-0.002275915056036819
0.013200810791046815
-0.018624091279669873
-0.00014343994848500438
0.007549682417172263
0.018684484386387014
0.013440791573950714
-0.06736569298865969
-0.05038226233204735
-0.01792661809909431
-0.018468166507506427
-0.005539929435531673
0.0502677291421504
-0.005493327870148724
-0.035753049281751506
-0.013967806032044394
-0.004571426028223524
