0
0.014213271580212586
0.030944926126196256
0.007396245569876274
-0.012774774778838495
-0.008378866761929702
0.02778104499405767
0.0009649406488720822
-0.018816095166658577
-0.0083717828368675
-0.0010322567044911055
-0.01683544683761614
-0.003900684670371355
-0.016356859475013513
-0.003749034625997662
-0.060340109126357115
0.08026574557097847
0.07611263485889651
-0.0017629171843883361
-0.01114781342436824
-0.011229222126673618
0.02769726773608542
0.009785391667355493
0.0005862006245355285
0.023035928383265798
0.009867692358343465
-0.014134870814646143
-0.022964379440829987
-0.04205532663058126
-0.019200799945451645
0.14828768188198882
0.038736235173162215
-0.007646606622495556
-0.032284993969030416
-0.07603616322545678
0.004408752639425232
0.014212678686972414
0.003554019114974475
-0.004609649870651292
-0.023503320441383254
0.012648133897082987
0.02189972973267372
-0.00019097607423217307
-0.022967872885388596
-0.015662172837215275
-0.021176112927542512
0.0057045088944883615
0.03251682839753208
0.04455975566980875
0.016275844224803392
0.035680687248163374
0.02795114235426701
0.03605245019949281
-0.12285085400196835
-0.145364485409272
-0.04906125164967699
-0.13419658863467865
0.05164522694826687
-0.016458204157430253
0.01189697033308968
-0.0037495965380456415
-0.033396217619131835
-0.059176170317535186
0.029767615540004348
-0.0008828725118240731
0.019848585341974645
-0.03299082103764469
0.005110511751879698
0.04123421933561017
0.05020762707940658
-0.02642399910811304
-0.0016508278985471678
0.00019201485978305105
0.028123102809646087
0.032131174293080524
0.018536052613089615
0.11434062153624973
0.0362041561285704
-0.025917819712862913
0.009803858684432787
0.024484473099743057
0.015302842871267531
0.022186725400595624
-0.007299916090916671
-0.02977436541653934
-0.00037894791732153435
-0.031015848935363535
-0.026124016609651343
0.00552774162245287
-0.008597007222678133
-0.010466180849187021
0.018098927902708062
0.05893236319644804
0.04395547268474836
0.01756118813986922
0.06555183404214161
-0.0025565477277305865
-0.019644650592196833
-0.01906389492550982
0.0011271340336206465
-0.02628428344931007
0.009219168300847234
-0.019841701587724633
-0.006495451450255553
0.0008143397867636965
0.03598662507945865
-0.007758145480913893
-0.04125845495553213
-0.00895537357233701
0.073952261772289
0.03769125220709993
0.04525359571515511
-0.019139166442430147
0.04073246998551924
-0.008670261057269408
-0.060175133162764016
-0.03704615585290573
-0.03671178802213144
-0.03335766080262916
-0.03152236675103027
-0.016260375709591657
-0.0025146872849398823
-0.02642011035090892
0.0023201868251849856
-0.010340778279265047
0.0003091561349162207
0.0014428674350275325
0.0036916383455961456
0.01017474734735768
-0.02872941441340695
-0.009834848377184012
-0.013369777692737528
0.010248165017600884
0.015086481672761162
-0.02337163321046862
0.0011798042131859936
0.016270412898697923
0.0010829787987739364
-0.0026190728569359624
-0.04901552947383039
-0.02558473697437227
6.0129633310571696e-06
0.01787931875587342
-0.007369594928671834
-0.032947122905001014
-0.015187386729251219
0.030657633478782968
0.0526389065552522
-0.005619254543539207
-0.014862140586032965
0.0561662300629433
0.001994090253795399
-0.010908678339992333
0.009930460084817806
-0.015941170468222916
0.08041221864286693
-0.006155100344368595
-0.05734710819037566
-0.04842745115515076
-0.06756061765091813
-0.06176343075066397
0.03920260695711802
-0.006981421368824919
0.0013390741187747285
0.007982786036671253
0.05621673458765111
0.013184051891415353
0.07727283934640655
0.037726589293779984
0.07904246888808486
-0.005050285899274868
0.02426476752373664
-0.038479381148434
0.031370214865170165
0.10045106582471765
-0.10060921057848407
-0.07255114611624806
-0.012390749330524937
0.003869070461389083
0.017227961470842323
0.005847110961672295
-0.04352632415577646
0.014639934932236084
0.0030109098239703715
-0.004393194563676132
0.04642236930753102
0.004271508840654751
0.03899801711817914
-0.0038365234286524444
0.03010997634205639
0.003945129412752402
0.031137338782139555
0.010521937473676435
0.008012868202624583
-0.005953216687453259
-0.05775534845486139
-0.07444906895126378
0.06570923931101243
0.07604122124897116
-0.08785339274971167
-0.12994685997572616
-0.003061517109675747
0.017431678138050938
0.016624288901032885
0.015500957401336148
-0.02700294329821208
-0.012999899849730852
-0.018936742209474906
-0.046475409468126776
-0.0069993416646139854
0.03156075253854427
-0.0017341927550763943
-0.013035233077869914
0.039828087180396037
-0.06038353110842813
-0.04347293672264714
0.0015664431466915869
0.02195317744900124
-0.017160019459064552
-0.011516769666733116
0.007626448572063645
0.020455409718296735
0.0145101337554637
-0.0036211022310977947
-0.03138127271372286
0.0013480289196757828
-0.010451477578035046
0.0009032464854157188
0.01688362512466096
0.009933954383757134
0.03931054638546527
0.068703985459575
0.020321965599043822
-0.0049841039340040106
-0.02267809406172038
0.04321919438935948
0.04243248006981546
0.04904772179526191
-0.10342450376435318
-0.07909773802464162
-0.014208701219580346
-0.026992471834578157
0.021376178362267042
0.06676321759177004
0.12659826726192716
-0.010187769235771627
0.010443907436409498
0.021746934154664804
-0.11666857004574757
0.003982484542052158
-0.04017591879481893
-0.016270142404611988
-0.0880679827126834
-0.06804060706502141
0.03052236832462155
-0.002159412042257126
-0.03344296882341097
0.07042097115080798
0.1381146370200896
-0.008268769218312743
0.03429375753110739
-0.013011556708875393
0.0006485361141625732
0.016309236749471906
0.05291518225737555
-0.022181182208717603
-0.03774151243312759
0.09756994834069274
-0.00032565176183475716
-0.040586057714856925
0.0007735430147190454
-0.03150681934227068
-0.010902015673452808
0.014563063216617602
0.021416299012508078
-0.022186501495735655
0.018913863393799118
0.028407404646891614
-0.028848044685182667
0.005556738573312922
-0.005183344600005468
-0.03997529303457687
0.012199021006231306
-0.03191046552413088
0.03818507826740106
0.0068337075245320025
0.006222687615664794
0.015304813698763978
0.0381205770387383
0.0040155399512668685
0.016466079675751494
0.017671767867522867
-0.014367021839564122
-0.057762186881791966
-0.027321851639755628
-0.008644514413582449
-0.016162734533121725
-0.008565779444352863
0.0448117015185333
0.015656606039934455
-0.04919137211350738
-0.003713360741520128
-0.016427063265163078
0.004268710311494237
0.011869121488483271
-0.02695085216972119
-0.01728846530245272
-0.0020465099927379697
-0.019070515930317767
-0.03876090627480012
-0.009040195412227094
0.012087043032797564
-0.02258094530076157
0.022851111750014717
-0.07263320300868487
-0.16967004040973283
0.0022074064700339053
-0.03838174767866797
0.0931274128066736
0.019561394225514183
0.04697749201831923
0.03770997097055322
-0.03891707813609706
-0.013077732780302718
0.047790744664293526
0.02393169272985362
-0.004267069934591722
-0.008270154251534908
0.030714346594262597
0.00971634420446914
-0.030846589528168787
-0.03140859818689837
0.03437120352087609
0.03420967976519056
0.038818289574242056
-0.053339554523754704
0.11952571945860331
0.06452813662503791
-0.06918758047087156
0.024340856592804258
-0.027178095374874613
-0.026172067450757553
-0.038402335864393865
-0.029463438848987174
-0.01134487153770144
0.009893610301974335
-0.020069526065722914
0.11160748971339347
0.11110274980783572
-0.030789719684619132
-0.0656080590814379
-0.013381787328142991
0.021879254454769258
-0.04473546870448293
0.07940320340451094
0.12590918187554057
-0.03899218658354547
-0.046959708861808544
-0.03137181516548745
-0.04295086722682959
0.006457461937192916
0.02121514870836545
0.029648679802021856
-0.015378568794348683
-0.025106843953332035
0.06142268566003518
0.004994370782578861
0.013597129386306315
-0.0026761799030316446
-0.00821560914138176
0.03196865127349902
0.035953876710795626
0.004998553575445372
0.034894192933309934
0.07861780952862536
-0.0004572505033994364
-0.03967949471718437
-0.011485229775939059
-0.01166683616205867
0.001964307357119444
-0.017038853484911173
-0.14656246857410665
-0.06980812887393788
0.02109256556370433
0.007921508359961098
0.004403141510451596
-0.039183130150265935
-0.017372470454153268
-0.0021923525389964563
-0.0003363182418795986
-0.006653243001093242
0.054611754941402364
-0.011279748964885606
-0.10076003995592064
0.020636917862889678
0.00438619052061059
-0.015182818697200399
-0.015746698738930486
0.014762030174603308
0.03193063153883042
-0.07721432010672115
-0.11017034381405913
0.0250944286085703
0.006279413519406596
-0.012390658026830351
0.0036101198778147013
0.09602074427142082
0.02878877347352698
-0.03923805605697543
0.018214552430026888
0.0366846599289464
0.005445515698072581
-0.019963106900958507
0.007727909974020527
0.038945755274858884
0.009190813053055056
0.021200741343807786
0.019373028167839368
0.041954969759459
0.03321646832181277
0.0013601703049334903
-0.008490610985044408
0.0021582355936198274
0.03018360322279601
-0.04446650875449308
-0.01752742229212028
-0.04763387359052192
0.02724020320413941
-0.008480956188852522
-0.06955786403994914
-0.0075216154732772305
-0.03808528280492874
0.009952989093018363
0.02300749691466065
0.012078903851435301
-0.021628470332793436
0.03130954648269862
-0.0023580006987257876
0.021644846863560704
0.024594060317024505
-0.01862696715433431
0.004287898396635617
0.027021217602018588
-0.015404696079027006
-0.057645970598099394
-0.037638103336527354
-0.02851547828324655
0.009445581708031371
0.013692493409382675
0.028526728781050698
0.0461596738766396
0.10272281050958666
-0.016003560375233605
-0.02530008131686912
-0.009853294358873301
-0.013608302031560049
-0.03277126290953441
0.018419634230089015
0.050852070301984006
-0.0023364117216948276
0.01856620703125059
-0.00659055743941421
-0.005343535811375991
-0.06226220652138294
-0.03199188479872746
0.05714209458587128
0.14236605914195866
-0.11813532687562679
-0.03912139077398058
0.021743676229614747
-0.07256627744240891
-0.008134310860560108
-0.03708430052136547
-0.022574377026966463
0.011128425543748599
-0.014379633367325584
-0.0301371285734972
-0.03166198092150319
-0.032586551053782525
0.1183454716961477
0.04836828397022665
0.012059299979014415
-0.06428550437902918
0.00964202579507454
-0.01663789446419456
0.020934007710787638
0.09624810217923185
-0.09480636752432456
0.012505604547491018
-0.005310238649773949
-0.0008664813908302904
0.038503171362846075
0.01684776138222565
0.004314728314937368
0.07620523724605469
0.024089085639827416
0.009014704173949404
-0.0026337291812204783
-0.03489961523097249
-0.06794747470215677
0.0226996219198661
0.1435600218346145
-0.009761964560845134
0.0013138001038494854
0.017171465905657036
0.032460789081836264
-0.09720442390373023
-0.07125196048868768
-0.007747875006017646
-0.08364509618264254
0.028789215095900773
0.05664248564236034
-0.02244403403466228
-0.057158530212151254
-0.010492171780642117
-0.015879936634640757
0.054166790905632624
0.021862691336687855
0.005214291985517032
0.007564682239605377
0.05634599162598549
0.05303978775618778
0.01601356175940213
-0.02279513809696072
-0.023525603187477564
0.0025447031264071046
-0.007540716535179528
0.004867499750781365
0.025400395782733346
-0.03286726043550478
-0.028189701245418104
0.013025756338354334
0.011881735510545314
0.03468815061704907
0.0005433789082401789
-0.008293424536290797
0.009554733035960345
0.006036444654969205
0.004088082372027972
0.036303871773448154
-0.1766531400853456
-0.02504108896525167
0.0289602201022549
-0.02925348293251354
0.003828861171338052
-0.000664763144952585
-0.021687544199578454
-0.00496227352829037
0.022135911925849787
0.0013516668182372224
0.030531275092532704
0.010576165941251691
-0.005444376971927457
0.008500465064383464
-0.022827208445544075
0.007977219367389817
-0.015543603373959545
0.018231309886700953
-0.08495098771677792
-0.08869405596816246
0.03408103402251018
0.0033521933044526556
0.014832687624054494
-0.016851428992913517
0.09903672336872787
0.11615045506350254
-0.04395594540647115
-0.02241659871308462
0.0008065822354624111
0.027751358490150677
-0.0324885355477358
0.024154799340384045
0.025274757141034616
0.021292380880820125
0.02716298120012229
0.008280407112449059
-0.02475500428540549
0.004086955898738351
0.04077515604635878
0.027996015823560177
-0.06259543323113077
-0.05956573675692551
0.027371453042348597
-0.005533070017457543
-0.030205232981962215
-0.02259301782873873
0.025618012039156122
0.019556543777961215
-0.0385115825667844
-0.05425534941470432
0.02760016107468048
-0.017883624066589724
-0.005657243942832363
-0.0555722811812394
0.09837314697785472
0.06358601899923066
0.013330537830980099
-0.013832888896279705
-0.031795111834294815
0.01341634647580968
-0.0033058865717723114
-0.015439824076825785
0.015888566837531645
-0.010103613810475785
-0.04702467931562787
-0.12275944658020174
-0.04512426598028126
-0.019638258522485266
-0.0032433323608999517
0.026143278450769185
0.037685858991818415
0.03633172442250353
0.013446165995476766
-0.003676690907946002
-0.0018331229323039842
-0.01819778086785299
-0.044272350650453485
-0.013106838416778139
-0.013605991764470665
-0.013681326345033513
0.022095558892630655
-0.007976985312484527
0.034077928695920905
-0.020573129659165187
-0.0037622454305280845
0.018463605653488875
-0.009483648783692077
-0.013870826180246487
-0.021893446583622824
0.03314720255508186
0.04424286513949204
0.21160255424030525
0.10396484541299017
0.0008790387148600323
0.0464647145868227
0.020004841318671668
-0.07267754393124685
-0.089986949174554
0.05195630759030719
0.044267558257524264
-0.00015391281060207963
0.007573463369211427
-0.0005765132032311003
0.017091097581923547
-0.0350791899727039
-0.03202937953078562
0.0011859118089205636
0.004464932772279556
-0.007039870242187145
-0.03778718962604885
-0.017300603251580032
-0.009810757807691592
-0.012659651365295036
-0.05999807808534304
-0.0029934800088642468
-0.003556717751047823
-0.059559858428704135
-0.0014271668292192851
-0.043897949532040355
0.16069811570693984
-0.036794673230037454
-0.06715643494741752
0.024286067618334867
0.002309224309621291
0.02381032797258038
-0.017229315672779553
-0.009693832440727164
-0.016797920060711305
0.013551928866136445
0.03918481233035181
0.014093267646890183
0.00535640227427532
-0.020968154126901676
-0.01676053514143116
0.06139160558667029
-0.040111345235820106
0.05620794667388151
0.07330529117944355
-0.034715207248862325
0.0023489882170779973
0.033347994181758184
-0.049675465990827804
-0.007959395506417331
0.02517342179117193
-0.00251820388648594
-0.00822607797762498
0.013879762089376508
0.0015736573982778241
-0.03380235262942178
0.004810892405959035
-0.044467382617848425
-0.05082819857513042
0.00015768506462939704
-0.0011579616146224915
-0.005042682633455955
-0.004455564354831894
-0.03776501933128845
-0.05188137762044516
0.013003311640661186
0.0019261957907932557
-0.0274192183761424
0.010503953597362186
-0.01074749260675336
-0.07223135953056667
0.003179095576057461
0.05808902723178858
0.1203524107667462
0.04076258369904749
0.0823268974072875
-0.012875209026481186
-0.05340658013968431
-0.002421407037725348
-0.011387968946958388
-0.0034048574530304177
-0.016944698245938836
-0.006082129841198258
-0.019648655583043757
0.03910729635420017
0.032070323196063975
0.014089595383819688
-0.029961038558502563
0.007229177183268773
-0.003207921887751054
-0.013161636500029302
0.021932133228401998
-0.013290729861248202
-0.03215140853269252
-0.032926678257096706
0.029260065226384056
0.00985577353405167
-0.036867739363424225
-0.06758311526903887
-0.027349165529404234
-0.06457312030124958
0.003233264472592815
-0.0037029926249471357
-0.02016653057226047
-0.0042031889882612385
-0.028082702770235748
-0.030855777597518008
0.18368347190089754
0.05936200828773691
-0.11407935654522468
0.013894434577048925
-0.003159909933299628
-0.00831063861516052
-0.011924997317459118
0.03665108148917838
-0.06287922204545704
0.0716707666039121
0.0657106437994165
0.18734850155068852
0.06277244709343084
-0.04656906813205767
-0.022280928659912772
-0.030979027199045404
-0.04929654403987795
-0.016651510641195598
0.050756317579474554
0.034150331084567206
-0.028830631086033558
-0.04924591209350691
0.014052765723816068
0.01157917871361677
0.015848897245984414
-0.0494122354846892
-0.03983415868846995
-0.027195291838085094
-0.029116810087297423
0.01983395938364182
-0.016387433947207583
-0.009691173327543446
-0.009617657939228008
-0.02444933237023856
0.06504719646393148
0.07449938960505521
-0.013659349857892897
-0.04285002072892543
0.08272424472746835
0.10734908454447455
-0.055827183104318265
0.0028675694327990526
-0.008509533513296724
0.011757990700600612
-0.04037470324593126
-0.013503222278004531
-0.0037140633523844585
0.0019075749718228735
-0.032403219969294204
-0.04657182707740085
-0.009566616133713412
-0.03485541937498656
-0.016089869967059633
-0.013074217490470622
-0.026208051531808788
0.026889769511157156
0.00016559097781276892
0.0960541166980781
0.06172110693242068
-0.03249838397880548
0.004059577611285868
0.0122622921066073
0.0022726876678158645
-0.035326991255289965
-0.04998162450643922
-0.01728424653367303
-0.008366790282963266
-0.01521522714003586
-0.03150851636856526
0.06731385172820106
0.009991437542237348
0.03232915259560615
0.03941145771111507
-0.030031235871295005
-0.026498248974068196
0.06166281805360185
0.04501484615224241
-0.04218895076681211
0.008728369922084015
0.006305534092611718
-0.026135404219884112
0.016365785286304776
-0.021909434424585098
-0.05173790315226026
0.03547819603034172
-0.01557510190631775
-0.04201107824985343
-0.0017568943026082477
-0.01720527997272092
0.00827161356211297
0.03296698580786108
0.002481106360564686
-0.018881661159898835
-0.05112968939164278
-0.003241637813026186
0.022185580716606958
0.014176798143979317
0.03136318192511704
0.011168134229208785
0.028256229800941966
-0.005048306274837767
0.002859924515651
-0.03234380781231386
0.030371000050318515
0.010712169128995763
-0.020210986978699653
-0.02054589296067242
-0.02156293106625681
-0.021143871952651067
-0.013725105669687345
-0.02855076874413228
0.022551866220503265
0.013257031040078042
-0.028591145748066767
0.022128844430960373
0.030714937759842947
0.0059871022477943825
-0.00578696533316921
-0.16392438183373742
-0.022531269766934543
0.03306002784627767
0.08920265389572876
-0.02775981638162115
0.05283294062062165
0.04770078115260958
0.04066499532309596
0.07158832131234881
-0.008537648588533718
-0.009913482524356462
0.023612467767737108
0.005976450322420632
-0.01977603283111567
0.007862860648270312
0.04837415844201307
-0.002830936300829131
-0.04031311641024086
-0.027794637302838307
-0.01015154922549115
0.014169011292002242
-0.01236630738439818
-0.004818427223705976
-0.04333330699854443
-0.026720245487758705
-0.020940515634587206
-0.0371027273092757
0.0013966814524300102
-0.017406393439544185
-0.0057447844847326075
-0.029387765887756618
0.023493328829815124
-0.04248356695272532
-0.057661058188434214
0.014746000441042432
-0.012852449871785165
0.0503023646512759
0.021518584587515852
-0.005466588567425537
0.019184325341211957
0.0018594173405965147
-0.013450543818439667
-0.0008238935911702315
0.08480570174391895
0.13747038103189932
0.00012779433528175007
0.0058267399214484246
0.0660825616476164
-0.0055542921001384
0.041916280327140384
-0.00032505680618349675
0.02076102311994783
-0.08370711128333519
-0.044206351686651366
0.05148001199793838
-0.051774721706432464
-0.009067484408420512
-0.011599915222794743
-0.02280204454194538
-0.004024642433641135
-0.038729698640361285
0.0047484315047501835
-0.019942239032114294
0.014618585396241194
0.033178468391162036
-0.0457337964507386
-0.04707201096314801
-0.008919699636224245
-0.023851412296502932
-0.014255561400858808
0.023888205354647016
0.008670945062712586
-0.034380014806370734
0.012663550123886301
0.007746688761016765
-0.0011207721530000338
0.007221060701743283
0.043722496455110824
0.016088131409513786
0.05460917943202042
0.10306158136517983
-0.005412571724652819
-0.004515683638409845
0.047453638964000996
-0.02908179441114384
-0.2374021918968613
0.029935238916226226
0.02844052735656753
0.03056934680044837
0.013427695017713029
-0.01434816068378288
-0.046636915034075695
-0.009420118274906781
0.015791170542307633
0.00013630712091409306
-0.01041002226405896
-0.02458620831589318
-0.017845864812954627
-0.006415686624650299
-0.008601823201181915
-0.013618490976905463
0.03258872119977662
-0.010764230656789888
-0.029217260033476244
0.05852186448419907
-0.017450601423854777
-0.02371308268268448
-0.03132155925840168
0.07051310510203
0.08408478752446893
0.03161497415062328
0.044903912850401045
-0.014735572270020154
-0.01906465916734643
-0.01477680710298102
-0.012309603181143143
-0.015090866754479824
0.011043147803701543
-0.011168571432128628
0.0266178417246617
0.011163169000264293
0.010574275004465708
0.004657932585527715
0.005842996721895979
0.0035355833072611667
-0.071475009685638
-0.013348292385912565
0.022394963626529433
-0.01930374059188459
0.013178501022743982
0.013636059630871276
0.002487542211568161
-0.027875825325292824
-0.04823093668921625
-0.016583643940007442
0.025077999169691334
0.012721841150941366
0.0024549560417259386
-0.002725204602468209
-0.019509860978253916
-0.017043968930607424
0.020543872173777886
0.009512476016301341
0.056256324244081064
-0.008937177505707175
-0.00031849986535521053
-0.04121020668620227
0.0017004538560812035
0.006998844423808274
-0.002614119325959349
-0.0017371501569255542
-0.030400869960796013
-0.06992347780017741
0.04819453240341937
-0.002219011479808477
0.06501029322442932
0.002803736685846108
-0.0073940462414322766
-0.022434593827442374
0.019854588701041183
-0.059655993709766084
0.15214176265811102
0.1081979059538075
-0.06793717161602061
0.0925377642722283
-0.007516582075844748
-0.0963658501064451
-0.13638066425057027
0.04829846112709726
-3.518661600436078e-05
-0.00815069597977318
-0.03087944618562426
-0.06723626602171859
-0.022399638540352446
0.03717362043359318
0.047060474259418644
-0.0012581739426826264
-0.009415588792489068
0.005726671819932741
-0.017533989038472943
-0.0010536528166171738
-0.002873682261547733
0.015390583288742208
-0.0032692000310435157
0.012970940631497408
0.0056732152855895985
-0.03775405705511784
-0.034386880698232536
0.005740743574813931
0.05244862511101598
-0.01959509701840275
-0.006035110799216326
-0.04612718448012714
0.1365287927629534
0.07241658973705616
-0.04955640081419736
0.05609422482157594
-0.025891263470372572
-0.02646477511583145
-0.03191229401376601
0.0768509987711681
-0.005225231015996245
-0.0018355967484749275
-0.01924708398893611
-0.01641626349031048
-0.0041585134830873375
-0.028559124808711013
-0.02082741784691665
0.032252331138146274
0.015910191150005627
0.028141353970539667
0.0275872747998767
0.00636111385896513
-0.010400343483747012
-0.012183146815104056
-0.03995659987141226
-0.013996887234200438
-0.0438527187797398
0.017794297627488184
0.0064476295237148274
-0.02219131759070902
-0.05988544146027813
-0.021639145672964707
-0.0024341027540230498
0.024092432405313155
0.0056358672832642395
0.0359472162725563
0.06027263529707445
0.012919828650076019
-0.01710106554323361
-0.008325876426516896
-0.01678402566025995
0.02502798925546602
0.031231313705639124
-0.032796469242185246
0.01690558002038184
-0.01762157558930772
-0.025865094635971836
-0.025127976869779415
-0.015736171096294636
-0.028092368926609348
-0.01869416525560194
-0.020112437890304598
-0.0262268034714319
-0.016906581838241386
-0.025505593199444395
-0.018805924491956748
-0.014261626604454016
-0.009281321745673064
-0.0008192557276491897
-0.017375965319290258
-0.01748270839503975
0.05483298434930014
0.02428269578417648
0.015414171533577116
0.00016786639758015675
0.025956837689406865
0.06081821107372884
-0.03412301612265616
-0.04870605388598005
0.0008212645843508683
0.01342930021911546
-0.019589554245608973
0.17568744389316937
-0.01669740841309092
-0.04964026679798573
0.039751579440142626
0.0059319084715761744
-0.009570047784335841
-0.017783665520001702
-0.019990230056054964
0.20534826349975838
0.10275573961318181
-0.017010716746292343
0.009380777562713858
-0.0056449164201614445
0.024491318590413622
0.02610157860648235
0.03315755577830289
0.022949472979510735
-0.04100719718173685
-0.1232264090042786
0.003530501496315357
0.0016949463614136702
-0.01526626158583959
-0.027939583111822746
0.02693933891770926
-0.03378306888266194
-0.018299335924837394
-0.013280254444265227
-0.003763459387476086
-0.017557350998011062
0.0014203028071813329
-0.003802087633413061
0.000465890448512866
0.0224667805752109
-0.1036296609375112
-0.053463199494183204
0.009395299711691889
0.028458203087439918
0.041115567029354386
-0.0019002086937258908
-0.014530199245843844
-0.017487424643838064
-0.012489679297598831
-0.06616601233328567
0.003940294607143011
0.0017651705156039492
0.01480402051604179
-0.018600769383801678
-0.018779026861065185
0.025939077090740593
-0.019265127479344026
0.027042811216876735
0.015154168059771166
-0.06793452957024355
0.03099189225114485
0.007095363046236645
-0.018630824794405608
0.010062157914708308
0.016294066705479376
-0.005772100460742454
-0.009111047160168079
0.00714463766588413
-0.005586064396321785
0.02354675337183214
0.012968907837829615
-0.006369301719738544
-0.027557583565316356
-0.0013365359044337415
-0.03458769456274381
0.020137366401157118
0.05086073438673009
0.012421277330807454
0.008236181344542966
-0.024820381821269694
-0.06900873303583942
0.02971951692969891
0.063861546780075
-0.0031345210384483278
-0.005529504269376312
-0.01896581950141162
-0.0013192815450474788
-0.02436242108872388
-0.013069851765262803
-0.013699648904956507
0.011602757074100115
-0.01708251331101525
0.004938158926111148
0.06518966467887595
-0.022349485851377103
-0.004857102312756809
-0.009474660171017777
0.010183380811297197
0.001953479949920334
0.02213369968968228
-0.0474811333129406
0.08406503045174475
0.1485785074508059
-0.018253316064176628
0.04340237230772208
-0.0443933431554143
0.019858881717492498
0.02780880618678673
-0.006206806800129847
0.01593247759184019
0.014087566416435061
-0.045983355890569705
-0.0002801826712225922
-0.0035967305220801315
0.0016398665653457663
-0.014737295054677108
-0.004301404140142646
-0.03261301731687251
-0.01835478963007689
0.011289121144752829
-0.0025480266303147016
-0.014706130242218885
-0.024027124206747828
0.020600064135971097
-0.059830409012829336
-0.06484493308122438
0.009941611734160518
-0.005308710185069808
-0.02020925235008273
-0.05207372480837246
-0.0013435752476980418
0.004318787816223904
0.030327804860274244
-0.049502645208247195
-0.021147007698952728
0.0421537252976669
0.024169040593999543
-0.03412585267561674
0.034731725913557575
0.15421566539304182
-0.0094427451173568
-0.019937052841568548
-0.02173324301462946
-0.039428516057962465
-0.017698620270246896
0.036078153298029006
0.006021791191107748
-0.020685417777055504
0.0016484146008832149
-0.020797136625136804
-0.01941062310363833
-0.030529294486019383
0.01305623273718203
0.021598385575953734
0.008281232416019689
0.0025399892997365263
-0.02060117887452018
0.03342408681245135
-0.017896734607273496
-0.0394520259711065
-0.009162098213281514
-0.012291339815844158
0.002884802248388415
-0.054759305998375495
-0.01790753432888815
0.013763263927611069
0.01692003275246107
0.06333465658612468
0.006492979817927889
0.11233892481384554
0.17702792086025312
-0.027135306481230186
0.02282275881937607
-0.028206264022878878
0.033403123189230395
0.012686264323688481
-0.013397473932228869
0.019132288470560515
0.007223597357251593
-0.07193321108711273
-0.028473139363533663
-0.027454907078251923
-0.016504724804774527
-0.011761818520436076
-0.02594275891052822
-0.025238833551878996
-0.005705036450853228
-0.03246361044345116
0.02810473719675462
-0.004542951778694831
-0.008522862538850734
0.019317658613276896
-0.00022826210195055931
0.04110820686663401
-0.010906008108955114
-0.023579401685332117
-0.026994138885236652
-0.007285015807656081
-0.03239097027890724
0.11349644033463042
0.04343321233614525
-0.040443277326009996
0.04030567458970306
0.03276502168721032
0.0007177248293629214
0.002481087044943776
-0.017436727069687963
0.00567949274765466
-0.054265193612737336
-0.07685739739989171
-0.016690654577261516
0.04236593992248018
0.010417513103678422
-0.010231396029473304
-0.044673534794183935
-0.17067516340646588
-0.05190431594876501
-0.04216472835218668
-0.018791443579283123
0.007026454860596919
0.109330920329319
0.0193248200836066
0.04329926966617759
-0.012258343219854603
-0.043936108011682885
0.017876764816584022
0.025858185187509947
-0.001472335073571974
0.023732625730219475
0.014588153950649196
0.03318683549652356
0.02124936823895254
-0.0027245897385982437
0.019888236710953792
0.010475331639137254
-0.00891029903881888
0.0016778770931488774
0.025446060818838098
0.06646420908909678
-0.01002871188520008
0.048461117824759474
0.1082476926212079
-0.0329452111512799
-0.03350627947931309
0.006791659439748592
-0.01734880356091844
-0.018155012328291722
0.047269354292536446
0.026879166545032595
-0.14668320122460118
-0.016465118761904197
0.07271867985453313
-0.019978522528143798
-0.0015580016326132973
-0.0060928753741468535
0.0481200173483722
0.04545095208033961
-0.019957558232296717
-0.14895216418215673
-0.0715952678258409
0.04183775458672912
0.008652047113051942
0.0009621661247041126
0.0025642658033245545
0.012406663808228614
-0.0300785079987922
-0.020801932977775616
-0.08943079326643825
-0.0004206230107936672
0.014287567744055272
0.006929006513406868
0.021883307594470925
-0.011792480941173512
0.06712941393648564
-0.008207622500515679
-0.009730221509138375
-0.016256731233942997
0.005543192015821028
-0.01718432401590438
-0.008992255588997852
-0.02685992512981922
0.0037609480185038886
-0.002198969617369349
0.011991696333765716
0.02492985355580932
0.08513403918508401
-0.021853262380550357
-0.019371511333951954
0.0215837167359667
0.028618269265046976
0.028722123033864365
-0.025479920055778215
-0.05762632866389816
0.005642310803521875
0.014352755187648374
-0.0052461677254731645
-0.013375300861776537
0.011787868346550791
0.012982693767644547
0.0441617801226759
-0.01086787072476904
0.018587045453300564
0.018059977124346097
0.0019462843782196888
-0.018386725851065416
-0.019826054007493557
-0.0012110869150594407
0.0031534481011361187
0.030807788349306222
-0.020654226663018083
-0.015312816738534763
0.0005939645604737681
0.02357247243499269
0.005455583529835403
-0.011455043564155724
-0.0015791436700944483
-0.0426469824526432
-0.005752735175928688
-0.007171296942262029
0.011191310064316208
0.029376758124324408
0.0008840344417731336
-0.010031076896536695
-0.016224722261038705
-0.03092094710566416
0.04340246891472261
0.03666557721044547
0.013057123956294794
-0.07053181870878478
-0.06122283550742191
0.023623571648353006
-0.03722737401842216
0.01657306514133699
-0.006426223825174096
0.02109425866597504
0.0035906065850454644
-0.10213536403665327
-0.033849227651888684
0.020512727923416865
0.05362807007930385
0.11022502130905676
0.18986044638296432
0.01270773834503309
-0.07029717157483158
0.030694905601902026
0.003617457971396422
-0.04602580421715832
-0.014721189482927804
0.010809689090059995
-0.043795177624086065
-0.029018409123366323
-0.020821514247431106
-0.003285001208992526
-0.01516539049961264
0.01779574083289929
-0.0032916432657404916
0.11930783145101066
0.11432916127955509
-0.08115564073086054
-0.037295079867721875
-0.02057808840897036
-0.04965480944821769
-0.006770850709706646
-0.05654103061970611
-0.05217132304652818
0.031141947189679157
0.06225156812873863
-0.000985102115507149
-0.00616924703951093
-0.01931499417389766
-0.03638126800867835
0.031883108652431574
0.014561343199348561
0.022054766900310732
-0.00985926352139164
-0.06147714431232347
-0.03783287217501194
-0.018329283015901608
-0.05429575325248907
-0.0006289105469885675
-0.026916365605055306
0.03152520819595442
0.08922529221049566
-0.01452272021430431
-0.039754099683507245
-0.011131644328124463
-0.02066487593837074
