0
-0.0266087889151222
-0.00870454171849361
-0.006373889672647308
0.028832757573040216
-0.016800714734270403
0.010627398535370975
0.020752316820584562
-0.012560706786193128
0.02117146550471107
0.03146145507096136
0.048065496501599796
-0.0280404415358325
-0.033614271679167314
0.05229617637352766
0.024575825845578908
-0.016983315957542492
-0.010754794111143282
-0.0015659021712515558
-0.06449646701984747
-0.05768240150997554
-0.003923313740975333
-0.030389045311895378
-0.043517995515403717
-0.0005443236943497058
-0.01511345419545648
-0.033655062386519746
-0.02091122289276299
-0.017483736265050093
-0.025192543054979404
0.04381737301820249
-0.033240919095042835
-0.016445340704741265
-0.029260441907361847
0.09805594085629217
0.068607455657259
-0.010734208637783365
0.09647045802101108
0.020101126842821587
-0.005853622771095463
-0.02511376562520701
0.08714930906050755
0.06129900668959805
-0.013863445454253269
0.077913312642805
0.1261686480963403
0.05936414588008113
-0.030199451947292656
0.012721232968163835
0.1536370144976306
-0.005512669775329019
-0.004027570855860985
-0.0014183801447178073
-0.023543029039934788
-0.020904871462339318
-0.052846399787358084
-0.04269296099248427
-0.02209416811232283
-0.04780794898588086
-0.03277299605098331
-0.027839269762928477
-0.02251726448348492
-0.019374293468657648
0.011789968513027098
0.014530172282844476
-0.09575611003576008
-0.08847330772967134
0.028378516311600932
0.005938876340292732
0.03914272112830512
-0.007431866905865105
0.035076449222160064
0.016144328749070975
0.02315541184958446
0.0045738645252208264
-0.0016163099040711062
-0.004260555563595685
-0.0022027020163540734
0.028059403557815846
0.013796685331570384
-0.021762717604621635
0.02020137208226002
-0.010663338179640037
-0.018370898913817272
-0.01682342999724408
0.0025319518979523264
0.001649304112450673
-0.022652813873073184
0.09582258806771479
0.12836467072071772
-0.1663027026065361
-0.012750261977186665
0.0165848531818682
-0.05059285514495803
-0.03240647324578899
-0.011510831092623694
-6.056107757321425e-05
0.02085857229916938
0.0048041918628158415
-0.03077819200665914
-0.0176222013572911
0.029771232229313823
-0.06912558657857837
-0.0280022299600405
-0.00037063763130508573
0.017935714403856457
-9.872917736342871e-05
0.018129324769009733
-0.022820815568995526
-0.005250638399248519
-0.03858192851154539
0.008415221290360562
0.019811305810414046
-0.02615117354112892
-0.03016922586529866
-0.012744993698817134
-0.016115497467782746
-0.01830563485574807
0.003005425272181264
-0.0009455101135650477
-0.01782531557359818
0.031155170273578458
-0.002853235751596568
-0.0030004448954693464
0.0326450016240536
0.02277794266167956
0.005514049284911264
-0.015684600286218407
-0.016333409090432998
-0.02340001181138628
-0.01891711603813292
-0.01503258774565932
0.012433862304319601
0.030560942651639684
0.043761222083130456
-0.021748658985324368
-0.030214918289763477
-0.007496176945695839
-0.0066935248206599985
0.014104461705091881
0.07401630056929781
0.14012367984200197
-0.012595650160985744
0.00755225555026165
-0.013488126681403988
0.07242757294962103
-0.0376634203527907
0.28711794244198297
0.17745181438769125
-0.06010987375264379
0.0014099778522028564
0.0167919803116092
0.008660828481863668
0.008156959407932741
-0.1369095409946941
-0.1189148708416441
0.03248523593216861
-0.19411972070090358
-0.04409374391385013
-0.008886475317880494
-0.039507311466386405
-0.012905257907989022
0.015025789534295949
0.023716573281916804
-0.019086690975078043
-0.00974104623666635
-0.045015745379880914
-0.07947046805687286
-0.0035450870503298077
0.004267550795892434
-0.006120286590794972
0.013894475163529414
-0.02699757983757478
0.0164906992690521
-0.0680675301365707
-0.06311365236219164
0.027229923355430202
0.056823160466012775
0.03644223213433515
0.12686008646387623
0.09387903931814887
-0.025147556607333036
0.0032171610270396132
-0.006596195121037942
-0.001673224422509653
-0.015195169292561449
0.0008330355097626574
0.038291112557647625
0.024424868093505064
-0.038829014382433615
-0.026210014261932306
0.01689945349519842
-0.004961560312362808
0.04053708976266799
-0.014809911246586205
0.007112715541335043
0.025376672763072587
0.12010688597404175
-0.06995559250322063
-0.18136710791343755
0.03916665832361288
0.013432408930388665
-0.08339920450258789
-0.06540643113882286
0.023958103712171164
-0.01532931785055457
0.00685250816507756
-0.05490354800196258
0.02580726190800219
-0.017427315523536546
0.06346626648072298
0.03069398528856082
0.02553773601829409
-0.022443438624419804
0.18192377107576133
0.028881022167653266
-0.012276052396786119
0.0292848443046623
-0.0609890794409035
0.017247139536691273
0.04450879601854122
-0.0038655147343619302
-0.02307977104676829
-0.13715141134029005
0.014049837444553067
0.008852347074980121
-0.0060553823808366415
-0.003510389166702212
-0.004284975572126304
-0.012975887327724603
0.005381277891544793
0.03233274249885718
0.07053833846654138
0.007994479664706506
0.030132393670189196
0.018783021128611594
-0.044368993158595944
-0.00046878303880831264
-0.012124386452286773
-0.013811209523304162
0.0020909187374471816
0.0009165941101657364
0.025559079761525803
0.01869699266341968
-0.052402636926646255
-0.0308724774188179
0.026165710139767054
-0.013225864881287564
-0.010133704187505485
-0.0131345029441052
-0.016635573542023184
0.0038231824456538216
0.042203500372574934
0.012493551569218473
-0.10099224290655925
-0.0768930980735427
0.0362545244320012
-0.0026809778929763267
0.01812923876192373
0.02918170481822478
-0.017483116325966164
0.009767576839900559
0.02546025759976431
-0.023768453283403473
-0.014995250489335539
-0.13070936562102012
-0.04175657835668053
0.007303228753800075
0.005299232597093334
-0.018473954997080436
-0.022313335466802333
-0.000882420727633264
-0.006383343762522336
-0.06456278570019906
0.0012778139523927704
0.0893404505797532
0.04722884333874489
0.03283023605448376
0.05618848403445805
0.04222608233084832
0.041195458953176015
0.007769392964657286
-0.015994980109666435
0.02650719372117095
0.016013246091079174
-0.0077333134781346685
-0.02286773507169486
-0.034175429841071456
0.011996076577332841
0.048162781438222106
-0.046528314239428666
-0.029585497110023666
-0.039518096407123365
0.006725568247780168
0.03524333022437273
0.003993281548153974
0.008063371052514857
-0.0016617095427844764
0.03204336100956963
-0.03415454918530332
-0.01754440469770219
0.1278847752115799
0.13800658518538786
-0.03810449135819298
0.0051127564517610465
-0.0456419645686872
0.04270251040815956
0.019662198286271193
0.03550841409080676
-0.0313168582503904
-0.020982045041565395
-0.02857133758590436
-0.01699678046135233
-0.08005715765074514
-0.05676930744327703
-0.011504060135450984
-0.019576786643042375
0.027112715303316357
-0.006733718998762489
0.0026677870919159033
0.010998144430439437
0.0172896298432073
-0.03827225890861121
-0.05374409912799785
-0.026476417514550835
0.006881112880543698
0.04924464295231384
-0.004156701091997248
-0.030388693165620716
-0.02047556508402589
0.021597423772787585
-0.01549709551790026
0.005224746616012472
-0.029644562053089085
0.09085793539462532
0.10897911564236559
-0.01908384489022959
0.02553659118755105
0.01522320516849323
-0.042490069003542054
-0.01873958233582384
-0.017134870952975934
-0.02332771571291643
-0.014788138462299105
0.026617583192599246
0.029832784195890968
-0.005600505759208087
0.004991034845840619
0.010456910204081031
-0.014747030783491426
-0.0004124222177828939
-0.024821627720912953
0.0058444839918927495
0.014080489588736339
0.014055254301346666
0.013118298767569111
0.03646683726576207
-0.0397493029430734
-0.02182595257374709
-0.05071672012080062
-0.010338259425047357
0.006259635998069022
0.059250426661242084
0.03731971094495535
-0.05640228461781062
-0.0597220796437624
0.055944328055793184
-0.04046221488671648
-0.038143632412530874
-0.032046663209075565
0.06945362864107879
0.09361210618802794
-0.01610568842000453
0.025225410938637834
-0.031909841175473734
-0.04494740692736335
-0.0253103114941698
0.042708947507696944
0.03497336110056677
-0.03649071921371057
-0.01501447370497611
0.015764544731701653
-0.0485666673826701
0.004456125016565784
0.030503551238899817
-0.008009572350649067
-0.010692181260204235
0.0008096073843190404
-0.012580964267385938
0.029355172267102145
-0.0012899011259974286
-0.01577991880537951
0.0008024098371972917
-0.016875591027333728
-0.02869409924987266
0.014405383542160593
-0.009441897602036666
0.04358604305794606
0.016929427451627493
-0.0322429863385514
0.006745080772128622
0.03132159918456729
-0.005444011662548072
0.002855222339616059
-0.007430963862069687
-0.09949643801536491
-0.06560844069329355
0.0037462947374739485
0.1231842143486629
0.025588596360439496
-0.012933149438470388
0.0156545338356314
-0.019154834965173922
0.055121293743512254
0.06336067887616025
-0.007804091067269817
-0.05031282679237241
-0.030154956729686183
-0.03009323372293246
-0.010786313269981022
-0.01003523275800417
-0.03112649847312002
-0.007649242111509156
-0.019935739738454424
0.002083839130384667
-0.04821032898566783
-0.016891100878548105
0.004780386395469216
0.18905957058820172
-0.009593681700883533
-0.016327463121384708
0.027476350136789274
0.005521491749401128
0.061579047792393656
0.024515866137617935
0.017744667613342542
-0.04318163551682105
0.002208466426587337
-0.1592465035002552
-0.06670900920269696
0.012960806726005119
0.03183423760726524
0.012814694311606117
-0.02855905434503263
-0.030136652842183465
-0.03494055264203613
0.019762575881935893
0.013286770470751537
0.14580854352857053
0.0737483095458489
0.018419859073592684
0.028112652681849416
0.007423755483103256
-0.024873453482759714
0.005044927545397714
0.02411745564113936
-0.020887659999262616
-0.04561197068658657
0.004874984710829179
0.01608262208226479
-0.005303528370963846
-0.0378831825101858
-0.03238874812160632
-0.01464445663933724
0.06412366161598816
0.06063797217365389
0.009146622895336808
0.074568752204555
-0.09027924751622665
-0.12746271374876333
0.02068807812386597
0.04160527086994662
0.024712599089878412
-0.010522550160749891
-0.011542829343168286
0.0006944694435397154
-0.0009007560380947096
0.00709874604448722
0.011566254601297461
-0.017854581920593134
-0.030391007688366736
0.05127738517542579
-0.05557030455590869
-0.06558920137203275
0.07419100930916883
-0.0011351123049093991
-0.012207101242491792
0.038673120377915
0.02441498169746823
-0.021970594306070724
-0.0015042511245035594
-0.19356022405513132
-0.03977314931501822
0.03189134464154698
0.028576156249391534
0.02210731081815862
-0.02530420572226074
0.030716900314172627
-0.012454617344696462
0.13580033500272434
0.0348577670082121
-0.025935553975178587
0.00023259407475763617
-0.023715204407587738
0.03949480190532171
0.0028781814301813095
0.04364425842472422
-0.009470357636510052
-0.010657803294644448
-0.01080776201432325
-0.004641551308707293
-0.03248602489717732
-0.02079399387693304
-0.051740260611725736
0.004171935782342803
0.004282307213133972
0.007063285550182269
-0.09132586365388627
-0.01544278753424254
0.00833603359664643
-0.007522874181022111
-0.021355031841662226
0.038109067518982694
0.03169078054744881
0.04140990439383179
-0.024132283566518118
-0.020485164160828687
-0.11195236135171738
-0.04591917538820751
0.03642736386335617
0.060074227786724325
0.11178198632163386
-0.10295210360653861
-0.06130003564082393
-0.02592446445342667
-0.013171837010096187
0.0020385316372669425
-0.020726890205998168
0.012972589308091918
-0.026631534814326473
0.051757751342591
0.05264564951421604
0.035675084424475215
0.07865502153444565
0.06642826555773577
0.05045656311643063
-0.06275787768400809
0.051655800778747055
-0.013619602324894065
-0.04094744471160032
-0.00011836583469777242
0.047658184362742155
0.0032753474486006766
-0.004828119501319577
-0.03049357691388289
-0.021857532779065988
-0.043562493854971296
0.050541861882593755
0.006166886556094854
-0.030943776639127285
0.05825915841948463
0.05122845647159164
-0.022325818250804208
0.013188151417780864
0.04912815699261123
0.0034945486651711487
0.04922899538393177
0.0013647159772848612
-0.07386573699003474
0.013277634194459452
-0.0032507862995511854
-0.02677108114419712
0.011805532989886732
0.0036959565782519253
-0.04399553405443067
0.0065358275927302045
0.012130576764975443
0.05145766226759876
-0.02388679972147474
-0.015779449891030032
-0.025839849133591095
-0.016603148597034975
-0.01599151685923547
0.01200209070289199
-0.02250869074193686
-0.007573017400396085
-0.04704936297364077
0.007460158771886968
-0.019490583001928144
-0.05498445404354638
-0.01612449114342394
0.020729998555072085
0.009367434096888895
0.004921192360905633
0.00867466913481981
0.013649489886021212
-0.023919948711372988
-0.0026664014367474586
-0.0027115454698042394
0.0104889640472406
-0.013788430697401648
0.07225186169260686
-0.004303089186931662
-0.0012774772713795564
0.013460750612614083
-0.0032587883940019286
-0.017730737995170668
0.004233520928770277
0.009843227285848057
0.0013843235558240673
0.010995150739257994
0.05232016127073234
-0.018004935325877876
-0.031942262667092804
-0.029948696129495543
-0.03728581539269862
-0.022472233897461974
0.017190589370699887
-0.012864358960409909
0.06583275265783105
-0.01979022317822358
-0.08371461336268977
0.011939835668960999
0.0315766507549295
-0.04534959176102153
0.04207148667935115
0.040239884363302794
0.027388024215936026
0.024829256792552035
0.0004694035040087015
0.005414350117814438
0.03493754769099198
0.019593988385511244
-0.028594729351888802
-0.0020731682144170724
0.012035803069341603
0.014032442129103715
-0.009402031175923548
-0.031211191869154473
-0.04889270218843514
0.009454856005081409
0.026722536206756544
0.06691397728653344
0.04801861547950064
0.01805464947689997
0.029457108357045167
-0.10974742090513946
-0.08598090562393712
0.08156570805361521
0.011654001713674986
0.08191218285210042
-0.06311253562147424
-0.09633351761922802
0.05433365635672081
0.011443450592604511
-0.012739611912490734
-0.07639281699704031
0.03577474135700949
0.10992337657835978
0.05702016742693666
-0.021314526925293776
0.016837741757064092
0.023067420593112176
0.025113701694316915
-0.047032871814049956
0.015154593963022482
-0.0048916734238558515
0.05810542571953885
-0.14790936166123908
-0.09867651622184812
0.049817738058322694
-0.0029512301215001116
0.028816633932628892
-0.07876855471070178
-0.1596403995170346
-0.016401636013125734
0.027696430525156177
0.07526631948278874
-0.014450473128282891
0.012368835895289854
0.023142821608691477
0.0007916125148952122
0.028887804929555456
-0.0026931510316493402
-0.003665138743970941
0.06602745922812585
-0.009375941958455133
-0.19049464790392923
0.007283867024503965
-0.012873587495828733
-0.015434048073741598
0.013261207777385424
-0.02033220266607411
-0.03829320193426845
0.024579955893336277
0.001843965638766473
-0.01839873207311599
-0.028234809235046343
-0.061190024595747024
-0.018312155749465573
-0.003698852738046569
0.017399699951756296
0.007989248464897273
0.20447185325261266
-0.01692807107522786
0.003238847803188215
0.02929392364837831
0.03184331351060042
0.034097175827779165
0.06814436894749136
0.05546896380133307
-0.004154086208088083
0.0005423578291220425
-0.017387252944807374
0.012766638287901356
0.0015223780014370317
-0.00213751640892431
-0.00018098142393590294
0.007545374510089434
-0.006637125142020747
-0.003380511111513266
0.06822601773352097
-0.0219805114474746
-0.05822764469710625
-0.0016397291787297005
0.00836000250220345
-0.01776191541976707
-0.000444150019920813
-0.10277156816558178
-0.10946880608084711
0.08163940492666681
0.040057319022052444
-0.006016563812622693
-0.01337123286428962
-0.035311585429156495
0.07751579169052343
0.11100442102437622
-0.001688672801429886
-0.028957356710813224
0.005676421608279234
0.047730612626601096
-0.01143682058240917
0.019022554493928315
0.02841216620059302
0.0104511166184215
0.004512150535337094
-0.014446392479514545
-0.008214206472563986
-0.037837496985728095
0.008908059856766399
-0.03150647226217976
-0.05013477787075228
-0.012381412477517879
0.0013887345413304295
-0.001371832638987217
0.005517128433392424
0.00695631474495045
-0.08745622445672906
-0.010427467189573164
-0.020704770669205567
0.013742957170840812
0.0021700105373001558
-0.06968977292311541
-0.04998079309483835
-0.010151047362586211
-0.030861274911546055
-0.0010421995509668526
-0.016454922871210594
-0.01102235040353836
-0.021959146053866667
0.032867720241009715
0.13306241033309998
0.05736936219883139
0.019464443817139934
-0.03836146618293521
0.012648605475032501
0.01377857321984706
0.010475235544090054
-0.008445642048396432
-0.018982519670252232
0.021468263037679763
0.0002947552315826313
0.03685136141718239
0.013685325529243451
-0.025784872775651075
-0.03659141036719332
0.0006287660995603054
0.00683162809728941
0.046598342595621796
0.0762260023214922
-0.004658791145258093
-0.018819514185033054
0.013537043593819839
0.005830616559250272
-0.020341105434138137
-0.005763403352047072
0.00011281531594464266
-0.0015353625288473081
-0.014551159906111931
0.03238750415784298
-0.005630735327629107
0.011595442616800355
0.005415780878633445
0.0011606668536438478
-0.009089179940302661
0.024389355653901587
-0.03321198026996445
-0.005519981896272447
0.015057720040873508
0.01478400752401871
-0.037790604907477675
0.010462852036710449
0.0041778068054836625
-0.006257685430218553
-0.01958201045049697
0.011487710980570078
-0.02812879367574866
-0.017342142151018345
-0.1182398087119837
-0.013952276151875843
0.07279636694961363
0.008199905911389156
0.027706080357862817
0.02738153487245474
0.0071211300941935824
0.0005472817353245253
-0.021213530300130946
-0.06186303998654156
-0.025045582652376
0.017766000147574592
0.08977797953046922
0.014465132356914493
-0.014563109262514761
0.00048621361995175984
0.027507408534214774
-0.013605053787438913
-0.02673817145419771
0.03613827589912696
-0.08756558910081672
-0.043142529887560545
0.03064166708392355
0.0016196211574726039
0.02887098950981135
0.021957821628814638
-0.005475196381092318
0.0023524921338451497
-0.00525088307836244
0.025360503866063734
0.005138709447830127
0.018016896676522922
0.0009936531422961518
-0.013926000465964808
0.030191032227762087
0.019766484067400666
-0.038259344221217635
-0.04740644393658874
-0.08874426802579224
0.003996398372885504
-0.005740373372270183
0.0329839045692194
0.11335227408057776
-0.016764983801302872
-0.026522071284107863
-0.01105309924654134
-0.01668817201385698
-0.006445728147378308
0.0015766465680283918
0.0016167277955442976
0.013728563270024825
0.00867820490361706
-0.020289485792570783
0.0014411260022123397
0.006605368625206106
0.00786485914386939
0.008330523929729832
0.02473020916189796
-0.01651764265831641
0.0952651117910746
-0.10854293371696468
-0.11865652013028427
0.047416655473432635
0.02124692464499805
-0.047670223036762355
0.057132488957715624
-0.0026074200093562845
-0.05718925085787336
-0.0033004461174541387
-0.017889302071196083
-0.02104057406589721
0.10458068824310333
0.09040347790177555
0.028012535371628927
0.022997917930213035
-0.038930182082172145
-0.02566031780627984
0.003545501528014247
-0.001933062061654307
-0.021502989839124062
-0.019445058191249073
-0.03142964760183355
0.012261985228393668
0.020125558554038726
0.012600640875557697
0.020410504900036472
-0.015467103657146188
-0.01131567216677997
-0.0010266967137473636
0.030256550234088745
0.05016815408770488
-0.02646342387903503
0.0049075452418532286
0.012567564325523986
-0.03169298150533196
0.015294102707874133
-0.02921607324887491
0.018128175932090415
0.027757032264448585
0.0027930867173706964
-0.018561816817480526
0.037866652139193685
-0.01582623246887327
0.022172199558687603
-0.07762372813499765
-0.12855410030462197
0.06205999218575911
0.03310077004651672
0.038366928395078194
-0.005492434280565729
0.022867876445920553
0.00517550796860123
0.06351297171199201
0.0038221893979798285
-0.05928033404022982
-0.010353167007122317
0.02235090894522035
0.02410198468948486
-0.005121211908256577
-0.04380173671876881
0.040609089509893614
0.012130291260424473
-0.02124134983027538
-0.03869551155277409
-0.0009626154529219324
-0.01788835109433798
-0.03141334722564246
-0.018344595847211535
-0.04917432381384521
-0.06169746501368644
-0.03941626617751558
0.03926707903139563
-0.029156647423579977
0.015269248601064225
0.015470236610053855
0.025440469269307323
0.009955162254374907
-0.03205501715600994
-0.06210985105728769
-0.05592867610299025
0.005550863127265955
2.922578561806609e-05
-0.011665254170492974
0.04984516629644233
0.04454723226289401
0.1518162691047025
0.08771914213308488
-0.04919093083454647
-0.01754181309786864
-0.01149255837578614
0.004803305978592017
-0.025398747641161665
0.017845068311932003
0.010166021595160585
-0.04454473492334968
-0.013196835516394717
0.041817951108799344
0.02283888062100131
0.04830541730958056
-0.005118403904050339
0.06417013027234032
-0.003110407604958078
-0.029439053989878016
-0.0437930575012054
0.001663029077033802
-0.02552473472472738
-0.010984491692488857
-0.012962733633864932
0.07319818444743229
0.0954914459493218
0.00583279315193
0.030068530084704857
-0.014393497065814801
-0.026932969487734413
-0.002256486519639152
-0.033203840080178196
-0.02051644224779169
0.0019036315714396378
0.02733212231603223
-0.006273874341642419
-0.035925101488551096
0.011736603435471936
0.022683242177054655
-0.02320323080805658
0.04025860857710518
0.1235463138164488
-0.06461285212874435
-0.16049148576496405
-0.011327221954819144
0.011394227339760777
0.058289781104470605
0.027145864108880646
-0.16604475044248884
-0.04060535055371146
0.05068523678780919
-0.031295065692944046
0.03216389591856957
0.016886289453018132
0.0008087545386212903
0.03413883123972015
-0.0001001226114641647
-0.02047820554649573
-0.008963681449883609
-0.02489890561491929
-0.06490667532922577
0.02670570362618763
0.018232653143641937
-0.0044687943141712635
0.021849314703968413
0.006784585237108785
-0.04060512832578005
-0.057299685889027924
0.026581188596895185
0.014124095574989679
0.01767784930484329
-0.026908020557439915
-0.07072120982544643
-0.042707227371108915
0.014747896005573963
0.05227223882168212
-0.03167210426409727
-0.023176068865791693
0.011709871552769702
0.08245011069163383
0.04581486559485312
-0.05519496995639907
-0.005065041103699089
-0.023627694489949825
-0.005863136696675601
0.01912603040821048
0.006159704495877775
0.0007342088019642373
-0.01624584406059886
-0.009625835524725011
0.038234885395128336
-0.03764513141650843
0.12374598204573416
0.1132500601623371
-0.015064611071745978
0.11491527420241116
-0.03304834162618801
0.009866252604052878
-0.019548952488433934
-0.04926698281203188
0.0025633824512281797
0.024039362632899408
-0.020541931613724522
-0.013013229979778891
0.002570737968826439
-0.0020330589710174014
-0.04608983336851362
0.00549786395236295
0.022003888610297305
-0.007008219797920937
0.015172104813101965
-0.0017741343685963756
-0.03233508777141572
-0.02056458592641635
0.006631677204264266
0.03550978763754653
-0.013335177280778432
-0.08694974105430836
-0.02538441097281894
0.13150519289349927
0.010990732247022707
-0.028980151087942642
0.016945162399175914
-0.005568791884732347
-0.021532908130044034
-0.02966323585125599
-0.00458807415752341
0.026627642287688394
0.00397488455181071
0.0013103660722451108
-0.021539901769368274
-0.05656094821410443
0.0006585249718507445
0.017877762828199164
-0.038000184533969895
-0.03752853798315825
-0.04312230369257774
0.01310960838735832
-0.0023518965989089693
-0.004566904086319288
-0.004443738212200917
0.0609929474170507
0.07400405327442545
0.03959789463547445
0.02831124973298753
-0.01744920200858053
-0.016558897887690053
0.041498490247673346
-0.0015878841937106629
0.012676176744450087
0.005067356288901075
0.022916752168764463
-0.006197404511850259
0.01171126348923851
0.025836853562816994
0.012638847786108187
-0.018147676224584294
0.015516610791737405
-0.017597103204484498
-0.0022522395237390995
-0.009384311875551712
0.02313984050396928
-0.014363544363534606
0.008421832526595056
-0.1702896881573955
-0.055817139116482485
0.022821689054017474
0.0039047771591112714
-0.003986117372729263
-0.019457531277109006
-0.009213720032346827
0.042178680350047265
0.05180031821813252
0.01442316167123531
0.008174914767845971
0.05466513013748366
-0.10152187363509621
-0.11009926896878698
0.04881935191150774
-0.00580617854850097
-0.007273790714897405
-0.005154437785300894
0.015134188497558652
-0.0050303832940319405
-0.008448111485335965
0.012930148843942566
-0.028523505137697223
-0.03514682241468182
0.047468213220637843
0.01816610484773041
-0.024330315141254413
-0.012117751887571014
0.007551829485201983
-0.018835796910914058
0.008198158085426666
0.03038514046965496
0.017575827693238354
0.023020375456232728
-0.005840500956486472
-0.0003917458512718711
0.00710749280268839
-0.026736024566267752
0.02303433206701977
-0.009340610749919325
-0.001839406619204097
0.03902552006943879
0.020274390326361694
-0.001207935766237195
0.03587676651941843
0.013859559362696885
0.01630358475183188
-0.015488698479921965
-0.021027080811450206
-0.015927013500943762
0.04751925890810637
0.027793504468594046
0.010654903440623392
0.012699591839056758
-0.011917150040941198
0.0013497995415356241
0.015041065022950063
-0.029408853410768605
0.027784104758691246
0.017784479562302353
-0.05900776224776855
-0.03424263133219459
0.002276017400334027
-0.0012714046790346276
0.020325468769856043
0.009620047607122316
0.0012030002724702682
0.014906790823446404
-0.015573804385794567
0.005335615669174328
0.023878393698672003
-0.012897879432693871
0.015213266177597438
0.007577501575985723
-0.02332919395117989
-0.012677856864475704
-0.04698905633931432
-0.07696605026469412
0.006688698126337627
-0.0012391475052306534
-0.030100344376632223
-0.07847776108133225
0.012146880206777804
0.0026932637563428403
-0.0015157565833218889
0.009403693611471186
-0.012534973515545363
0.0043410049686747965
0.04330443247799565
0.023560579112705347
0.054205304187167035
0.02772168857071811
0.06544091817093395
0.03845253409062493
0.0003799855237651179
-0.05709162856791919
0.0474265676359163
0.01639184060133682
0.009310985881805673
-0.03610392420455714
-0.07147486236589955
-0.03465841018419452
-0.004508066337941828
0.00788959870827187
0.010141619228619126
-0.002442481393494263
-0.01594487779508581
-0.012336389778713784
0.011258522697639035
-0.019761672128717014
0.03863245160854604
-0.008849033727904335
-0.013670727072792637
-0.026865282334107066
0.00269318928296804
-0.014304253925886946
-0.017204769909131515
-0.02410747990838037
-0.08643014546140404
0.05976514104609415
0.20786686660465087
0.006083014892140916
-0.031031065739141106
-0.02499195144756198
0.008784549166795746
-0.009214784851903825
0.005802954782266536
-0.006925607706276067
-0.007737993221343238
0.012297244618158554
-0.04484401747210067
-0.0003518069471293519
0.007120581183808625
-0.04908665806131246
-0.0002050242374918576
0.0037602448866963516
-0.02304972185772443
-0.00912988758761785
-0.019516639486039284
0.02892724331260713
0.010576103406874475
0.010107098868344587
0.023857877033859446
0.056811841999878286
-0.0022574258450723064
0.018739588498213094
-0.0386220150756642
0.03456183154560953
-0.036745357423912994
0.008348257467361588
-0.012879053846266128
-0.031263876213867524
0.01410915365526976
0.0047432250508960645
-0.01917878594568291
0.004223911677567658
0.0007320262259900354
-0.04154859899497518
-0.004298041593286981
-0.02569563913681797
0.038266295862510506
0.02214090005844274
0.10604416117901766
0.024700816342208238
-0.031219608829941903
0.02918626254272875
0.0039798519072137386
0.03732891748047666
0.02214822090075816
-0.01278225943460518
-0.018772413435177375
0.008359342536436307
0.031213479416351934
-0.023623510535197255
0.018838985349773164
0.013614114415745686
-0.020597781655516453
-0.018502596568444173
-0.0017872283826561334
-0.04530921203345577
-0.007030934618122733
0.023791409106977378
-0.08650603990012053
-0.007869740797924792
0.013515352777159748
-0.0322140726619033
0.0035481596964335687
0.015518790321619055
0.03755677024858102
-0.025721634373370786
-0.04129865780167885
-0.008623547693407231
0.015235775273967246
0.017896504476982152
-0.013218461151576452
7.935089239386138e-05
0.042559181355297376
-0.02292820228394282
0.010592404775892926
-0.004851744314671869
-0.02105580545679854
0.0226737063570652
-0.006020730467416054
0.0021602580678147594
0.011984176649864328
-0.008775912272593915
-0.015021377616356623
-0.024048833915022667
0.02398872484095925
-0.013331814824913319
-0.013602142357775848
-0.008847785147454582
0.004534017762215341
0.0015727837486842514
0.0017696254187590365
0.002941650014754617
-0.0031298106688454294
0.04277469023492388
0.007421837073442061
0.029263095732243633
-0.025969599179614833
0.0033449925827729373
-0.023716403813816917
-0.008400955900496379
0.0096262017664928
-0.04736275112234319
-0.04933632046359634
0.007603191349221913
-0.01097339690488923
-0.021781941900152542
-0.06521991216504647
-0.01046745200495814
-0.06539086292968753
-0.0971080902867773
-0.002080039314489026
-0.013837984400499067
-0.015427710275324675
-0.025327648738937
0.17939445216797953
0.052509163665802404
0.01851238020410606
0.03846303477804546
0.03039364161558638
0.1363285602929557
0.0852876354891253
-0.06767363406226921
-0.018526628747994975
-0.0677500674377202
-0.012493128331958026
-0.01731711628282457
0.032453294806184474
-0.051638962909900506
0.019277944663880688
-0.05769407022565402
0.09193629470547955
0.16551310806690908
0.0002482146188476195
-0.0038080036742659975
-0.01715794356746992
-0.0010297601100444874
-0.005872050311692517
-0.0056772717197068985
-0.016854331191825275
-0.003735535924001792
-0.031725678279228085
-0.0167359664192276
0.06523773835814763
0.016702302206512167
-0.014675901887194526
0.016170239847640957
-0.01876155616238191
0.0038618521099974394
0.05390472220157386
0.053551264626713446
-0.04539976308873912
-0.01144372410344499
-0.01990964631743309
0.016555466115624418
-0.016826922504309668
-0.0030444819837294095
-0.025643681238327956
-0.024482366260712644
0.016486564337616347
0.04699501741609408
0.012611944809639902
0.023498940413265078
0.04173557615095728
-0.013592264593169815
-0.1460091012238828
0.00016445357021886624
-0.0272978241312193
-0.02200299869103794
-0.021160482138987143
0.06901999585123049
0.060563454745940895
-0.010077002853736762
0.07278395092153776
0.010134269204066721
0.009386151119608584
-0.08929959956114662
-0.04628318477224786
-0.0035999888708866503
0.018741394738183894
0.011391907784457634
0.019180154443899387
0.02790685960594669
-0.04273010243083718
0.016576661132642386
-0.007853535683848892
0.0006055908361610367
-0.08611826458897362
-0.20653312887153227
-0.06109966146681884
0.0027148296030682522
0.026499959582212195
0.18034257409484258
-0.032423245045997695
-0.050953252689185075
0.02296228071952772
0.00416872525533183
-0.19419080240047135
-0.038138800418228876
0.02936378860385888
-0.027298959809113264
0.004669887560458133
0.06359190259216513
0.031057214573276412
-0.004151421405349495
-0.03515245031465944
-0.0023459005519831694
0.019837838963305453
0.0033448808894668337
0.05396681468428417
-0.006211423155303941
-0.01735214812492139
-0.0024303496206905
0.021580711419629656
0.04834934260132519
0.038656157158083244
0.0898510950773227
0.03101596827350727
0.0012486208489125737
-0.03248874719954423
-0.009266869880517989
0.004639859830681675
0.025273442052130182
0.022425661653946227
-0.00010782594046655669
-0.013711362736160916
-0.006663314941538529
0.01722935940371278
0.0719208177982598
-0.00021502186534344054
-0.0490765767797051
-0.02804898926363152
0.003060999190713719
-0.007113572803169059
-0.04313814843449477
-0.01154640445320481
0.05935411798621391
-0.03847137352509367
-0.0012365107091092844
0.008651287185478413
-0.017769026373231706
-0.03935528199538535
0.011827139726074043
-0.00591091768099484
0.09738653162211192
0.10339444413625284
-0.04985814120570263
0.00599411210798722
-0.004257697864733392
0.0381624075984437
0.035574085675636
-0.003910351219809102
