0
-0.2623531109463025
-0.05060090427692755
0.021542531560102014
0.005470808187761605
0.007620290948906284
0.03219536782634191
-0.03144823616544934
-0.043896890586766164
0.019043090164036245
-0.008228748994901667
0.00982177616517435
0.015227786872479034
0.06158643704469891
-0.07509137313609292
-0.03480816973068779
0.04496320507076028
-0.0005753829542242624
0.004469183085242918
-0.0032215575799480877
-0.01208288192266564
0.032352930089597894
0.03464902435108974
0.018687866607017715
0.023541860250653697
-0.005019317438261481
0.006522200570515872
0.10643916825121448
0.010182368249590103
0.014537553115515047
-0.07315932051105808
-0.007737158054550164
0.03481787884914783
-0.006968496374238898
0.023201405660610578
-0.01716460228822712
0.05221214223795188
-0.018959839303322942
-0.009614189395611488
-0.04926230284133107
0.0025919990274251383
0.01641880145775827
-0.003082614116558305
0.03779148493847605
0.009127234081779565
-0.20839696079477124
0.0045353465976319465
0.03265497371743991
0.08937515380482045
0.08629398091311812
-0.016689869834317896
-0.01740953628908458
-0.016550394595259865
0.01201431748854536
-0.04223669561402507
-0.07924669801649976
-0.023739929738143664
-0.0022391498857143232
-0.00021668322206635726
-0.008705997394911676
-0.027358763929378933
-0.048278003735094915
0.0038969941490705853
-0.0032601073592768656
-0.017681239552257394
-0.022801079884838694
-0.008485416261685454
-0.009681638551561645
-0.023112921721458984
0.00995915425894913
0.04652435728100715
-0.052101641451251804
-0.04089865047326343
-0.011786038727015974
-0.020111800854254992
0.03306845365085691
-0.02621541986931791
0.041801017809578817
0.15004491947899973
-0.04814152541656654
-0.0004991225692946825
-0.0034434328650166345
0.14424060722102788
0.12114228506381917
-0.03989007989833057
-0.02550567838552149
0.005558465865325255
0.07231882745755767
-0.05405741751041678
0.15053260830513684
0.07800242973655389
-0.06285922114973144
0.019889879210028768
-0.0384363958734274
-0.03965984888506922
-0.018938836509205487
-0.0008405564387237342
0.015619756054959456
0.015649254570829066
0.01634180812977654
0.060190058058190714
-0.01893388343216015
-0.029471253786322395
-0.04047651083607811
-0.01992773551447996
-0.036492042374167984
-0.01867166956753571
-0.05089861750164255
0.09139688031197184
0.12241119044140723
-0.04743098298555201
-0.03500396536899073
-0.04225887144678389
-0.08336840242377556
0.028502124246861178
-0.014074490110086896
-0.029276614301245032
-0.015128990660361991
-0.03682637238381641
0.0036500289312353077
0.07153732459730418
0.005460753344939109
-0.03631309753328483
0.005563249835212575
-0.07325782865786756
-0.07838575338160328
-0.01895294251617323
-0.006705610094288991
0.05789407999143561
0.091130485716022
0.0077299455257233505
-0.018015415030407295
0.011209216859522328
-0.021076918976004572
0.010316651511370975
-0.012011739932522797
0.002562459812280678
0.03346237952650243
9.541014834892999e-05
0.005107933405216645
0.03438424175366987
-0.004337188745941051
-0.01323753364726906
-0.021072596081945
-0.015340102072130692
-0.013292199952096545
-0.002621114948756414
-0.001554481492063716
-0.020709945967959616
0.00487721877525988
0.020560871098150277
-0.008530816431669943
0.052856248026919316
0.023446246441473487
-0.06271119361043409
-0.011747114562825579
0.11516163747020716
-0.022180020870195806
0.0002618709092523546
-0.055548757513042606
-0.014871246986012453
-0.03069507490409958
-0.0050077739650065374
0.006416227658251307
-0.0271703906267151
-0.003919881575657219
-0.016765873376338863
0.014039269408152739
-0.001710055673812771
-0.055498893514473624
0.09817666919094334
0.04706206507002504
-0.026683166665333366
-0.00940601368629649
-0.03810261481780954
0.012300370579286115
0.06519363405865784
-0.0315584331677647
-0.03186630534031585
-0.03667120164111287
-0.04649525916112217
-0.06422275339803858
0.004060467230564622
0.08056011403791641
0.033549086205156294
0.04519149109916837
-0.01594998619568249
0.026469530466701655
-0.017846864359046366
0.011849068895165417
-0.019362537957192345
-0.035939533584811695
-0.004896727983618791
-0.01348113960198918
-0.025155171314918203
-0.006922009638287411
0.010241729716811806
-0.01797665590147161
-0.00028167281408434107
0.01959273071301492
0.07688060792961812
-0.01744181904435662
-0.014345253534407435
0.16015429038329304
0.01626737266218653
-0.05712607147211313
-0.03334779552779663
-9.657947612265573e-05
-0.0035797264763964133
-0.016801441826740864
-0.03825408911765669
-0.010047699332473198
0.021704913962106717
0.0033624387441681986
-0.009148815450923792
-0.06576896638069561
-0.033999597702776725
-0.02537630596721951
-0.0058994321670902
-0.020344297960897817
-0.0030046558056547276
0.17976059182354212
0.021718983627880568
0.0011164283495077839
0.10598187849697777
0.07380186235278993
0.05295999263327444
-0.03935308007031274
0.019458772915112
0.04512593798640354
0.07072446291684648
0.031187157440114605
0.04233687856195877
-0.05048470354906603
-0.14256664885906797
-0.029470740483759483
-0.029186995562203798
-0.02069377746333916
-0.035427577874603794
-0.013964813910233572
0.03256907891524838
0.02958198218819572
0.00015559561822550352
0.0314257924668687
-0.03132960902989884
0.0053932087672683635
-0.06745493023521693
-0.20504541017242908
-0.0602868881685089
-0.025618108352121187
0.026127131490031773
0.028214846711479932
-0.01049245231217155
-0.038859143468942106
0.009243036895290796
0.02721414520567417
0.015342700161895007
-0.005973442363224565
-0.010394246530832655
0.04116244673311584
0.025606370433901616
-0.015984167563113584
-0.01690396370746024
-0.019074935214849285
0.05517123835935256
-0.0010985697472166156
0.044232439517625906
-0.0640147433326973
-0.024101410879106413
0.07319459518392464
0.046097027541689546
-0.05080218922651767
-0.11778746184699354
-0.015746569316537572
0.03585960358344464
0.01080327150147081
0.02612589957505398
0.08130640347706135
-0.0021133779938685756
-0.014963487618061875
-0.008992822516459598
0.004952861291384245
0.07726504324440354
-0.012942220908403934
-0.014014594214282163
0.09256101494915811
0.0027542957587911644
-0.039618337254096796
0.017172235734085314
0.02026880209058352
0.00894304120502232
-0.0038836733572458226
-0.03588606028584655
-0.0017357855791465858
0.020196267862352204
0.03993470620936229
0.003690572369558844
0.010927295348283688
-0.031599420618626084
-0.03539778146753039
-0.033356580836850204
-0.023663985827252945
-0.006691671536091761
-0.02471869127987999
-0.003993390471480727
-0.022298202408329807
0.028797614305029143
0.027620922780995958
-0.008754997482977925
0.024625946329794438
0.018713985713235154
0.04614003888949197
-0.0025826521764814496
-0.06094335281971414
-0.011873174470669047
0.017738575365539664
-0.006679996575954874
-0.014187956314057074
-0.014351699762832312
-0.017155124418548117
-0.007520123036343555
0.0069974987100403915
0.03591901633254706
-0.02577203032391314
-0.012125361306297957
0.030146245696440473
0.03615026988709894
-0.02684205250531199
0.057884086898946134
0.026562209269044665
0.0005848831733599864
-0.0012350002225388888
0.01266243501640856
-0.0228597113173634
0.05549558658724707
-0.02228201510933271
-0.05822216467454585
-0.026882497981572863
0.03274359961444782
0.010659808972123803
-0.01820012881968449
0.01417882410961099
-0.007171985387393699
-0.01878311760783973
-0.10895593476290806
-0.029628589044836087
-0.004855895818009696
-0.0027484121297622712
-0.0112498892501252
-0.02257668638675047
0.022516471852250464
0.014456873962092729
0.0005365604474095314
0.007606739738936587
0.0322119551682426
-0.13540032339650176
-0.15515209723461088
0.031293650967925725
-0.01277509969391062
-0.021014474465440445
0.10776430356185779
0.01489384090227145
0.0020401924901118896
0.034250411298444965
-0.039691586912787145
-0.028464259789013725
0.06038603927502298
0.1070341913756425
0.16106548411423224
0.008967744742311467
0.15420242676427057
0.09884889377821968
-0.050947242872757176
-0.00737794934437358
-0.008297699282165456
0.028973984741584097
-0.03304733182521565
0.012097036835313138
-0.03379692363163426
-0.03519342904304677
-0.019223902127117557
-0.020397814077691125
-0.013384358194132502
0.03568749017920206
-0.06604832648176773
-0.13455642492370676
-0.05434410128105519
0.02644879592098593
0.030399311893096193
-0.014586549330559683
-0.041691834765832846
-0.009010788452520919
-0.017404094525393942
-0.048006500890906384
-0.0295591820545252
0.040290801149423
0.04301443241516091
-0.017436511932439055
0.036374411141221016
0.08826431867897694
0.006056602893215413
0.021430669763457297
-0.06431115331954815
0.006335304848425468
0.07086973823163105
-0.04393391991385854
-0.019732171229078693
-0.11231900880287823
0.1348546638080574
-0.01830134940210538
0.0014800160603861072
0.0015464061359407508
0.0708619895901664
0.03476559893967569
-0.027376577892065275
-0.02026491675356892
-0.013188946951881424
-0.02116865619638826
-0.021027329449284177
0.017767414150479433
-0.012398549614829979
0.04112736149953367
0.010678739852263693
-0.012857476708552912
-0.02193739747957683
-0.04142374223778831
-0.022833931198928282
-0.016093370425252617
-0.006736557982599636
-0.018425223620902775
-0.0317974157920524
0.01035232160694395
-0.01773016436865041
0.011025324208522837
0.022836816460397088
0.016813147955825055
-0.013158695160961787
0.041420104345640286
-0.012329071966619327
0.0018572400779047586
0.06698923199422448
-0.026343413852717202
-0.01747919491127519
0.002928270570178457
-0.03369909274166832
-0.025353215249242143
-0.006101376234013499
0.049514233095227796
-0.0020412545101621002
0.09117693302565026
0.10673275048019944
-0.058911656799633984
0.03824920514490649
-0.005250822379225958
-0.0005507003185146868
-0.02866597943937363
0.004951631497290426
0.027614531278556252
0.0015219916300760288
-0.028671212539689135
-0.014070143782469138
-0.023849248012430747
-0.031400028493284035
-0.025085531992308677
-0.03177881732516872
0.022169298104120237
0.02556363291441017
0.01967848637942467
0.03073536277567461
-0.03607142771284441
-0.01565485962008691
0.02164854272584526
0.015355945857006625
-0.020910557912368608
0.03178087783664696
0.02411889733921123
-0.04511586874665633
-0.050291310102868074
-0.03594560289633319
-0.019059951796841123
0.04662225641065072
-0.01747061804199927
-0.018664661261190173
-0.013827082613886365
0.04298076554032108
-0.006574469519383558
-0.00610950638550308
0.023365772540274866
-0.025732815329212608
0.009376228810156442
-0.0024116995206758945
0.031500859628294284
0.08180580491655415
0.018027419269189323
-0.08171380805566084
-0.18362508654131426
-0.025313188560416363
0.001789068017985703
0.16979268938093914
0.09526359663905588
-0.07624251768932239
-0.06089668131650416
0.012554540662213426
-0.00321138667968061
-0.04508651489571942
-0.020094681696298484
0.006790290812731736
0.011983830923892368
0.06734408058867969
-0.10829246257687315
0.004968254817476773
0.019838367825110403
-0.057891414053328094
-0.002138484419292209
-0.008995609899919233
-8.216473034467338e-05
0.09029500459531195
0.014511880097724835
-0.034658013459864155
0.01184509349455362
-0.00686784806016849
0.016602814944232703
0.04303901350621644
-0.015123276281061738
-0.02492697338065982
0.0035206196637867834
0.00723190297025719
-0.011046778588531333
0.045591718554837034
-0.008300658090736279
0.0016974069278282232
0.021524108685946442
0.03814313415395431
0.13122471822086268
0.033384247980276956
-0.03303792583444057
-0.009240674425706783
0.005853934482821349
-0.00374405983618498
-0.021938461976212718
0.0385956945148448
0.022369688670009623
-0.007119956023453555
-0.011441654849534896
-0.02501527821255639
-0.018396196210169587
-0.0014928947854804956
-0.06963800188824067
-0.004260215055908881
-0.003712897384765167
0.004836521815871823
0.009410432202930042
-0.013601361522511367
-0.038421527411444514
-0.03599461179073803
0.013988886610907752
0.021882674269399247
-0.009473393470922617
0.024611075438136298
0.014773606708904449
-0.013318074119451155
-0.0180435414949071
-0.01315417779902869
-0.010823186398944697
0.0027958238287000402
0.0268968932621157
0.00560386898309914
0.03541730544442188
-0.038086858349169174
0.008367282123276762
-0.001677492501166453
-0.04159637365811482
-0.04263377483396073
0.0316716523663226
0.013247648315543916
-0.029055952934371115
-0.011105057996108786
0.020739092748784122
0.012894343677959757
-0.00936932934868086
-0.022471994403673392
-0.016730754611036496
-0.01150979744683135
0.012744312821970331
0.045785042932765536
-0.016617166117728843
0.001763833766772655
0.01003042833509677
-0.04358408562313123
-0.02804758988894891
0.015688866330894783
0.005162403961844371
-0.029763931432106126
-0.019357213345948733
0.1516082167254854
-0.030543594819512816
-0.01650699365406703
0.01385750083922178
-0.008224560369296413
-0.013372344378546295
-0.014837987298937878
-0.05683503257162816
0.008628488210288473
-0.03311062217388829
-0.007750866061917864
0.007652973436012981
0.020253039350827135
0.01929094598273506
0.16442637876141003
0.037351179468389305
-0.0052305366542240795
0.052019829776701755
-0.026837407100961747
0.008475361865563814
-0.013622932999783656
-0.023298354614882163
-0.022821173751488785
0.0136045640364733
0.0001330449412569123
-0.036301804334652465
0.017078358694269324
-0.0008817942937895214
-0.1316583230509993
0.005303476666865122
0.025402127866130962
0.1355788961821977
0.016394836564096914
-0.008884441391938567
-0.021236226532008688
-0.03213570553894921
-0.0028794332677555155
-0.061051540018978924
0.04500199958426476
0.03892753783073282
-0.02001961162662395
-0.011759647832090433
0.027970337860170492
-0.005375862216017089
-0.01941786539354648
0.0021180569869607797
-0.016873774891934108
0.0011068798509962557
-0.005441941300853051
-0.0010072271244321157
0.007760032884073263
0.020045856153806312
0.0014880486854982585
-0.03460824533063663
-0.012482984124305504
0.060094608841914955
0.010533089962768702
-0.019271938035480236
-0.005581294550119541
-0.027863397790338782
-0.0011275521382198592
-0.01077773022863576
-0.0984792477415323
-0.03399456916926792
0.015266476528716749
0.02656209943971171
0.010816499752619651
-0.0009555025159076889
0.026671923848802598
0.006564306285165867
-0.03152775811558337
-0.031229333407905572
0.025040025764816877
-0.0030253239504966986
-0.0020343103562919917
-0.030371118507363137
-0.012930984950155976
-0.08045981532011903
0.07312466419920935
0.04343097279194529
-0.00581018194971951
0.0005939743813469348
-0.0023490977329687704
-0.02017470012693806
0.04383971674509043
-0.1384018330167269
-0.11156051289853715
0.08376817020099536
-0.0026976966552500277
0.014814894077938871
0.03840256077353662
0.05913757951722367
-0.012899744100993744
-0.0015262280882675234
0.01946038746447723
0.036484591878424545
0.03550436624189308
-0.036052028366167596
-0.08504062174408371
-0.036679627486721066
0.04360802418479796
0.2527251456019367
0.03163535975653648
-0.03845092381998462
-0.0579468291512762
0.04835996420371024
0.0817509167289816
0.0224160550892462
-0.02117580170406986
-0.016615367380015206
-0.01391864918361274
-0.004146148026656546
-0.03607903549096148
0.01376120179194215
0.01962807506935932
-0.006876156514366907
0.01255761792896053
-0.014646604028642242
-0.011245146057523909
-0.019120030326190675
0.0028320502456799855
-0.0005125158823872062
-0.007177477113753668
-0.00953889673215411
-0.005992398206022383
0.022507735996695366
-0.024871958547173344
-0.025868958677440868
0.00566137041461074
-0.024856893714109055
0.012473564065854875
-0.0023700249533563605
-0.000487784699126363
-0.018526954691114917
0.018777740691231594
0.022683398211645386
0.006313752171519013
0.015502071152448508
-0.01686877239708949
-0.010970464620760121
-0.01293945609655232
0.016150872128736168
0.0025620820903555753
0.030366186410690176
0.014030379123932821
-0.006753961537512314
0.000311272651509149
0.014724513187169469
0.018044651420915075
0.006307087562746659
0.043175221463293376
-0.10211256352303033
-0.03046959723366856
0.015328823784494816
-0.17937885243345716
0.02180292838386665
0.0036526208179986485
0.030150198273275614
0.05187537751264148
0.01101662617640459
-0.026320242115845254
-0.027977341941405956
-0.01642363510799673
-0.011864464736640639
0.027499069760183664
-0.01104161796279545
-0.02947485494215596
-0.017860664636604733
-0.02729462028983732
0.02554112616266857
-0.012754214779299132
-0.015590991224734544
0.02078821166788655
-0.02855781690888197
-0.060260398904026145
-0.09891618218418748
0.08075330681261031
0.08859083536193016
0.12229498869793734
0.013190456277791212
0.02407636844544211
0.01540063013077348
-0.019883932861582434
0.015831132579871017
-0.03487981360571142
0.039201820750265695
0.02342730457566623
-0.014579798666836433
0.0023389634493604836
-0.0058723848135020865
0.021919738358018626
0.013308335805886851
-0.026281368016180414
-0.0867566021444069
0.024828168350415254
0.003439541306252095
-0.08078559512112297
0.08191675811845196
-0.012396430638919155
-0.0037925974643035452
0.0013815448778491822
0.008129800890338266
0.05861425409905917
0.050593356042447975
-0.032514700685247325
0.007512394963757456
-0.01984238845232913
0.046513737088377576
0.020724102347997618
-0.03326073653286035
0.03248427921478755
-0.002483402330844739
0.020080638691703203
-0.13728942151679477
-0.03893742959160521
0.0028094937704151216
0.014565559179244127
0.04359715003986763
0.013104297918687436
-0.004458806273964737
0.014579728452802032
0.035325580953696714
-0.0035092431241945847
0.010955011444672603
-0.020207427018211467
0.02822665934061035
0.0002576183648457444
0.015453310255406172
-0.0005900782183585649
-0.09026072020182524
0.02838079331393593
0.034375448944447745
-0.20957846808430333
0.056284066335794594
0.0238570400521072
0.06502316250877843
0.057999403438802666
0.007991854761230544
-0.02277301058875297
0.03158521922048349
0.03467851080508494
0.004850885356826498
0.012736442254919695
-0.04394621595067968
-0.05724178960205931
0.010021127001806858
-0.015127924744216434
0.026241232570194905
-0.004965978915737546
0.043704799496034424
-0.05513340022136311
-0.0029687304285855518
-0.025308833904024868
-0.09641903604610214
-0.022999122475811946
-0.0016651956323400115
0.05616591891879934
-0.08027093211857893
-0.013809646212392977
0.03415086081533159
0.022551805060986013
0.03327127323037628
0.005671654291914431
-0.015156390447197007
-0.06297283001285797
-0.018603641444526933
0.02688728570044624
0.02667101028715732
0.0018541489976957655
0.018684138617722404
-0.006859276148310486
0.013802807009953719
0.019983084925488667
-0.0013453355558072802
0.03039716031207455
0.03015999821046361
-0.050975952940612676
-0.06281442348729531
0.009191347731488326
-0.011620829898752162
-0.017670122631327206
-0.009453901873443887
0.05272454367674442
0.020622693677456175
-0.03764011314278121
-0.031042586645323764
0.026705395903523353
0.03777546459612787
0.0070915817383497125
0.07566310690800343
0.01019054043080968
0.026617844828270003
0.00420661278094842
0.01933259839021461
-0.005729282861693226
0.02255143688527107
0.012716887276236552
-0.05830327337172965
-0.009698885710003618
0.00048563325197983914
0.002907305253507723
0.023306663452615242
0.014700940126564276
-0.014513275534169114
-0.03943756034977972
0.026316083549238846
0.003282780618205411
0.017075282879621533
0.0037009790991230623
-0.01276001500158843
-0.016113767028897844
-0.012072501710939116
-0.012794463852930904
-0.028783367628458834
-0.020250612320103493
0.041856598063907346
0.039304072217048666
0.016915473059440064
0.027865221401284158
-0.018314797533946794
-0.008318180623785629
-0.04312263049626234
-0.009460880727981777
-0.01568609887305823
-0.03199846723651813
-0.05974021112102331
-0.0233684879632235
0.04613112073418911
-0.008714590862658071
-0.0036060313880962114
-0.003739963748792918
-0.017655252067548904
-0.010996064076507559
0.023391133890530887
0.020219079239017244
0.006282976963232559
-0.002442539316112382
-0.024442879590073626
-0.012636598319492027
0.01210644740489423
0.0031107875529524935
0.023780610972334602
0.034908315790915835
-0.017561225492706396
0.1156724182844107
-0.05261638663829
-0.0019079836067322367
0.02271580259776764
-0.037697838198297785
0.024005088283104704
0.03577971208921763
-0.033189399362953176
0.01152232197910463
0.05409755280615031
-0.042441483311986695
0.011394144533612179
-0.010114180830465933
0.012798131384707714
-0.04464895710513582
0.011455504269054591
-0.008017276986247168
-0.06393322679542587
0.0194146371829385
-0.00794978054777286
-0.030518049253043505
-0.011897165800810662
-0.019232968022628735
0.0080924835733408
0.009827928341910272
-0.011954251585221535
0.128581335936638
0.0054132671087259495
-0.04010747030991897
-0.0024827079826157433
-0.02474903568466461
0.09666845382553194
0.04036287483319798
0.038332905730992364
-0.03692074654042496
-0.1527277487792777
0.0215900207680725
0.049715032241836224
-0.073873188374031
-0.05772201742996078
-0.013743994949768428
-0.0013347373106104544
0.054121441474932586
0.06588799724986724
-0.03613777146395892
-0.026962704075267147
0.04053031548621863
-0.016143641968080148
0.02674790800478069
-0.03885783029985198
-0.027948342720449892
0.01216679360938954
0.03206459581342894
-0.016003248339743682
0.04556223734671477
-0.04664380168748871
-0.03334616274517089
0.02440999075586904
0.03766480690536258
-0.009899634600593133
-0.014607305696345827
0.0160425031055382
0.007892624044313382
0.011575924810495297
-0.027283188063445603
0.06494200220661016
0.05660255392602083
0.01700614672190075
0.014016818652969349
-0.0620168450290758
0.06133605839048042
0.044147623021022354
0.01681430617273778
-0.006113448868078156
0.0742938034460957
-0.022558443469672642
-0.10932238113863114
0.04029736766250198
-0.01782596657493615
-0.02123710917146888
0.014293166997476361
-0.012009577254418966
-0.013693946138732562
-0.009608584338993628
-0.07729143350358644
0.027050732696412564
-0.034057340651717574
-0.07672347114232518
-0.024314859783386468
0.02095690399631858
-0.004161035438797138
0.053844057955384786
0.01459752086954982
0.04672714859090076
-0.04565728147504979
-0.05948415559280923
-0.007963706680439097
-0.04761561526225377
0.004688424286351199
-0.0065931970092253135
-0.006649752800079852
-0.010579502008932592
-0.014423263717642845
-0.0401577610482365
-0.04026877016706174
-0.007930378648776293
0.014481601901625441
0.03788201662102907
-0.0038850222815569354
-0.07420407818565643
-0.012383733842207882
0.04847686162086691
-0.016501182334185658
0.0040138300223916835
0.01754335021428165
0.13670567125915592
0.03624973498818605
-0.03597272471716245
-0.0010887796187754907
-0.018175129333657742
0.004240643647910535
-0.059113761587833845
-0.018962494713190423
0.02848305445621194
0.0043381880536871404
0.027230358849682317
0.043602269269772495
0.07667826621658609
0.049014751627850926
0.03840595733802847
-0.007868645895284352
-0.04103501059864988
-0.02282177219830718
0.022197197009386598
-0.004411821732298378
-0.029204575645542647
0.02305575549976914
-0.008818979352950992
0.04485567833828459
-0.012524989531028303
0.017548547886344072
-0.001505469784105225
0.0016195237830267536
0.01105151228386678
0.03431900166825803
-0.009341857575438177
-0.035617487105179944
-0.02065587987465444
0.016849197447647485
-0.012236937904890586
-0.007743847738430401
0.00013062209128759605
-0.005142350814155729
-0.04391238931337054
-0.009124984951201414
-0.04084140190281512
0.04710778698141184
0.017175098816108115
-0.0036609170588434224
0.01927838919919543
0.012832389852596543
-0.023919470765866136
0.028640518060383317
0.09453005104836083
-0.034873590097012894
-0.012534882545861253
-0.001455746113807562
-0.007398642356257567
-0.02196714725831077
-0.012878295994285796
-0.01783753840972748
-0.014803434879993704
-0.015533749596440903
0.002477438434780659
0.046126592088222056
0.029641084347360284
0.044047290649945246
-0.006110575993537902
0.0038518624169891196
-0.09986016581590385
0.040195203222019395
0.006822199977055971
-0.06307615293119713
-0.004236140328373011
-0.015850661546784228
0.038565295925072615
0.0181766602569406
-0.004733395840711761
0.022694468774850308
-0.06050589684568106
-0.011619475955193912
0.049629668126787006
0.01605175698383185
0.02982025262355135
-0.014457670154881327
0.017856305821908953
-0.06452741374104637
-0.015745077608512206
-0.01544463828566536
0.009449122607532905
-0.008606431284445508
0.03729966964282445
0.0016283570314003886
0.046193039187460636
-0.13061608494489327
-0.1072600388585041
0.03613430302290649
0.031223266161304893
0.026023061301579938
-0.039759283298135877
-0.034226979443664575
0.003279550597560049
-0.05512080623837606
0.017862290013716052
0.02992588147271543
0.028640027250196102
0.06036641421607956
-0.024791143763061015
-0.006117097780427432
-0.028678100395149692
-0.021736525774969196
-0.01774597576899218
-0.008759530645892938
0.013360602901657031
0.0017068971505926078
0.043799962409501965
0.007816604209086246
0.03278124759800557
0.03520615692765881
-0.007472340106602883
-0.0015269392659674106
-0.06201289121937212
-0.03454178769098546
0.020105166373635762
-0.023913634657531914
-0.011876221724062315
-0.014508785651056285
0.024147561758189235
0.03602163517693565
-0.009894556349338788
0.001763456283925713
0.0604411745565662
0.042756497721104056
0.005576890041436821
0.003017367282224547
0.02132930834036444
0.014058279519977358
-0.003766271300136542
0.048521052139417646
-0.009951581075316797
0.005210397529302756
-0.01250812658451909
0.01018276664742092
-0.029836041178310287
0.0502973278846546
0.0054540980730414055
0.0751113229386309
0.025919599053263423
0.010183516432523678
0.0037391737422406987
0.008774602668076555
-0.01477101020202284
0.004739909572776597
0.01563273815456787
-0.019267588370994373
0.02037694278737566
-0.08262532557464461
-0.1646783275704773
0.034856288148620206
0.022024368690997227
0.002584284513191877
-0.012614745952288897
0.03557656168537827
-0.06818395075355752
-0.15910282875719542
0.0013433643575715866
0.011779137128893561
0.0368810961625742
0.04622236745207263
0.019584820776914546
0.009698777760228433
-0.007882889325315046
0.07038993468637142
0.10303424774729716
-0.024518717955089697
-0.013304462837810362
0.006022367870284714
-0.059443170849163264
-0.011965312790537988
-0.006478228640314795
-0.04826274781068454
-0.04743602677875004
-0.015528201251594357
-0.10054076007307401
0.11070819665046958
0.0487739380229186
-0.04321243695910006
-0.001997248010743292
-0.02160627975196583
-0.016899337658494894
-0.031301742851436706
-0.009187543694909643
-0.009867245940311615
-0.014400725205356636
0.005148927012827208
-0.004476796150679317
0.03260788717451616
0.011291418933593034
-0.03823138620375789
0.05025262648758257
0.1410935475376088
0.014892109013599006
0.017431209145418552
-0.014451945004368088
-0.007903995228630526
0.0013600096372185437
-0.014281293707361632
-0.021368029746391102
-0.006780349237195824
-0.04085482843212803
-0.022102573964053535
-0.0036283115046031674
0.021994361443220607
0.0627881970531807
0.009263720411991921
-0.029009910855714555
0.02376779101463695
0.04709392972467088
-0.022187727469919163
-0.030456858871614947
0.022974995250534116
-0.04475950324061623
0.07736360717241628
0.01699823588854654
-0.05121895095187834
0.00815909885870823
0.004987880376928432
-0.01974889800801438
0.009547629784433439
-0.053537041089930106
-0.022757369444498344
-0.012967171695921348
0.010656291826657135
0.01129552066124606
0.020055856563179188
0.03499743225670256
-0.03457223866209358
0.02505415619375629
-0.023946412823841506
-8.010703362364672e-05
0.00838704835894695
0.017800639989345567
0.011029920401059825
0.010023040261710272
0.005432280966243103
-0.029144739302967196
-0.007602869260371068
0.01221930117539955
-0.018283834882627165
0.028039487201217017
0.01333093386563963
-0.05875445486192434
-0.016722209638076625
0.0003972734036272982
0.018292851654747134
0.008023155077315578
0.020953278456327978
-0.022909634672695783
0.0168175408077071
0.06811527724207946
0.06249732152644434
-0.010203265160789529
0.024049383262128424
-0.04047269151831005
-0.03887659074884354
0.0172160609175636
0.020003378944065946
-0.00848741263423099
-0.04479049984760539
0.029751981477092734
0.003233706862481199
0.012519274281036068
-0.01185899450136491
-0.035471560995160974
0.008561552493434835
0.00040763715576285723
-0.010427670659126516
0.017046202888130066
0.007962419062088182
-0.03177786937202128
-0.015449313380217579
-0.031102872549517702
-0.07306663639052123
0.02089582459270754
-0.061768184994415776
0.015981257157777762
0.026231648748639924
-0.019362285730656407
0.002994718601190584
-0.0020037760629620922
-0.007184086004103608
-0.024544651550564837
0.05535043637102712
0.04483315225970382
-0.009070775511100599
0.0005295011536609793
-0.0059085324365800666
0.028615745183268145
0.01006267063847782
0.033112317985263234
-0.022634182547928067
0.00017598428215799273
-0.010841238401218324
0.20455041630401388
-0.04353163016023904
-0.17184396821051792
0.04918824788693495
-0.1408420864371057
-0.07785279242647568
0.04349929215758089
-0.02193854770717769
0.004662753152207447
0.010942343013579481
-0.026978308645867605
-0.01118299340599731
0.03421150560303147
0.052554916273581435
0.005557251521322207
0.014087047498488135
-0.01626084336322984
0.03819324068707617
-0.11251490232415433
-0.019271173900416938
0.027390687096816125
0.021042294021655295
0.03493593553554022
-0.008079018763794524
0.00774542019140745
0.059771675231740706
0.02508673865470739
0.031701715903059806
0.04206866562982208
-0.009432351905408741
0.05489010606402705
0.11199651604901886
0.0064513233628806016
-0.005522540172538434
-0.015608168019011303
-0.019568476425374733
0.011706273805289194
0.016915339621596956
0.016710093457696532
-0.0005485519354327184
-0.005118128864112394
0.003749744223058281
-0.07541652626388654
-0.004260986442773842
0.0032949602333474
-0.008954785918568816
0.002498957147900383
0.014650240746264417
0.01759527215136389
-0.06619833763740177
-0.05982352107170315
0.012506723959919004
0.013238964077590353
-0.014929937370704444
-0.18436636175436596
0.01017545098716548
-0.03303288918185459
-0.01664788145877343
-0.016587380691469977
0.027381682767461384
0.001256883202428279
0.007079494299877624
0.046145286562610334
-0.020411586151568125
0.04215090883886311
0.02611781607002477
-0.014659702167511862
0.031727652246482295
0.0033889146271303015
-0.022540180191715796
0.029813409064847165
0.020172570185956824
0.028825360573515542
0.012069467352304717
-0.007722369309848758
-0.012641084408064055
0.005180270650402499
0.007221878164890686
-0.0015297517453374302
-0.004009672875089198
-0.11449796929489392
-0.0019972202606026133
-0.01477606298482033
0.009074641575730019
-0.004404554796625633
-0.04193686499164239
-0.007754691227968379
0.0030163573489194965
0.021967072322536703
0.07287601442535735
0.003988979986289293
0.004071738861615837
0.0504864585326216
0.006045632477417265
-0.026974536737148145
-0.01881599177902277
0.01319612351902022
0.05189751211435288
-0.010656523788877499
0.04400300510280802
0.028120955371005996
0.027314362333816785
0.055267029492430564
0.00522531931864776
0.014090099496678698
-0.01042817994073503
-0.06469989198829544
-0.0055241586608157705
0.008563052596624024
-0.02265091359644452
-0.021463046677802893
0.0025696846347358073
0.007799688611248889
-0.07907254279300487
-0.10359038515949816
0.0006704163174508216
-0.040552425123004575
0.013082281929136722
-0.015378437261636325
-0.004778808236268853
-0.003033339309380656
0.018352149720074807
-0.019638115061858724
-0.03720052949102763
0.006666997801352281
0.04876190373751787
-0.028378064924691228
0.1467295383225082
0.08507157702723582
-0.07029926182728954
-0.03139425785061922
-0.1960354914448665
-0.0062309580769207736
0.0031075554764702085
0.03697636758097922
-0.04059035184365601
0.10106161493163644
0.2288242429074015
0.11555501141743044
0.003384521507146548
0.03912116904430808
-0.0010496510207522799
-0.06273046637989857
-0.021092265582166404
0.0009366837106467536
0.0007108035701476846
0.004324508215239573
-0.000946070203261594
0.022717437238480118
0.01050214878959549
