0
0.0066342155362385915
-0.0039838371801085735
-0.02332749112005046
0.014631188646369477
0.013611324036091514
0.039879821752140984
-0.052662373871873544
-0.03296453045410146
0.0013617093257365296
0.03324673993464529
0.027881974551346455
-0.012436117575083937
-0.010240850243284742
0.0023083937241853646
-0.024121531265402937
0.037230200999111264
-0.03959046505404396
-0.0026304162948152243
0.013126875248938527
0.013727681775832404
0.010702765598074246
0.03384004488045714
-0.037872359619059985
0.011174264856252045
0.024101795462985083
-0.014734823431919007
0.011525393755647869
0.00885211765841666
0.023765741737388976
0.05483308250117165
-0.01445937502079262
-0.007302302703426395
-0.055256444542482464
0.07920740415651069
0.10529438076912893
0.04966502395921214
-0.0042470990400100715
-0.004582071552127076
-0.012878573663410985
0.025020888991585808
0.003924807468591209
0.0008875060256491952
0.013280485851913522
-0.02956046785671429
-0.003725266079430105
0.003580473565461769
-0.05973270887496974
-0.011879533617680203
-0.037148492178309976
-0.0015487477723547104
0.026082018380859842
-0.005595863470735582
0.012802811092867366
0.020689392697265864
0.018016618273847627
0.00632409714472081
0.00927640387908204
-0.031729689753997925
-0.04931146830257146
-0.028551336544378247
-0.0010159276634329594
0.0048452676863417156
-0.017242318303026416
0.010284260062828707
0.00895257517808922
-0.00391480401317544
0.0068682585881269026
-0.04220038005429554
-0.02117595714137866
-0.03817849881834327
0.08063964545040332
0.07090192054549793
0.05680079054531463
0.0865514330388189
0.03019484856210556
-0.020459254590857952
-0.01382180723376855
0.0019495929628648135
-0.016492498652645612
0.005403326309150926
-0.0469157095495844
-0.23528233558583067
-0.05177703542719769
0.024650490629943272
-0.024292685495540218
0.03252051391950947
0.029813214133427704
0.021992495292638484
0.007895485621587504
-0.046229496564563474
-0.03981860258854699
-0.025494440951559113
-0.007950492186771622
-0.0027991889997194598
-0.01433208044865679
0.03537717823979958
-0.018916979118700914
0.024026343928823538
-0.022788843389686553
0.011626317161495855
-0.0056604284130167305
-0.010542548373877495
-0.0006444720391059946
0.00867919918805259
0.008644502506646369
0.16156036960802758
0.02078181873034147
-0.038427766133867655
-0.03490652935183896
-0.046387950045205496
0.020026243986116656
-0.028931204178629738
-0.012297462593825874
0.02732685522011088
0.06428762274199908
0.04380642807759035
0.024973450485668854
-0.025754821584926375
0.007599944183056148
0.008847941344977907
-0.04458069662078543
-0.018126239159283183
0.16060904790816213
-0.0612228567024657
-0.04937382454170556
-0.030575923993483373
-0.02896820500571346
0.09131353716399442
-0.03597888363994837
-0.04072270161530929
0.03262557890906046
0.02537670372177526
-0.03662615628736294
-0.09091260029870005
0.04331927638183221
0.21574985697050175
-0.0019131602813970334
-0.0327900168276549
0.004821101080546728
-0.004098347192659328
0.017302060677266348
-0.02777738625979624
-0.05285416455495058
-0.05640708896915363
-0.0018968188351867876
-0.012942026209218506
-0.041468817724471294
-0.03541521282141507
-0.04100883607314614
0.014952422802895852
0.03489404333888332
0.01642974278911309
0.03088951393326076
-0.02973562627448518
0.050503097458079765
0.05629816685550866
0.002298268220157462
-0.039023733733320236
0.016730419007124724
0.01694116544142686
0.026536862905386874
-0.01420805688445676
-0.057385968150346044
-0.013726293057989902
-0.07957588390340554
0.016545236345079792
-0.012372598854660891
-0.008705162894570673
0.023662104452791002
-0.013843937629952762
-0.02187343897824823
-0.012660002083543892
-0.01909141574408617
-0.03828148833132934
0.00761586006580096
0.05107167290508541
0.02686160814206181
-0.0017488816182864837
-0.025469160387519132
-0.02500236652609287
0.02986294418306879
0.0057668455294523895
-0.015925239236653052
0.01143258409808991
-0.005620827365570516
0.026390029026695915
-0.014638054037499853
0.013718594437291976
0.12363298616084624
0.01671428849070553
-0.03052408960070077
0.06542623149599279
0.10553493392532011
-0.05400256718022204
-0.01403767423938236
-0.010571569304916007
-0.015751221230005014
-0.001264196597855227
0.023196582708993118
0.009188246761144108
-0.0120596116111981
-0.027354616310876864
-0.0026197694313977804
-0.033093367140530704
-0.0646039332623516
0.02766588204269694
0.014272199644694533
-0.036630781703424424
-0.010824836768617325
-0.01689591194568753
0.008401876152039266
0.021204030401777197
0.012607428656349305
-0.025286468098300503
0.008683319551456601
0.05133493213387688
0.034042564333486736
-0.008025689911378546
-0.06155297048199107
-0.051822082801716275
-0.028521462025132435
-0.0762209264744364
0.10872051656499687
0.09387772559111061
0.0009182899711526487
-0.0429910293133996
0.007869567024095239
0.09556010804229345
0.014677919679657836
-0.020983334892583756
-0.02258787993918037
-0.08290393452885174
-0.009087645469752197
-0.0803616203258917
-0.045768833913643135
0.0030439520714860492
0.032984272324323965
0.0012236980677141987
0.07180931961009202
0.021749470123847175
0.05879835730994617
-0.11358236590806435
-0.055522339629428215
0.053439149460199266
-0.13722969778703809
-0.03504450823427549
0.009971350822436142
-0.018161233008691307
-0.02875897209392198
0.07696771709523684
0.09111799276636302
-0.017725452356419938
-0.017934618879491483
-0.016064542200974974
0.029509767121330844
0.029238427021319433
0.0425760859882228
-0.047832768848023836
0.09023117603899833
0.10012959724040196
-0.02330094198954052
-0.003153830809545534
-0.005323917296737927
0.018238749151944962
0.030179973903957512
0.012359945602029439
-0.028752567394962347
0.011318725836925012
0.0006430723529087373
-0.008397309302122508
-0.010849547712334123
-0.007804169938344109
0.003081892429558752
0.0009053185710983348
0.06212872384860468
-0.05472417633456003
-0.08398597366717463
0.0457722911597678
0.006826055364331714
-0.019120390047902662
0.01811867039893187
-0.01256632256023535
-0.017274794836257924
-0.00041296053153382057
0.019582876964492714
-0.0005307064979795572
-0.01641432333367009
0.0032488312753606555
-0.03512514547964657
-0.08803118757356415
0.04898030694256945
0.012007203200136618
-0.005350108434263992
0.0016250601348717275
0.014519315980672829
-0.02910032530239752
-0.08516283566654678
-0.030096338321267672
0.005859487668738803
-0.038302117475031816
0.17716892128464293
0.09595717712430843
-0.12085416053114477
0.0264658907741668
-0.011281652220352996
-0.03193176914062183
-0.011381985308004714
-0.00280798764852463
-0.03786177810733995
0.011927637295463105
0.05936211615164672
0.014725173304553986
-0.020139609319728552
0.03830057469110123
0.05782912768637587
0.015174753592415862
-0.01743401726325129
0.0036156013039086816
0.04240545964537441
-0.019044959232342045
-0.05598792420186948
-0.022763845767974595
-0.030132156532249613
-0.02088352951570323
-0.027143249016527846
2.0742888903461904e-05
-0.020061313767118456
0.0032065796500040777
0.010233496411996812
0.009539686246478203
0.00987840306207163
-0.011765887970284952
0.004693909664923343
0.008365971964606053
0.002740144888636669
0.04178632296781092
0.023834797818075664
-0.022861790917436467
0.03267310187236972
0.016775606982289054
-0.006913097348125197
-0.040581752804196174
0.05626076716238971
0.02695926418631099
-0.03473418343282861
-0.051196959529321906
-0.022503508912336427
-0.015831679942130552
0.06221599377432776
-0.003257419995601779
0.06953054547819941
-0.03394126541271807
-0.08927466071896323
0.05837593397192129
0.07589518076084613
-0.0017855871211116354
-0.011096237034654179
0.016182116316377167
0.006318332859146003
-0.011593914393684934
0.003742583502225006
-0.06650425328176074
-0.07481788412464362
0.007759888942098321
-0.01607918993924654
0.02943146964332887
0.028533125062056172
-0.022712503550382353
-0.006961836646217664
0.05855397455956359
-0.0398009439492399
-0.01450701259705045
-0.020598768205337223
0.03840601625122712
-0.00254576710174483
0.0325548183360295
-0.012576145840846388
-0.01714774060059689
0.028460862985032566
-0.014280624797519091
-0.01717169251234694
-0.008760850583060167
-0.02286253480659742
-0.01761755872582375
-0.02499782426047654
-0.04086497482725557
0.0007152522261455772
-0.006776143511277305
-0.005636935859460277
-0.01623007765925221
0.011141352587264685
0.05494039950421165
0.013394020479805304
0.008558004943477016
0.05794973877730111
0.04397734994505214
-0.024905839837880063
-0.007066985067645002
0.004534728436406493
-0.02165238648983509
-0.008425192902925345
0.05707861529038019
0.042291804800046955
0.03220541729689295
-0.04588777026000836
-0.024327524066052812
0.00515360562016421
-0.005263354104343399
0.0006238446819297634
0.02820625502612688
-0.06342025857112306
-0.1293771937855409
0.06209550525483638
0.04873136420530282
0.0007356787297062359
0.021762141218507686
0.07014855028461711
0.06479830616165295
-0.042940921091128285
0.02467329738403705
-0.0204763600501199
0.007744149193167285
-0.025626778431534943
0.030436698067368668
0.02433346091530825
-0.026533165705973534
-0.031551385398282235
-0.028953386010211163
0.04416528865693041
0.00597309695714035
-0.021209035740634753
0.0191780719565358
-0.05111444210112559
0.001295891268877628
-0.027151858964868394
0.005201827746736866
-0.023507773476079043
-0.02655495439621859
0.018078414051794063
0.022917194927627945
-0.04580611857595033
-0.07294571710946646
-0.07190890280679152
0.010570715183505327
0.014296900539601922
0.049323949939957354
-0.006753596661675101
-0.014339324626865714
-0.0045268409182912
-0.021442305656612825
-0.009243072576001262
0.003744903056361087
-0.03988556135994289
0.045673921917717825
-0.0028502387690097293
0.02632204137973204
-0.006200095010581265
0.00705368471127239
-0.047173377169093256
-0.02153141699233316
0.027035568219971766
0.00693672353098646
0.09478065217740037
-0.0021587079887161985
-0.027174560037551948
0.0019941076719003636
-0.04448396627438218
-0.017629998126999825
0.06363120840491704
0.01208247763442529
0.06374696097760237
0.02963920467238693
-0.022134609926443963
0.01786392601212765
-0.0003668657113621135
0.03318155235263992
0.00851199543376735
-0.004185247005560959
-0.008433840974073676
0.0373570565166795
0.03411922686746254
0.011398368355758534
0.06956329060602699
0.0027685877889455867
-0.012667587246206485
0.055656880460418334
0.012739457040292945
-0.056926708385347184
-0.016859967883714248
0.01164039161933471
-0.023641085277327462
0.02023831857037714
0.047887207062941126
0.0008811519793812313
-0.05172453075661146
-0.0004212992290521799
-0.057866326821906476
0.004188105749513405
0.006496822624703163
0.03452274096729642
-0.07422526909108862
-0.1396210407204678
-0.009905886609480764
-0.013378916632307345
0.0012018917485253557
0.023299110363583724
0.08194261414853021
-0.03178035437381691
0.03888516183356511
-0.01921555849854781
-0.07390433766334742
-0.004516722084280027
-0.026519768700378508
-0.05378427634500046
0.001561288199132643
0.024381002785851966
0.04106732063508385
-0.004490965871929947
0.006486042607550985
-0.024502376469269546
0.028582717572120574
-0.04482706845834722
-0.03965994650549126
0.03681631779046969
0.006958334008087855
0.011286518945957363
-0.01473829833604409
-0.007872919269191692
-0.0629939755122684
0.0024804169774419642
0.047684282091681275
0.007222688640520536
-0.0032798962416516093
-0.0028133899003545113
-0.048223984308890126
0.019313462225090266
0.04856547054647173
-0.01611120774761992
-0.026241422124916033
-0.011793426051864061
0.01295540500840788
-0.023815008530288152
0.014065231221130082
-0.01831417467617065
-0.017323576293766626
0.027073574397222917
-0.0010195605959912473
-0.011763206314409656
-0.015005329690097886
-0.010892036567972966
0.012716880695390648
-0.043213668073273814
0.0960732604029973
0.029810512982434385
0.09298364083927337
0.07671806728331805
0.04052109140437629
0.008575644650004342
-0.023892974949357444
0.002597394262994619
0.005106261792552034
-0.005249080591847117
0.007217498114086026
0.0413928686491022
-0.02140864565558355
0.04378038954505399
0.002926109798550884
0.011620002845068438
0.016146626383548524
0.03798895233816444
0.007739945011396165
-0.005793201198229496
0.0032700286348137817
-0.051191578062620355
-0.05591196994431886
-0.014335197222342874
0.05091241983426794
0.04872075941759974
-0.016838847791832933
-0.017446492826050465
-0.011756603145786764
-0.039983757366426544
-0.036993972620443356
-0.10629937001762947
-0.0288127025348864
-0.0058966125532383335
-0.025235808964669572
0.007068300985040267
-0.00898904481687853
0.009602144165647947
0.047418684547748585
0.0934985503185466
-0.019283789901219914
-0.005855984311165757
-0.06751033336145473
-0.13638542742430534
0.06411946081076854
0.006454442825540889
0.019974709315069953
0.014062118834615615
0.00646350418694042
0.04591479660241383
0.010283363810195486
-0.06199249360949439
-0.0529516936528365
0.02816161830555006
-0.07895151111406777
0.06396897148852455
0.12620097884217196
-0.03359250632146306
0.037285599904661286
0.0008258336288839668
0.018111234719280486
0.015574893789620257
0.03617889017302792
-0.021920852662855546
0.025869178862374772
-0.04366139053658206
0.018765052022200253
-0.03011223565968702
0.0108500099443616
-0.013086124440884998
-0.05318328943597635
-0.0019959869984129018
-0.012378230000329254
-0.02092974808950991
0.001895229426270734
-0.07929311463937425
-0.09235832171131012
0.026776520124221347
0.008249807481241997
0.05869895791727263
0.027255625784381055
0.020172198882077177
0.005333460026120853
0.013827200733380842
-0.0028076200079057492
-0.02594541730900644
0.008592834390327361
-0.026774152710559152
-0.015886112275891266
0.006435185867660921
0.0016237644951154905
-0.005480993315442733
-0.019983679039008537
-0.013634114064039788
-0.0008745804389648206
-0.010732983620320248
-0.007453759722796269
-0.02954918045376444
-0.022714197679313323
-0.02699776719691363
0.11356114459202303
0.14540764489348815
-0.025354599648157977
-0.01755924723159343
-0.01661124039320727
0.036732365125396134
-0.0024029661456902766
-0.013246330162773347
-0.045808304418481896
0.007903079563708322
0.05390007470924199
0.0637805687805988
-0.007680791074823766
-0.023832966246771576
0.004170810659425201
-0.006894749611816
0.0020860498543709477
-0.02169922501500776
0.001206047524332436
-0.02608132532861284
0.030499348679758637
0.07985451396035541
-0.025007471372391742
-0.029330849899942554
-0.04107465092641948
0.0009645128296231439
0.027788490507136106
0.01226858329484614
-0.02799667784310188
0.025636298492463898
0.010958366741629835
-0.04417622129228356
-0.0183043304271789
-0.02330699197930422
-0.03392306749689694
0.03492778143320723
0.011939841530449921
0.005215198212739403
-0.01107711185608671
-0.004788777328613712
-0.04720157382845104
-0.053231484215780646
0.027558441389838678
0.0013146031016078481
0.11728124398168376
0.0632938258206308
-0.03498578396398907
0.020790111499915095
-0.0209525367789645
0.008553474443562607
0.01998353084589132
-0.014722465281286566
-0.0099061687482273
-0.0023978771626541368
0.014531369348197567
0.014669700177033092
-0.01416744440028438
0.019076227586829246
0.022217014492613648
0.012806782788007863
-0.023663794578052535
0.06116461905728277
-0.04998351291653649
0.018225571637857447
0.04624036764593394
-0.11262025070794929
-0.03482879282644365
0.018409529344362983
-0.0015413110740166963
-0.0057451528904623435
-0.031611784752390154
-0.014061808204607618
-0.05430736935972864
-0.061808834776880484
-0.017775621704588
-0.017164393457530416
-0.025936427932488303
0.01417017746508151
0.03314122740109185
-0.0006310892462809235
-0.018826815187258178
-0.00901621016931629
0.013547773085226403
0.027253473110618136
-0.005572083657160881
0.03696269808153851
0.044318187409281645
0.012697681876989029
-0.014819169861051088
0.01400954023776611
-0.06713290568791183
0.09497377710833944
0.08610310538038232
-0.03415492394391033
0.029773279749806317
-0.0014370596219897775
0.04166846916876328
-0.005388848399488827
-0.023350809890574236
-0.006405558127677523
-0.018447703758974813
-0.015521575131724457
0.022873540118870366
0.0043095226340154925
0.04653838280101607
-0.032777096796934406
-0.08316988539505761
-0.008598705660930194
-0.03853100571634648
-0.06895883925125616
0.10800658384415124
0.06554893701133373
-0.010799325206137897
-0.014460859502987446
-0.029600870021171472
0.050119466802527206
0.021115031409399732
-0.03996737274632281
-0.031060383678658522
-0.010017616592669202
-0.019595871583197554
-0.011169035125008376
-0.014547274288678509
0.014934936591227915
-0.01894744073238867
0.04870602134708026
-0.003895753073743194
-0.015238349417684344
-0.014798424694725434
0.0013091771474293423
-0.0069276712516502924
-0.013274250668762484
-0.01173099870023374
-0.005706434021466296
0.03100171523659572
-0.004891123912780893
0.011547963860602029
-0.026770792193169194
-0.0243320090936386
-0.02471127960290987
-0.011897707009974744
0.0711358774613632
0.032697467949777306
0.13857065172940194
0.115603303638543
-0.09980073185257365
0.006634418723068517
-0.049582577377191066
-0.0038594489151422295
-0.007599821939294378
0.056370860695484144
-0.0064411822231214754
0.02552569466090712
-0.026401219044434147
-0.026908717622126148
-0.07944116768446169
-0.060635192808818794
-0.05299283958907369
-0.013520540514091689
0.001640726122770599
-0.001244997338261533
-0.0002212203450536204
-0.006319365033352406
-0.03666559034123495
0.061182120038587896
-0.00871221124896916
-0.015774336088268434
-0.02135845327823829
-0.008053429731022915
-0.004471074167662647
-0.03686651170407623
0.02178054784482067
0.031020056145000648
-0.019241995678910672
-0.03341137628040029
0.05755758596667577
0.10057217723023194
0.059510114643926075
0.10352425796651724
-0.01894120339198134
-0.045896536993655826
-0.03232258491379509
0.007787153863165616
-0.018144037314626143
0.004446073755550494
-0.03129264793050607
-0.023362520908974754
-0.01763806899171641
0.159384262388738
-0.0062624098803391905
-0.015720080486566944
0.009462226187788695
-0.04305241598165834
-0.004071972108194981
-0.027665725815058714
0.013548996969532861
0.032567818351096664
0.007230136143556678
0.05250487815907523
0.020441255682231013
-0.060980479445174145
-0.03312722910304225
-0.006878894264453822
0.0077165024208664485
-0.006374594578374048
-0.10190291508665124
-0.00022897897152708354
0.016061228627158603
-0.04604736221198875
0.01399234849478995
0.027086615350195766
-0.012764184167003723
-0.023138700736557615
0.039395133632892376
0.0627003588556108
0.05835854914165099
-0.023932920575283546
-0.010582082232915438
0.02719904193958388
-0.002878829645863962
0.011806179250214537
0.007024148517205156
-0.027886697400205888
-0.008409497525283952
0.011343454798506356
0.012309079086520375
0.005719717758298643
0.016311576270689566
-0.0015316624092799583
0.09163946712204402
-0.06615412230377148
-0.07791649448522181
0.0095379462235218
0.008961609521845921
0.010743289863043624
0.012315273113488623
-0.04537459128066755
-0.06033158240770151
-0.22772910084814324
-0.04258374461493313
0.03770276284391672
0.032249195242272786
0.015205619221097246
-0.0021159611191670477
-0.01680160841259638
0.04211903824915256
0.017997764537852495
-0.007453107366313234
0.022488491873448837
0.08149145869977527
0.08988880566003828
-0.03473185203901997
-0.046605835359147224
-0.015406055982269516
0.03543408818154635
0.019332514704950624
0.026045770826037956
-0.05565991275264015
-0.07272342353661815
-0.010556903254442918
-0.015791642786812537
-0.0004804024817995187
0.011471742179765045
0.05541771609060887
0.05349378581313476
-0.0009949843306846578
-0.014462595574519089
-0.0002526300586827915
0.12187200970069258
0.03229328449868511
-0.04130137483731303
-0.05775938141128025
-0.037820150468839825
0.03207503720840207
0.08324613361574844
-0.036285311107617804
0.00321267149964055
-0.023119202050391707
-0.008230967303283009
-0.02102250003020822
-0.0005199782386164706
-0.0034975750555960353
-0.022659544867564108
-0.003839650114575359
0.039991200884272896
-0.06920462150823391
0.054747404934235425
-0.021121332105853135
0.001502759046033744
-0.0119771074236364
-0.04841211583418418
-0.010246485478010625
0.00958706191708714
-0.0068998579658577485
-0.015445944079897593
-0.08833253472691625
0.07462146574116178
0.175282794667371
0.061975894903658554
0.06314258914213278
-0.014276444237517666
-0.17380728233090567
0.00043843763522965974
0.020045484065721587
0.010330750916079386
-0.03689099645082699
-0.03186484272367393
-0.011050081853855817
0.03912505363670619
0.041561070164361606
-0.02446907835106973
-0.018084232071909758
-0.004181147051041089
0.06427973371696423
-0.0002406605174658528
-0.038568812957209465
0.0005930364848784255
-0.011648796774056235
-0.02054472793007997
-0.007306904129353132
-0.11983001078365928
-0.03746619618633198
0.10185779316224758
0.04327107080288596
0.04531191811925056
0.03986864793711858
-0.032890721348729626
-0.025709510299128234
-0.005674165184145475
-0.029991487458225774
-0.0017355405141775415
0.00509623387662602
0.003817699803640431
-0.010640598960140234
-0.06476181133285197
-0.04068479431233981
0.014748253178330306
0.002175868207635691
-0.02104545187438492
0.06765322039158805
0.13175279820554253
-0.046888097123161
0.05027017906363614
0.09012495629033178
-0.00992751955133004
-0.034699638500758974
0.026031147182899825
-0.005605890846854427
0.0101604487135164
-0.022710083456079153
-0.006029343465595677
0.00986843651240909
-0.006968273298692592
0.0018777951767725432
0.02836744167414837
-0.038622416492062335
-0.022854924063918258
-0.007800004492212106
-0.012766073774518459
0.015025216861514852
0.0074943505065035625
9.18722598659959e-05
-0.0034155160837247805
0.002803458968376397
0.03250203322297088
-0.00863780261115104
0.00011088099292128295
-0.009715614662659404
0.018898604364375324
-0.11791448456134701
0.004182905372849213
-0.05372135786571004
-0.06499744607459143
0.022719360742003453
0.016037610881567438
0.07289370117372262
0.005583547993698224
-0.00824114564156623
0.01049630948148396
0.051339872627348376
0.00037090259867268824
-0.15871919839084167
-0.04549678051491718
0.05080460723413559
0.09821444165377093
0.02090570508063808
-1.9266096217850444e-05
0.016137011227341756
0.021993718924518058
0.013829685688672043
-0.03529706056638693
0.013710879504911245
0.08288472926188714
-0.06623394013698276
-0.08316545819486292
0.007319714000613581
0.06270828957917572
0.010066593997642329
-0.05391936301439897
0.02527590034847978
0.004257490728758402
0.029347538017722247
0.0026781949372723
0.004029506825882232
-0.03906873215811119
-0.034649403135259896
-0.014964685376378387
-0.0625944774323922
-0.016163562612278404
-0.021342882119080496
-0.0007182951273463309
0.0030559952377539287
0.002743282856964652
-0.012207673589065248
0.03750230531962603
-0.013253313644674941
0.02740071581707154
-0.0005239337910474598
0.06994327380508653
0.08364070730217629
0.03760150205461431
-0.015058035415995215
-0.02329228951729485
-0.07669642556157186
-0.03576952452719685
-0.008432872585781006
-0.0524009202600908
0.030448129693422823
-0.00399225535029145
-0.00989572305236028
0.02847625992628226
-0.0017011487625469236
0.004540510300820619
-0.0013532715697905672
0.0017307612900636462
0.015513534271326547
-0.009643511553591347
0.02555045886718626
-0.03686023475280795
0.12618639820562433
0.1375484846902016
-0.04532401635852597
0.03439324894256303
-0.04734488959360704
0.01300051355389847
-0.07257123940084922
-0.08222894179168384
-0.012982551459263074
-0.023805243073342877
-0.030030556900421543
-0.007249793711142786
-0.012556119643430622
0.021657942904073944
0.03987839682699784
-0.03609966719922377
-0.01658995947933162
-0.05780039516668951
-0.0592124600957278
-0.0007744158860874092
0.08075913481645546
0.13479503373845997
-0.1924427734448947
-0.01990811574550298
0.024877397302495167
-0.032366691738577105
-0.004503500166072678
0.11045991730412984
0.17597514971674977
-0.053030788815105305
-0.026590919795344375
-0.028912772390287937
-0.037358945620812496
-0.02515063134500627
-0.031107866719029806
0.04161400488541703
0.058723920565438716
-0.034248057507209856
-0.005240481364340476
-0.033893206529430925
0.03494941372042378
-0.04419741027496647
0.19261448835716943
0.021836371979566307
-0.11068664783091496
0.057999194837582785
-0.03991631335799099
0.05027601866422225
0.13041011016643483
0.0015609763564173992
-0.014222601845856523
-0.057533462196129134
-0.06566087842518735
0.006851639761264616
0.004303443343828452
-0.010164539752014524
-0.05219703485387741
0.03646448489456885
-0.009685046902618283
0.054144060365951194
-0.0006904452605375497
0.076990491903495
0.06162945050184827
0.006123074316478384
-0.05757408346925063
-0.0802216811551237
0.06577578497031515
0.02829320122127181
-0.0012510682759267835
-0.017810923066123405
0.023595783706208927
-0.04389324661719528
-0.12352875152080163
-0.00514591563329846
-0.030335717551298356
-0.00799222667103586
0.0040023256768046194
0.010204467698527245
-0.03466528554589967
-0.01620785810698527
0.004580844162876034
-0.009711229089707075
-0.06879497829671435
0.022758275567988213
0.04978953601222437
0.024367826575709396
0.0009992165996523337
0.004719261289710929
-0.0030435855220465693
-0.05167554452732419
-0.054998118834594344
-0.12286335180233847
-0.015006257719069103
0.028118459866766764
0.046963577217930284
0.06898425796726139
0.04588297483142946
0.032566004560704194
0.045353445047185525
0.032890198478461516
-0.024849235753112174
-0.002107393334063888
-0.018914091947125056
-0.03145841769714473
0.07722244772369903
0.04084313094863767
-0.02679463552755791
-0.0174774406122823
-0.050494869846445654
-0.00717257504410623
0.001605064888691506
0.0015295936475107827
-0.0204377945942271
0.010547514156452765
0.00830760270856301
0.010323474510993174
-0.017158607528714686
-0.03072805260053294
-0.02597395607855959
0.03698967585726362
0.008213068137329348
0.03885491796418884
0.08621084519046492
-0.05004090827946854
-0.03137467530221349
-0.035659215250191875
-0.006351572661577532
0.002788927691070174
0.012558957893353484
0.03220505446901461
0.03250547213731398
0.0013086418411752858
-0.02435371748954958
-0.0008179974471745214
-0.018530465669173848
0.0009088279106383536
-0.0013259650329331169
0.028606547742602257
-0.0002237477546315663
-0.021157406001255222
-0.0024648042610699215
-0.0031464088597142554
0.03799225715106218
-0.021056139499994516
-0.005012542639439589
-0.007047058781604687
0.02345220222333144
-0.0063290306067781575
-0.008354481571738591
0.026540886736584834
0.056098488866369416
0.0019288684770456849
-0.023028054363980595
0.0012379823735864687
-0.016425126267018756
-0.0013188348472051295
-0.056434128011591186
-0.009498055858193546
0.0016935199765346365
0.033057708963503414
-0.0027577486077542423
-0.039509431554430076
-0.0037985723440387698
-0.0067289157105638025
-0.008466861385207735
0.020780485214456752
-0.015113733544600112
-0.005040885031716018
-0.0370066203824298
0.013106894431244454
0.06002511742316963
0.011672089512053839
0.043706165322205
-0.030554363725825706
-0.2111761491767732
0.019056065149276075
0.04993363701247178
0.001637615075572965
0.01572030085147644
0.015065306359667723
-0.022488797715161497
0.06851913992206723
0.057566048191442905
-0.0066448077322298
-0.025618581633800562
0.03948515929143485
0.05578583764175078
-0.024667312858819426
0.053592157147924493
0.014266077044602638
-0.012593328586823568
0.009025801891878023
-0.03922065890267647
-0.08750099246730728
-0.05238025825103282
-0.02013192046545425
0.007340439619127418
0.03142301927973718
0.003612804335960607
-0.020522333890331288
-0.04192030968512218
0.053402900330629305
-0.001704688443407223
0.029384396561172168
0.003803138738461093
-0.11133479110222713
0.025511401929694248
-0.03408659694694872
0.002107831506197724
-0.00515081548677759
-0.055617014074965956
0.1565395094532426
0.10420249151488332
-0.014265493364059679
0.028160757198086025
-0.03397079079649577
-0.003298018059480419
-0.023682499648008136
0.013531614758462783
0.015116448792921428
0.04749358274732722
-0.01927600939582044
-0.007107900727681715
-0.037762412612099595
-0.018731333941940615
0.055923772041351495
0.02199717689125936
-0.03377955620939651
0.008274252121752446
-0.009080307976880454
-0.05731526146347149
-0.014385777701741858
0.0371819236601031
-0.018570004145626002
0.0038562413115416504
-0.016356655751992636
0.004388082883101659
0.028559204438489676
0.0889617870033053
-0.011138424092384355
-0.04776677672132179
0.016797531441547803
-0.011301651513049366
-0.02790485014553043
0.03672826898616974
-0.011849413682283457
-0.008128211035356414
0.03613351462574711
-0.014314209170573158
-0.1720936497274902
-0.011262663221745158
0.05526354656857704
0.010809218693658747
-0.015629450547852062
0.012171586095483664
-0.1277036292954383
-0.019777267593510846
0.04358057337685054
0.027304187613844157
0.02361534028985622
0.004391887812509874
-0.00978965872269941
0.004679772867399515
0.030265331112314428
0.11951355522578111
0.012236695519730867
-0.008244360941101763
0.018094660312614103
-0.026777723735352914
-0.0032197850209729306
-0.041272971777579576
-0.03108210135022931
0.023066278232939903
0.039738698390243084
0.018222275857015795
-0.002837145770225773
-0.04833857860663466
-0.03739903083027932
0.02072372070298136
0.000389180975921104
0.019266435101052578
-0.0301051305582179
-0.015160814822115525
-0.0009004944304189921
0.029597695831070588
0.03811742872401771
-0.05602495072904439
-0.06826037923225653
0.0018736712651269203
0.012544069591263841
0.029119364795246416
0.032062866294208237
0.021799494018769967
0.07097088791148055
0.061771785566510966
0.017610093993009193
0.02904870019036972
0.017834771422163633
0.043703925739403696
-0.010492479823234587
0.006718932513671518
-0.14903370960968984
-0.005906813240950532
-0.013018708756698156
-0.08229872131672333
0.037268689736019
0.0036679697052768075
-0.019134347554695782
-0.03938865944353689
0.0370224211064516
0.03133323275419926
0.03488364858451658
-0.02800199556554773
0.015263009441027639
0.018007094807444043
0.011496879402867631
-0.11140334429784259
-0.11476355658069481
-0.0004758760073171966
0.012373791676241306
0.032658225682677615
0.010588597511463614
-0.020211330997101658
-0.020708984091102146
0.006818450326784701
0.05270798566831117
0.04922217111201064
-0.008383194568658147
-0.013157950841925581
0.0295653829385889
0.012797007374251296
-0.04687350188816408
-0.023962298373318813
-0.03302311234916553
-0.04457772082723411
-0.0355974240021036
0.021190258291937807
0.004172550758262965
-0.002571563432233444
-0.019234075721269346
-0.015437235761628507
0.0387814946817558
-0.09368155340824325
0.052601282209436336
0.14498734858579165
0.00027358818457670734
0.021630668390857765
0.03035990535495471
0.03262010720966494
-0.03832430824000932
0.004258036992248731
0.033036961641606216
0.06560495251164086
0.036019340073838446
0.012104740954466883
-0.028775026095257467
-0.018295321734456933
-0.0017164424766980433
0.02241095758932781
0.015470181958002014
-0.012515820285033891
-0.05804717567032386
0.007119982485116452
-0.01176634622425798
-0.05388671929767728
-0.02878935081457904
0.020779350077120836
-0.0029314328384859346
-0.014441700308057824
0.02065275556460788
0.002654360287867732
-0.0363974160575329
-0.04104710832086184
-0.018607321923803825
0.1790090221013607
-0.031204946870119307
-0.07051026935936429
0.014935395942906726
-0.008086952950438755
0.0251024595647791
0.0823904050435708
-0.08404164800722282
-0.04601249005753314
0.018159092146695956
0.032826647060399096
0.010032667213305625
-0.032420733525079896
-0.03687248408881729
0.00838524471238973
0.06518879264520418
0.03636699663724577
0.04734400315072238
0.0060821419517131355
-0.021340808720603587
-0.032970825220154196
0.030693783778845175
-0.0007285207885513591
0.00998388951391989
-0.013873923752201277
0.01761210574166511
0.05718384518215366
-0.006215430440167141
0.014984330401500158
0.01935711500872764
-0.0008525271221286072
0.06838265690484857
-0.11690501827677989
-0.07998025247336189
0.09770546684877018
