0
-0.008483019205592312
0.0028764598173462567
0.0688696134030646
0.04088758190293118
-0.008446488744521086
-0.019430858561185812
-0.058397907120691706
0.01577927722734408
0.09722982679238046
0.000621857423695375
-0.044829964813393915
-0.03570173063811076
-0.02537829526182072
0.004835458361962411
-0.027254682762029667
-0.01443160480444389
-0.010068560219791085
0.01976686342414619
-0.01674348110595253
0.007811960840359771
0.12626777284811472
-0.010172770077747475
-0.029346313397548906
0.010464340944558087
0.028030998322193374
-0.02759275089504273
0.018254376925666733
0.006857889916959988
-0.022013027807961483
-0.01112446327216646
0.013536329659362835
-0.013773512066668662
0.04754809681810696
0.014819345956531118
-0.01442311815080796
0.02342017520388277
0.019519584864703926
-0.03705373300996306
-0.024293397683907144
-0.017687916048110423
0.00905583097645893
-0.002869301612047426
-0.04540593157819655
0.031192580670761434
0.0830126580332551
-0.02099817873625305
-0.0017636573907044819
-0.008036608747377343
-0.013279163835739374
-0.01829412867041596
-0.017585225378810472
-0.017492202022398397
-0.04165502306051587
0.06099535274672001
0.09020928249981462
-0.022008573347412932
0.008327189462357366
0.0018451108145549518
0.0032834439014521604
-0.012632254958851518
0.001383063920634713
-0.026969312517844044
0.024030692094612248
0.03471515611944587
0.0068439095439248145
-0.09322392609929384
-0.0736480029594134
-0.007365320758084502
-0.0065516435389593045
-0.054467562657382895
0.04398396598095401
0.0746236945796598
0.0015722658376411383
-0.016974747296795746
-0.02466245204719552
0.00925574836995305
0.0028919681510314586
0.011979773317120718
0.005486596451398214
-0.015881404995045766
0.02612007090019149
0.005458934997677868
-0.003348897474838028
0.0030486723921520336
0.005009675670235527
0.016134917721605083
-0.004742354753693603
0.07133146389419232
0.0664103213050936
-0.036251110295324546
0.014216029644747151
0.0038446670637967703
-0.014642945820916492
0.03109223271669376
0.015666973233638325
-0.016901514217397138
-0.02288077713697528
-0.017664696558332464
-0.03457434934192042
0.0927027339845327
0.0036620123395164324
0.014947429750650602
-0.03819553413953222
-0.002978421714726496
-0.06253310317907475
-0.09159871048229055
-0.06495088950609589
0.02359515499883763
-0.06336667987502392
-0.04164278072735607
0.012276980305456238
-0.02686184251966807
0.021984465925276243
0.0067140025048948665
-0.004938053187438776
-0.014157732049233748
0.051063629629131996
0.0074935745670232255
-0.014973077795444364
-0.009280689682064124
0.0004202382405436588
0.08768877326748609
0.0249417827300957
0.005003285048406599
0.024250774755236244
-0.009063195871705114
0.010958252507116791
-0.011700375324145891
0.02406355259826182
0.038063706958089104
0.005824918797823324
-0.07503392064428271
0.05191421009555892
0.13243666246277438
-0.08829708659914143
-0.02209641275659409
0.0690250072384298
-0.16612314186634822
-0.022028557632807436
0.07029195811599494
0.0042786052862142845
-0.0032196724257466643
0.01602665522736375
-0.039316368696493006
-0.046917551225918445
0.031109001856660993
0.03978964767447558
0.030762779175251213
-0.027602498464750592
-0.0024999391888948543
-0.00041934897792273796
0.021998123529450443
0.01776806566959004
0.02063001811542052
0.011197124715879386
0.01804002468436784
-0.055226808179654495
-0.0021403973583167613
-0.034478933154521815
-0.06222695285131063
-0.01953377612255818
0.03462185127037669
-0.02404853652754893
-0.0672052328455033
0.032613096497998234
0.024071572733441876
-0.0027020818185773017
-0.027116365806049727
0.061965437916835564
0.01654443759926055
0.0019986801955347165
0.01999386746433432
0.023377920072480428
-0.024921186062807042
-0.005690065292132191
-0.028357287145482087
0.007110325283567103
0.04435676038826341
-0.023056174320866343
-0.03254299414563216
-0.02103933956093082
0.005849438667431412
-0.005611778908872106
-0.006746521879846332
-0.00912819550242221
-0.01664671150812189
0.023257205922117986
0.004126420992062893
0.001600105095986024
0.006848573593857706
0.015336785690354772
-0.028198633907954417
-0.014530420173681115
0.01806176309033615
0.03575108698590021
-0.023641016324465275
0.02760064068334365
0.041547505680942995
-0.042214379348596925
0.01656375171611075
-0.02415233390654091
0.07108927404585699
0.04097027002311642
-0.01745940423096781
-0.006414048178301862
0.04080280310627486
-0.00858885246070727
-0.025678383620253754
-0.00987901685083513
0.0065564449065817825
-0.020255806070158696
0.0003802747090338666
-0.012965200282082612
-0.007179649465825533
-0.07445357417790006
0.07646378603567332
0.025154940594633118
-0.007887120045257096
-0.02730830590511297
0.027663277610640215
0.0016478310438884293
0.008938108488982908
-0.07497230319350145
-0.0032188735766345844
0.030524064113099714
-0.01766379736299707
-0.012809017731111238
-0.005577661280187625
0.02635263317786344
0.024201345206495143
-0.0019337310741103497
-0.01350431023117628
0.04067469239009689
-0.00017284157309742357
-0.03696861978224509
-0.06193553302188016
0.014339214456822605
-0.00848861951743643
0.034749305991662593
0.012044531347417505
0.017092263096817654
0.022917191902237892
-0.008833215471749721
-0.0087788734118205
-0.03702906247434566
0.020777491095143798
0.006457933883077845
-0.030591927023435234
-0.02542057356060452
0.039671392063093905
0.012205584869975502
0.03591345113470956
0.03211889094863918
-0.017060218063053387
0.001585582214790019
-0.02671354556518083
-0.12688519304779422
-0.0029840053589328896
0.015819971279495762
0.02343481518005956
-0.0015894618687837421
-0.030432581269187513
-0.022907132940241
-0.013923717018356138
0.05550504784368225
0.03357441841317839
-0.0024510411756969966
0.009716392646821732
-0.0025475385166236738
0.0007906713676914014
-0.03515312327051169
-0.08286252084212446
0.07392206356596041
0.007892292366954198
0.05916612107730966
0.02114818685953212
0.0117402670605301
0.06216737721235351
-0.008989753544798848
-0.003257700371413992
-0.02927271833436034
0.031063268245517264
-0.011936245559013514
-0.012094559583840137
-0.0022156602795190606
0.016631346557059397
-0.04868684016380407
-0.02520923545297913
-0.00134783582009286
0.007578081499943368
-0.03401997884715168
0.027635680800143322
0.016730301203363968
0.040291572409260346
0.008864353576683586
-0.023448587022497972
0.05318115093625517
0.10916304182298706
0.019747666991914506
-0.027404380675308367
-0.004485940965724894
0.025324385593827138
-0.03003883003128941
0.020818925230979758
-0.04432922962845778
-0.02374958083175314
-0.12119073942462807
-0.14149834598553032
0.01648924572869093
0.00120750589485097
-0.005131952663361949
-0.0012120888416971094
-0.03378268614422168
0.11534056880534654
0.08045898593762968
-0.03936264345543528
0.014994848849651684
0.004860321477188797
0.003563404680363991
-0.03655658906022636
0.010762943451154874
-0.04261035490852813
-0.005461119620692637
-0.009262893437469676
-0.006469868874726839
0.025200217010428246
0.0009454572751653758
-0.010780752695779513
0.04073531295820302
0.03550605539872723
-0.02592060899377312
-0.02917415462603755
0.01110338834684185
-0.005988150537447937
0.0361998832734424
-0.019332089125700898
-0.022821605756997796
-0.011610580166005826
-0.006591664999298089
-0.009848275027626916
-0.01576338383526398
-0.05538655596707505
0.044605554001911504
0.03432034397694711
0.00038553286395478505
0.006956837233404143
0.025260742954801112
-0.06333406496548943
0.13440192303522533
0.09926857452191921
-0.0804618914773993
0.025218757961032408
-0.044157279622673795
-0.045747486587368484
-0.03941130052925178
0.001081575171827376
-0.11052219976667628
-0.043932743684362875
-0.005969300204283744
-0.003164113103286438
0.018554941450064956
0.007149915492954029
-0.0036493280128584204
0.008964844500767335
-0.015870963625393638
-0.025404470383188237
0.027278484305215876
0.20632594359158785
0.02259975383468014
-0.04179821053089293
-0.010172977370856576
0.03623652856829074
0.014319128554687964
-0.010342872077234042
-0.028769435934370424
0.053844153881965943
-0.008606783826075375
-0.06168199299898472
0.004835946942576972
-1.011734533971706e-05
0.009283899306421402
0.029572851897444588
0.04915985930499123
0.005000412273837524
0.029303877454345918
-0.017464506109378736
0.03410161127119314
0.02673355810128444
-0.01563553702729985
0.007419661928865079
-0.017542286590028332
-0.01644367418752414
0.003974274112157575
-0.022364650364894868
-0.03632589823824389
0.012733313686595488
0.008101293965845111
-0.03483514800242564
0.014560149937532716
-0.002233682360808873
0.007927735721504268
-0.012576940306659738
-0.015971700311304203
-0.06249054760888865
0.009950827764027063
0.026581617309795705
-0.048259821868749136
-0.07780360167662148
-0.013924672548912645
-0.0236880376766536
0.024143523660237202
-0.0022003891057022686
-0.022250116340331166
-0.020026304871124383
0.008468533747955781
-0.024912807502378082
0.03819638108745893
0.06372552261893484
-0.0028149380668874486
-0.010964833583150323
-0.03683681756358948
0.0018635900006372416
-0.023532894950206145
0.004278705781243145
0.20382059902670532
-0.025927161000252857
0.07960238518139529
0.1581955978105618
-0.03280057912814262
0.03087242755115037
-0.030642050827572053
-0.004942915065837835
0.01743563372822749
-0.0019848505223630138
-0.14636766341240123
-0.05499001718556806
0.09693931273778462
-0.02188857004021016
-0.029161054866207663
0.003623011866424218
0.006032144273332787
0.01733642885525274
0.025224839925533944
-0.018855018534319257
-0.04931219561980776
-0.01184227705658889
-0.01752271737565497
-0.06900680840354635
-0.014822409605947452
-0.0075067601101609606
-0.028175571455020056
0.0012222693881792195
-0.0016467408523222172
-0.035087928245860156
0.02757629262397172
0.003510484323135083
-0.014635354982111715
-0.0020795725119992403
0.03101938634008529
0.054670813004092565
-0.04074996472736448
0.0048580093018800365
-0.04318346332490991
-0.02498720646305564
-0.009045668459849289
-0.021940466999692394
0.03609146781549515
-0.006761389122513711
-0.01689158284065502
-0.027708550964740508
-0.015316029471194488
-0.02085075263388399
-0.011987873618398153
0.03506102182685438
0.010503094518724887
-0.02828171352019821
-0.0495575350609921
-0.01725832141209534
-0.006231663288633746
-0.015027198017670723
-0.02951072039767069
0.019193539438005634
-0.049885752635477454
0.3023531245950794
0.051690699212501405
-0.010797135714450845
0.05092001572461867
-0.007975137411664144
0.0221220302589494
0.03440996123797587
-0.025854276483702452
-0.022889413514874224
0.031685358078988445
0.08822046281884145
0.16369213824748222
-0.03112124771185433
-0.017085685864447312
-0.020427650005553567
-0.006705769661284363
-0.01776567627713407
-0.012447588116383145
-0.042924303412743205
-0.0285347954325515
-0.03588329880546718
-0.014837095852930998
-0.01833855537839312
-0.028656949903793874
-0.006954202429016957
0.009499078606804975
0.017221797415183607
-0.012416726035782135
0.013545444052817289
0.024227119284659714
-0.07604666456499093
0.0013760607156096498
-0.022372081009133037
0.02217347486680891
0.02153098189818751
-0.0125687994806441
0.011674243288631286
0.033765748951698205
-0.018713945613867952
-0.05032049810491333
0.012280510950033019
-0.11365971081448427
-0.03571537172423538
0.038813833370667614
0.04601934062820506
-0.019513021625509188
-0.009049304770987449
0.0032948062588413463
-0.029995425321558973
0.00870952118338314
0.00016954420411954127
0.008635517605848951
0.015576251232687995
-0.0006049549863658969
-0.015929371529294
-0.09755191737433423
0.01064902840236199
0.01876459627060261
0.006544956274962745
0.03619566709003257
-0.01794499242346798
-0.019692518245423413
0.04332894728001999
0.008591651202304196
-0.07223898314154255
-0.02900326570632462
0.015499256235340807
0.01794065894892157
-0.011531926744688895
-0.005923802786606503
0.002293422081950006
-0.024069717374180646
-0.05976337910516705
0.09791128829872323
0.1697670512577595
0.09479010413990785
0.03513068434037341
-0.09299060887149692
0.00856937531341602
-0.02729690504884337
0.0425566076191207
-0.0003398472495459011
0.022447778943574144
0.00768763390263015
0.1413050588007401
0.07849563159559225
0.014647761533795888
-0.0003710815506840571
-0.04940644685373049
-0.11167769605670175
-0.034086657898143566
-0.03792427818942553
-0.041572234392457046
-0.014187083278763318
0.011657415141848695
0.012817036997364827
-0.021797158073397174
-0.02474069277580641
-0.016280793052407018
-0.01120941497813807
-0.023876420228432754
0.018036881376399125
-0.06222814608436794
-0.047760022902715374
0.029618091425314852
-0.0052970056385125315
0.024380097001327723
0.00788218470648482
-0.0061495186642094215
-0.02229276162866576
0.010804977903948635
0.015182474614180161
-0.01721798488997548
-0.0072579404285701855
-0.0028782040169520093
0.054303444415817005
0.04389495679981591
0.002806627618217505
-0.03324307188338782
-0.0507322032177518
0.007302332766904829
0.1811425175743219
0.07711227286793548
0.039187558222376156
-0.02394968314084267
0.009545396894909741
-0.009017281870073784
0.024952307470084093
-0.1302619556722363
-0.05159898368999542
0.023947040484679216
-0.04996221024920889
-0.014291019034787342
0.01910155136551265
-0.016475034239604346
-0.05076171941427865
0.03400380424104082
-0.0005290809569501155
0.01237282152588969
-0.0093520281512925
-0.028828637192025757
-0.031621734893615604
-0.033446352422639304
-0.05484066872126033
0.009776403724356786
-0.03943480507299305
-0.021092322731389133
-0.004971453056625274
0.018445176256542545
0.005191941428327418
-0.0024361646513444005
-0.06601463490528046
0.001532341927211841
0.050510266268069794
0.011923677675360834
-0.0601743347972645
-0.018207911609369836
-0.021745402805877292
0.020402592781391612
0.0007346764718528663
0.028747953005361863
0.00609787009529714
0.05876177415249602
0.05621724291401531
-0.02767715261657817
0.016753829954016645
-0.05367548904865421
0.08959578241570047
0.1128776447402902
-0.00027069140666506137
0.059694607938422135
0.003038719630131818
-0.02465257986509154
0.004689043668746655
0.04159723541429787
-0.00510486313230512
0.05451576923601488
0.05048289935142583
0.03579120837245595
0.02251771345224347
0.03335059892736375
-0.05427357303604357
0.009915541615542204
-0.013392472927032285
-0.018111581882431116
-0.036796250029666265
-0.014089084727775307
-0.09172253636454843
-0.009334050471649568
-0.003283647414884547
-0.0030636003604750995
-0.014923952488474062
0.0317748387118026
0.019875324777971434
0.0027729709611117154
-0.07673029829417441
-0.06269486896642613
0.005573425325024328
0.02212794329410004
-0.002600932759705827
-5.28071756373632e-05
-0.008494440362091462
-0.018620804698205824
-0.011112050468830178
-0.009296713633618866
-0.019053701235399078
-0.01607101212603665
0.01598197808738783
0.021348530379276146
-0.01593334814033749
0.02966921669283633
0.02911693702144853
-0.049986168177444786
-0.004378249729786942
0.10956949112666776
0.005460064133757935
0.0061080012630583165
0.011603419513064398
0.0038637350322174215
0.01682145531608182
0.020087783145907753
-0.057484375744523634
-0.04828074371634408
0.018993017915821656
-0.023374627174267023
-0.14446873879369623
-0.012584000618271396
0.05959629885428077
0.034186458271598406
0.02080707736792889
-0.008596308737698503
0.01438152536453405
-0.01302467182855951
-0.006977343954418596
-0.012288142950298089
-0.016020341317178974
0.007782847568171591
0.019554113565257446
0.056503707922142446
0.020746148723034416
0.040585412126309575
0.014711338870702933
0.013387994954271244
-0.017330451488876828
-0.02536610818560704
0.0014557020123950788
-0.03869832302660291
-0.024328979392632382
0.01930168365086147
-0.07574630952321192
0.02332846981718974
0.07464996615268005
0.045341533506253556
0.017148056566660703
-0.06146472673548662
-0.048381407355417974
-0.017312966048836437
-0.021309572829462733
0.007688552940841647
0.004299653463070608
0.03182541672079391
0.019993415402262356
-0.024673949594689146
-0.014871830875991391
0.016099138814805965
0.003162671653235004
-0.004718997867164537
-0.016377748221336242
-0.01858854260126715
-0.004625780624792918
-0.0021553565594371613
-0.014728057040919597
-3.4040649413993893e-05
0.005834915760761946
-0.003729906884785389
-0.011950382335448801
0.012317624857209587
-0.03734502752553558
-0.001774635168096515
-0.018098577486887143
0.050534654896525553
0.07134302739950679
0.013212483227665833
0.011785300501019703
0.02877192912036178
0.01817636066644259
-0.0245918748393609
0.0001105852843329657
-0.0036757174429336934
-0.006019449671283892
-0.04459514843354635
-0.018763660914490356
0.00487845936391826
-0.027529799622218777
-0.011405722649189312
0.013294487223498451
0.0390766836909639
0.06342997530218139
0.0032619306614339915
0.010920696604816574
0.003926277659925233
-0.01243367427311496
-0.025536414189786808
-0.04129670321746068
-0.050174127453934285
0.021531325218009108
0.019229646168576194
0.03005856531098838
-0.009803633466749888
-0.00490050890477548
0.04204108751886791
-0.0026832779096331453
0.005068231948555836
-0.0007724763786774032
-0.05356112475970406
-0.021788688893249857
-0.013935937435265515
-0.005751204692680623
0.011679099225611594
0.04050738833118395
0.03763372896147075
0.030190127273122445
-0.012358169281432381
-0.027918134343613527
0.04385980866738517
0.03262896675524648
-0.025952738578857923
0.026157821632350062
0.041348027056232105
-0.006786124813294069
-0.028396110437237956
-0.015223091424094242
0.028716220472114876
0.012284048752006622
-0.03204225379830105
-0.012518901083715502
-0.01716638576535721
0.0025089200797390955
0.014387250993888672
-0.06461421903486647
-0.041061103667250236
0.07628455242701532
-0.024916020602954198
-0.023364491227496564
-0.0019781810744890923
-0.0028228784296859036
-0.027272236790395702
-0.005149324823669276
-0.02724389512269509
-0.04171305671787056
-0.0020287060165420736
-0.0005298187207004792
0.005515442252177674
-0.09371125549849689
-0.008959215575098963
0.07776120392002997
0.02046972330797275
-0.04103708399121552
0.01590550909747594
-0.005727781856368618
0.01311623201091193
0.00488883330666772
-0.01684378473365097
-0.004781079640464389
0.04626579168326753
0.11252479738367901
-0.07714131637368135
-0.03225529010069846
-0.008757836996269952
0.008655174808781493
0.05895500854524639
0.038456144703485004
0.0013826073158703421
0.08431118125579862
0.005686816199209762
0.03531890630621388
-0.029773097731329645
-0.034089376957716876
-0.021198950020568964
-0.02146573065054435
-0.07691356374399716
-0.01742597803768311
0.007375039181368774
0.017702981092279756
-0.02810329694151816
0.0976388712035079
0.11102510578721698
-0.057876082913273334
0.009219315474238345
-0.02050678147707943
-0.07584896999962978
-0.02519358467400628
-0.008044232129633155
-0.024854805861226476
0.0014812478838482997
-0.001307203374079973
0.033675180613533064
-0.008340387283003074
0.029213650537284714
0.021782557654178664
-0.027655510031294107
-0.013315872693300918
-0.015872300811760828
-0.0316606802758255
-0.033223398012529014
-0.017279460115612218
0.054287276740541644
0.07204004597382935
0.09699346005189768
0.03312612616216703
-0.014077638929260061
-0.033135943518692125
-0.020208869633472636
-0.025007160980139352
0.043049223925672786
0.050025775598424
0.01177662575856854
0.00917768455169651
-0.017046975405205757
0.0017144222872565646
-0.005601041642227943
-0.0004302155419245793
-0.006731805361721438
0.015468359587431302
-0.012651707032676656
0.033319135516116614
0.06485553523699901
-0.03638202346131477
-0.048993018555061794
-0.11675557964945626
0.0018439552443432071
-0.026138370519029168
-0.019121952509690576
-0.01874387813002667
-0.019154442295034997
-0.030196204418762078
-0.002100198970513424
0.029597544836232437
0.015065245656617576
-0.004101911696489651
-0.01717942384168781
-0.022479109829472415
-0.007761966501338148
0.01783614227675776
-0.03032150798911956
-0.05137748827196206
-0.028701793633206314
0.048244286539918406
0.02830576219515584
-0.008500297897056407
0.03352217365444663
0.0026827005801165955
-0.015182464981084186
-0.004118365115459529
0.04236384896029859
0.03952766751125225
0.00293216010397739
-0.038228718855808225
0.004354494409113118
0.006368170164081201
-0.04290253557143643
-0.06295706796271701
-0.01344726097691636
0.04749259688620266
0.05152738632733559
-0.010362081990523058
-6.116862764992583e-06
-0.02859958197005164
-0.00944764194959809
0.04435152329788048
-0.010020526107413759
-0.01808636084399955
-0.007882654128568718
0.001804758293341339
-0.0008396806031973276
0.019746391453573552
0.0524238510678572
0.016135026070130752
-0.022800279461508213
-0.013325055366881873
0.0475666767873037
0.1525090452691181
-0.006917708794329805
-0.005043171104751905
-0.008321606252163015
0.026179701252799392
0.05111114757213254
0.012080260677964237
-0.013013219952184468
-0.026250648050040626
0.01091270813859322
0.02046595024810937
-0.00558815424757985
-0.027811857659681
-0.01937405244717131
-0.06700668656224518
-0.045436664114960515
-0.02873092112596384
-0.0016963888048170067
0.011695430691895006
0.017231056085935635
-0.00026347711350004137
0.010315115432503578
0.0009122759477625867
-0.011981783258687907
-0.015526342816260027
-0.008428450680382555
-0.013508022615811677
0.034962209177723816
0.06484146934803013
-0.021262236078630745
-0.05521890533061557
-0.01544214867964142
-0.006986511147853322
-0.00137002605352706
0.01258216187284918
-0.04415244008446091
0.01293544770346699
0.00446684848479127
-0.168155597695932
-0.009620743775560782
0.020616362215080914
0.028269057888351927
0.08488917807612549
0.009718047524463638
0.009999025778972152
-0.039194184268860906
-0.007415456932919005
0.019429817609114358
0.028116215374464047
-0.011617058344806955
0.01987729234855337
-0.00825474989885211
-0.039489441293438864
-0.048854235739107604
-0.12011899796197677
0.11070089909392287
0.05378102930312534
-0.015718612611662495
-0.0011490173592643928
-0.041083101436462176
-0.009493375415994054
-0.005464005102585167
0.02250109697026399
0.031233000019128786
-0.011625591613873732
-0.011906752713305407
0.09405937056423323
0.025851316046065685
0.025987475846889582
-0.0019512544510674526
-0.010644424451580939
0.12950646804871432
0.004438489338783501
-0.05431971529928837
-0.007762561881868753
0.01635317404698928
0.03419340417604999
-0.09902470827197506
-0.004288410176104094
-0.04944532478670945
-0.0944760360755026
0.03477998874891736
0.005563940914034156
0.04735778138101247
-0.00020757626557151005
-0.01176735802643633
9.516166755528882e-05
-0.005966813536053212
-0.024662624303669382
-0.03924982544226642
-0.01526517999427685
-0.07498957430771996
0.17399526036997326
0.0842339342541472
-0.012332297277523021
0.04766948330616151
0.013624113212786329
0.050601853252003365
-0.026644336009346806
-0.026170426631726883
0.006315089934253934
0.0601898014241161
-0.01617093509038454
-0.004234671268558619
-0.0055897996306878235
0.02277702365392046
-0.02055959369176861
0.0074109701079500346
0.042194359450367126
0.006823995713218938
-0.003633019845798982
-0.009387451435333486
-0.0005897975236860373
-0.009408839976130188
0.015063307946182401
0.028141215166769776
0.00853785032081744
0.006343946553971132
-0.02344557175548798
-0.00883495025832254
0.011424442940795957
-0.041472536483016506
-0.057479431520308946
-0.1809819358057738
-0.16318096069419394
0.007323215887235897
0.01460198846920994
-0.02444504995406089
0.018960331147004534
-0.03989685769258954
-0.06417707245119511
0.003724754099322087
-0.02107827919820448
0.09703197494361611
0.042858065162435614
0.06024809886653239
0.03177733669699734
0.0034206832719598174
-0.005843259067436972
-0.01110116051288878
0.016160039922028302
0.01497486701733545
-0.007554941208202328
-0.006047405245732541
-0.002506341183652069
-0.015718531071144255
-0.04944322971674779
0.005516140062823695
-0.015419350958024481
0.021831744517976846
-0.025417633550721328
0.11607184915504447
0.14916821350149695
-0.032864376000555945
-0.002545631295963748
0.0033642146713399644
-0.03486221955185446
-0.021556641319762173
0.035787141885080635
-0.019958390061267484
-0.09673284468895237
-0.019190339319363044
0.0018695695204509566
0.04291130655174882
0.04196593798003996
-0.0020043554155977604
0.07176751187261109
0.02595557860458084
0.07599923333806183
-0.023045910386036258
-0.01459235454399154
-0.12366384334643479
-0.05159405708316108
-0.025304124132643237
-0.04007987195577521
0.04503872839576518
-0.015205359724105047
0.0209342978938838
0.05625609819036014
0.0395994652657177
-0.00960440896016705
0.0053298260395179394
0.007468887067391026
-0.04255292790009725
-0.0056226788414348965
0.015607322737805074
0.0012203105364671247
-0.012228242553084143
0.05717697133497177
-0.0133003738491501
-0.019627865089561814
-0.009856535871581112
-0.02091502519689986
0.008122763707781724
0.026186417526160275
-0.035893801607420846
0.025343257055630296
-0.017574599094312346
-0.00815488084858152
0.04491105521648804
0.024039076098010374
-0.03695530671975287
-0.008358745855826029
0.036240665591014194
-0.01428597113171323
0.018601317025632752
0.030889560350473598
-0.01833123396858775
-0.028622222692037177
-0.002955564033957081
-0.031045482058655934
-0.005716861514452542
0.021181674189089915
-0.026437614795286796
-0.004107216187336177
-0.0034185716132926753
-0.04056230122190438
-0.01529000700683948
0.06707851487426816
0.015445373682639629
-0.01312383695990351
-0.02070715295691058
0.00882801494690044
0.017394573540646933
-0.004955763350063278
-0.02069518561049984
0.005932234040237729
0.0010167209560086846
0.008825403004481017
-0.002227622639121236
-0.012078542777649753
-0.02374392729951075
0.009991599373419827
0.031884639713680905
-0.0036038876545842636
0.02043357522034271
-0.012065668687590302
0.03136390336562103
0.004950479110081993
-0.013438692634757108
0.01115437105616793
0.03428059536217813
-0.0052694024516702085
-0.001600749185687273
-0.006204784397195669
0.004131403561638649
0.01606737946406934
-0.01999617128322154
-0.01319401269241532
0.013764335990063296
0.03982844566945181
0.000984468611344986
-0.008574887917539888
-0.010856720064671616
0.0238350576261891
0.027040406179028063
-0.030058140169117245
-0.009434433431425169
-0.02316089882202047
0.0221016098884187
-0.10728130489618624
-0.013598027160691391
0.025332745768902713
-0.04526252523086923
-0.051892151062592186
0.018049310326469805
0.005241602230509988
0.008194717496832489
-0.011404619335931475
-0.0016353299594263633
-0.012325655356974016
0.03535558899959421
0.013166482763528676
-0.015839984105807583
0.01634987336130694
0.0380530733522236
0.04191051531506277
-0.009759589340781053
-0.04446215404540042
-0.03016686100439959
-0.02928587192951555
-0.008779613061410809
0.013221004123129316
0.04952050971274383
0.07862162543364908
0.009731902458791634
-0.03449849426975158
0.06263602610036166
0.027847777299683664
-0.016771454431219232
-0.013105582008095345
-0.004178331983678167
-3.928661395961784e-05
-0.021737036408042632
-0.0018764593382022356
-0.022296507095523804
0.008192117992491173
-0.026170768783231955
0.04778759403533827
-0.09893551370151975
-0.12831407824606356
0.11232896343192116
-0.18560941369605163
-0.06830461951986115
0.037991786648863685
-0.00031842557533706835
0.02427551587748787
0.005307699886020065
0.043604942117151074
0.05907536779262346
-0.00031008750047765673
0.08023736698279371
-0.00686938173092923
0.11681054262663804
0.11613763750083955
0.016994503843269098
-0.003283699599209692
0.025053011914179472
0.016971201424344353
0.0023753635694969137
-0.049927304992649565
-0.0018966629144053608
-0.002752476495959346
-0.006999744612120305
0.027878765815469813
-0.010455595518468041
-0.05287591041330098
-0.017450939024362528
0.0029561356152003897
0.002290641772583076
-0.08765839959766399
-0.11352949518401861
0.010868065610698217
-0.01239387146773605
-0.03169323770753692
-0.024156553218832463
-0.006171954028541701
0.01967553980538016
0.02965418254792892
-0.04890652715366739
-0.02470870515307474
-0.014429183769087504
0.0032237339126986128
0.18168129903544725
0.09519542409218584
-0.04762002173021311
0.014666994403236079
-0.06004302697608796
0.036716112286635266
0.01755834739657735
0.00038549687931155807
-0.006776011663610309
-0.004729338675374513
0.0005397041284534873
0.03159352760401637
-0.02462358816402416
-0.03290081673700143
0.01564070693618987
0.05229762914937893
-0.04243522935911534
-0.0011016409081480913
0.047635137375528616
-0.0444692381653111
-0.030808415147362687
-0.027027228104582423
-0.009931980716297115
0.019695836937355514
0.03640459066626589
-0.010211871367179534
-0.010800346042395288
-0.03217146409521628
-0.024524228634160268
-0.0978016793332271
0.007438220146250777
0.04164451088114862
-0.010950151555376762
0.019516202431141966
-0.020496360850222245
0.03818382353874411
-0.030210881904817598
-0.0068065070681239655
0.004571403001448546
0.02718342340864329
-0.04458032821996113
-0.12046390481012004
0.026324600044257674
0.0003928870989362994
0.034028646880816485
0.007982796867407355
0.11783096557844319
0.13101642272337843
-0.051176191235134234
0.029697862195926142
0.061298915515765384
0.0031699269415676372
-0.0690327428608475
-0.02303533040459283
-0.022974597179431924
-0.01284556070794744
-0.007091601072600585
-0.0002293812365910049
0.0028073007329224254
0.04148481894371859
-0.00206860485285758
0.07933248960082541
0.03851791128533411
0.020715751384623327
0.013431921136803084
-0.000907057537645754
0.003411003053721962
0.014228143116671275
-0.056131229920514294
0.03438518376474232
-0.13990854828547414
-0.10899530684282391
0.027492443012188037
-0.029177147077493634
-0.03927095733631153
-0.014346122383741246
-0.020314768931504013
0.056177206553787336
0.05185020989107855
0.05287825313692722
-0.02030507061619329
-0.002867754971183696
-0.007397874156756574
-0.029473497227313065
-0.0015656250716790756
0.015263309712071611
-0.00026114073295832406
0.019312303483682552
-0.00148994884188111
-0.0319362870686595
-0.031179830540155197
0.010053020117643066
0.0034077362170052993
-0.0248349681241406
-0.00624400564448691
0.009422313662637058
0.05299148669957028
0.042916051230894176
0.013581009767826242
-0.013942079941605413
0.01073423448897336
0.027801282248961116
0.032530502405202597
0.029730854930780915
0.005875506774666326
0.01311223888139737
0.059050424019621406
-0.025561194953676043
0.023504724298417743
-0.03742798296991591
0.0007332123293902124
-0.01073872937346062
-0.03152582152957703
0.012983378241115999
-0.01738727858213113
-0.03568332859707369
0.00973303712266698
0.007429923764203235
-0.015163793595856246
-0.03813987665366259
0.023757330298156604
0.049075002021131714
-0.05250899172216339
-0.10857223302491495
-0.046653040979651846
-0.021756773281303193
-0.03521081926136415
-0.0801948196716947
-0.03982150284467735
-0.018152567484523544
-0.022073179812434982
0.008267434250701753
0.05151874198581247
0.008381973390944191
0.004359481036426499
0.11580472258864064
0.01967422920044166
-0.048998233081412546
-0.01702186165500424
-0.021571573840385095
0.02384874597167125
0.010911706870322602
0.015575294038119775
0.03598539841361278
0.15781814494695381
-0.009748062900688899
0.014612149468367605
-0.0013942733896748429
0.05904478171428838
0.0789847149578996
-0.017763487636647465
-0.07721433318792041
-0.06037883648192283
-0.05059505482955943
-0.045736671897424704
-0.023604996897172912
0.044463655019402894
0.17101847278077012
-0.03608296614599669
-0.019419383189427375
0.027749764415981138
-0.0067100765021116315
-0.02702969989795491
-0.02067176997215257
0.016108721419742292
0.03708740479634293
0.002991161412823144
-0.029759723537996385
-0.005051946217411657
0.024491537368415296
-0.031119870953207347
0.07833313902979507
0.01619808249166437
-0.0026984803152567825
-0.016427704329505674
-0.03630969567783913
0.002522334958908585
0.037747891159252124
-0.03777397056809442
-0.003814374345170119
-0.0400047393775405
0.011537438804634457
-0.022351063368659097
-0.006065582196710225
-0.010615443839861667
0.005077593861148374
-0.004323124533485498
0.02259176809256401
0.009220395330568133
-0.006316321076258195
-0.11982687295504656
-0.05360865973769138
-0.003671100439613554
