0
-0.033978582886342264
-0.006944745717421809
-0.004199361675145605
0.005409837173294493
0.10850891439042354
0.01527021376638087
-0.034472416321527484
0.024055572476479513
0.0021780871351764616
0.025743628685193823
0.012768084679336383
0.003757908049311394
-0.05125455446820338
-0.07417712985624408
-0.01816790546348582
0.003016461563969676
-0.011295622630560893
0.009962057183876907
-0.018415578039619573
0.036467318158699115
0.00766504119938869
0.027346614814294137
-0.0004926166257927054
-0.0009711175034735781
-0.0011651920772524004
0.005915932228024567
-0.01122758138464939
0.005842631798666053
-0.0025872374957791864
-0.0002592607715244826
-0.062274681899254794
0.03716577587241098
-0.06646535993836193
-0.12373504343887647
0.0708572687489908
0.0049912678199542995
0.0532935099994013
0.024480696290860682
-0.018528918143894266
0.002118479037341695
0.005757108362564551
0.001446060739244792
-0.0015072524251722313
0.009084983651553637
-0.04121783296216543
0.056151182580040065
0.15999448177687425
-0.029609015781629326
0.052890483025759064
0.006186956803248267
-0.0038721193676884776
0.011011635345868792
0.04400290845622813
-0.010345975079729782
-0.021334381337086865
-0.021823479020112113
0.010797145696304598
0.0803775519200787
0.01575526471402312
0.03834046864513554
0.0891228548581881
-0.006225192622394543
0.0032269840203992886
-0.010646718662658827
-0.031487375774042224
-0.010959244795183629
-0.0015160387409485104
0.008134786951801904
-0.024643572512804093
-0.003922752422374377
-0.08443219714124153
-0.0631892168938747
0.02834442154427306
0.004578975397935209
0.017447545260071574
0.034442818084226154
-0.002844951322327693
3.8902037708241844e-05
0.025037490167682714
-0.012240493220605242
-0.022563947270484944
-0.013642685680498987
-0.22407378294716376
-0.0076833698522459646
0.023949154777857386
0.004693525036929157
-0.006277924850758203
0.022003478059679876
0.0449393874779952
-0.0027685844693014945
0.005427775989618638
-0.017522574387724584
0.01663780414897996
0.014966838236955859
-0.03418030070243778
-0.05980219091626766
0.01673359433319784
0.026959513131560586
-0.0142244586616694
-0.009988988003477268
-0.05467587476755746
0.07263170173102239
-0.028273810521342205
-0.049796324624234126
0.029298681227198663
-0.0331076778817742
-0.02158599802123453
-0.015932728369722413
-0.014707439400280298
0.009277582179302782
-0.00935475358845693
0.04316449474750311
0.05091890385618102
-0.014263144713199007
0.00036505878958556227
-0.0025896126665415236
0.00019301258769232626
0.008343935667870095
-0.006022806658278419
-0.006597104391117541
0.03423802662305348
0.0071772369786020414
-0.003652189619794301
0.003627377431570844
-0.01776996112556259
-0.011288873879131781
0.012922678100960774
0.13523508114674107
0.012492249868108356
0.0003038801060363477
-0.022900126080359528
-0.004004124181084126
0.048483214856723314
0.0008126955494983609
0.004350069139384787
-0.005682018420996416
-0.04419000772714951
-0.03034768366768905
0.018593705246586434
0.013169709764025303
0.060963792028129515
0.006561780405736509
-0.03575855635763885
-0.04841096880533419
0.010089139105690158
-0.01950651369422683
0.001901997943288621
-0.006595458641328582
0.0173933543640431
0.04974886360174759
0.029089063652622097
0.056186027994500364
0.004622770284411972
-0.015589997582969061
-0.001031851395344911
0.00481113746352819
-0.01610717008614752
0.019149038349137094
-0.003282245067851562
-0.04193109336513681
0.018404889296813023
-0.026702737311804527
-0.008740885040053673
-0.006074064874010219
-0.026332545409716128
0.011388672532659589
-0.001651639925712671
0.013896089790379764
0.0152538523638804
0.02322464184686672
0.0375383744760132
-0.016248872648947085
0.036413410828331695
0.0052964915000423595
-0.19518258599828534
-0.027810944143651442
-0.006440503528563562
0.022151352930603285
-0.0674232020112198
-0.05209121742903692
0.02202941317143236
0.0018123507670921627
0.023749927290382607
0.05337305779433309
0.014573101674887998
0.01687723669464142
-0.03258012264730616
0.05342286753646251
0.054826212191353384
-0.11356798172868302
0.04494887094829559
0.03220339137728554
0.0326298398900323
0.02298095923269055
-0.0151568170388678
-0.19430756994882947
0.0052520226556505055
-0.004395467126430038
-0.03908907543093155
-0.04520934909960153
0.014372988064748494
-0.016258105425672898
0.027767356309012895
0.08897342282940683
-0.0010679415801608738
-0.005986381264599537
-0.010523370671385365
-0.08065760676872195
-0.03475189358796802
0.0021972379694362443
-0.034107590886797455
-0.05079541620661958
-0.07874842176889547
0.15139868312767712
0.12049094094838626
-0.03044878516920092
-0.025743003745819646
-0.009986850824802919
-0.025659502873926095
0.03277233764937725
-0.023919707411568885
0.03330463819132209
0.08191673863088014
0.26055956523396034
0.09950769531662414
-0.075159507083101
0.03514822680174079
0.008323918360736501
-0.05918650417194464
0.005705048757227661
0.09358863361835466
-0.04596620954012919
-0.09236549275693971
-0.036185571506783344
-0.020015006261417858
-0.020710611181733427
0.003871459818206261
0.0261095353914391
-0.00875898154974035
-0.009876906081868546
-0.0204956427356785
0.04189333852983325
-0.00633061738322659
-0.06075733230966285
-0.05041796803240567
0.0012472090538490233
0.06857405147535385
0.0014050565600980565
0.022471818540952787
0.03659970879204684
-0.015285434207693507
-0.037150323852152195
0.002809789692287966
-0.0251201552905482
-0.01838494588022831
-0.009231386479784217
-0.005913534923841475
-0.02527956927883551
0.01734199598308296
0.07075634518848828
-0.006686624631739334
-0.045247383219848385
-0.0023697586318939365
-0.02265060429521937
0.05605963626330639
0.03227225437196327
0.017861491558619155
-0.027780715649913086
-0.02978554327928385
0.02429372104674955
0.016745150510721517
0.003537437826940357
-0.03533213661066093
-0.023005160692588546
-0.0026620249263522304
-0.0018393838046214992
-0.022697754954700725
-0.012415037084706242
0.0694181507655556
0.03262772022131087
0.011271092512897339
-0.007522030848879062
-0.03734122135187004
-0.17131748713238565
0.023554159247156668
-0.017511709396854622
-0.008140105733497235
-0.06148732903491854
-0.050853068574039595
0.026904991070744996
-0.027270641378170278
-0.0015925250981303925
0.0012577735193140499
0.00946515991332338
0.001889393922389178
0.0018474959887260273
0.011139348203815569
-0.0026662011992587198
0.06848382787120899
0.020085522171681323
0.020655538807065613
-0.045995464578428624
-0.024380858584389105
-0.030168003651966948
-0.016797876042331867
0.029792724920819195
0.048570449279610024
0.060759031209127665
-0.013691590330683056
0.07651507951004566
0.07505303455588444
0.005339695511533947
0.13191975520761273
0.024264443601369052
-0.028618041056898035
-0.017274051595703572
0.025953008710189834
0.04368054514480968
-0.005342972678330875
-0.03894713769413785
-0.023296227304831125
-0.018828740544968362
-0.04522793759847928
0.04908424000926212
0.032576306356516156
-0.007078623978374351
0.021408634842554
-0.015150039170171898
-0.07082938953473679
-0.018846977945755357
0.05650288927052876
0.036703839389172106
-0.04468588442501522
-0.05053702439949387
-0.024058378117659728
0.01062997055312747
0.0020350516605285684
-0.021985299699267692
0.014621649679205515
-0.04050903576491749
0.0027320669450843424
0.08507048513814991
0.058204886467827704
-0.1479500998003877
-0.05359751303840707
0.05652671360445609
0.009882194217579864
-0.005364934930019309
0.005268280148386341
-0.023454210959064664
-0.08034203828734109
-0.023220907938427644
-0.018651765548536016
-0.067065472260348
-0.10163736422508386
0.06857630135822644
-0.008717655963764144
0.021145080094922736
0.035261704086042914
0.005954582107164613
0.022170316815198637
0.018885856167538993
0.024684056760165142
0.024398636899852257
0.003557661487601445
-0.0313780278896809
-0.01966139601805133
0.10564166147871407
-0.000798734523817592
-0.051293648254069006
0.0035604372577420725
-0.014296067508074942
0.00602503220498724
0.016321451932987258
-0.0028962529096477666
-0.015653816990987106
-0.03789837447140074
-0.024510590100895336
0.006771410263313977
0.03022536893899731
-0.033489533486177725
-0.0007224729984998796
0.026194517104728834
0.02871040286096639
-0.004627842454839973
0.02741863189016757
0.01277291753507486
-0.029876147054000195
-0.0016206541115615241
0.035867984734365796
0.03111556961905246
-0.009451962415859556
-0.013860034892108197
0.034664856179010384
0.0462123110906302
-0.014571147454770887
-0.004735937320405936
-0.022328025026865747
-0.012371774543427241
-0.008998624252702415
-0.021285057532255514
-0.025203516280116262
0.007144670614907656
-0.013303528783632177
-0.00297951165581215
-0.007213148684605589
0.022036282485989614
0.04740315118018985
-0.0019499027479962334
0.021276776425822562
0.0038419261156075264
-0.01755135211555877
-0.0154901904813424
0.14661754522363918
0.08590008734657835
-0.06384235929373379
0.017770719904459713
-0.04605049316822415
-0.011817435242732405
0.0011510531398958228
0.011963567718979315
-0.007203369428704339
0.009485374921549994
-0.025958698362122428
-0.10938020806942157
-0.004833831068379823
0.009199327854708726
-0.028263717302690117
-0.054018956105422164
0.0065144429266618935
-0.029442000693109247
0.039800008953721884
0.005317509636597994
-0.002821478060586168
-0.025615517553021015
0.0033396323381760734
-0.0043697230143927585
0.014709613868108203
-0.012105414289243926
0.01803079946191357
0.0041328665055387764
-0.024915192933670192
-0.0013576597984054836
0.02310606062588899
-0.03209002286036411
-0.026074316877300104
0.04244810760713048
0.04065227582136051
-0.01866802770795931
-0.00016130756393524027
0.01875806439631585
0.0008063060101868695
0.030274300541514698
0.03806630909850541
-0.02315963573399274
0.009003669246339696
0.001785102630557846
0.014255871571685624
0.0007911136909833742
6.405031683073664e-05
-0.013399104745287015
-0.08462754614681944
0.0006885295771187694
0.016262150873143054
0.012062620842358882
-0.00012570841623603737
0.014410677578372218
0.019505095932756223
-0.04306540264720429
-0.0477253233363295
0.02480447701913544
0.019386301930029246
-0.026868129495039025
0.014876984872115303
0.04298795062242728
0.013640005498535508
0.030464323382412156
-0.01642001787205444
0.009673642032732412
0.013994353476060525
-0.00866610878072736
0.0020139722920447223
-0.03107099086095616
-0.024017022276423224
0.02855409763821587
0.026819873118633278
-0.01324172357398727
-0.004236883007141559
-0.014609770494687108
-0.013405538668340962
-0.005141012244887574
0.009376810622197944
0.0033617672333639635
-0.014076675751226283
0.020474631783235553
0.039599557878816125
0.02012066894809624
0.020543490205502748
-0.0031228950928387047
0.02351265005512379
-0.01542866391786804
0.01644545129041444
-0.020240782747546926
-0.19302594789872787
0.017985973617242572
0.007814265715746161
-0.016745518668394594
0.001185975130358653
0.005531343902911815
0.050308324077843365
0.008122885175734833
0.028129897196556203
-0.002472987405420214
-0.007656405848815229
0.03398227093042857
0.002781624130619667
-0.001526514355103727
0.0019277192558622759
0.001345730573476383
-0.01099819647468423
0.004133855488120341
-0.01355768637432482
0.0403430685166397
-0.013764038846307542
-0.10666939881907263
0.010862959064541329
0.009579580105060572
-0.050235886610315875
-0.00795760644096349
0.05608601376930692
0.036748767002105574
0.00387858310926548
0.019778404947096977
0.005886195935168729
0.01581443316918413
0.0016293554015685658
0.01840757301774278
-0.015470294892412282
0.04333361205260001
-0.06552203561644718
-0.12221697775849578
0.027831898898594058
-0.008401492759774793
0.07361170446139645
0.019849733024583316
-0.06556172270680934
0.04401792247719497
-0.0035142648759113964
0.01849369944803472
-0.04115601653600667
-0.0069131762331445775
0.052511892347253515
-0.0339475838133603
-0.04598319659543698
0.014605536478277423
0.06730163754308732
-0.023334842220201015
-0.061855169711434115
0.03312003814251725
0.048558228940956565
0.09967010582674846
0.024992684228213765
-0.03090915474719137
-0.006366719055688638
-0.018302888843019782
0.0039231507685329806
-0.04766875430355997
-0.09908733033275115
-6.161805559433478e-05
0.0012139150317342206
0.05786642004198857
0.03741940648312755
0.011343167111079123
0.01888211760182884
0.026485679809720206
-0.006895215736592814
-0.015667662802119692
-0.0024074464818431857
0.01664166980813109
-0.006354407076220606
0.0447483157235023
0.019008198339775555
-0.0131201581066371
-0.02187831373779483
-0.0650732103099619
0.013040972472064453
0.00478558938542061
-0.04846067298072998
0.013377092193680665
-0.004772631091891586
-0.027725288212179802
-0.02449592899474764
0.00925575415726118
-0.028415945455788547
-0.010556346120410585
-0.0008002917438844
-0.0024616462079305244
-0.028388256801444238
-0.019793635811676664
0.0011076857379064943
0.0010923914839300007
-0.013900702469205028
0.007076622747991495
0.05588664929755052
0.018751223596320143
-0.02380228670835634
-0.1057486800924033
0.05560100397268974
0.14772058269192587
-0.006014806652662584
-0.033161780750625806
-0.0073223611129920796
0.010133534465812857
-0.03368898391118381
-0.014982082421457356
0.02935537924209495
-0.0014798968431152192
0.005446234749071058
0.030555338629356176
-0.058559848076043114
0.019627938232387232
0.11012013480418416
-0.0021768668729731868
0.03567029773069204
-0.022866771139590077
-0.01009904554280448
0.03039190548286041
0.009934792983308363
-0.04017080016527303
-0.054989390767521955
0.001112703631895557
-0.024174611506347945
0.00728123031345393
-0.047244539265040894
0.07204183995030045
0.038807678718768494
0.027821506889311457
-0.022916904378115204
-0.04978136106697302
-0.03405931373396719
0.01742087355237338
0.0016823972869499679
0.008892775805165194
0.003392170589303351
0.017409985488597013
-0.006440610934822893
0.045856860657646166
-0.009923559562835072
-0.0657636763982481
-0.01264091542188197
-0.027283156091007666
0.008829729068178962
-0.005848910050431357
0.006036755221879309
0.0059995491962589135
0.015558614292624716
-0.03265044673776306
-0.0317770876076724
0.0012989852586015047
0.06466127742468455
0.041877579877421675
0.0022410584349735027
0.009884120867038564
0.056360969970732665
0.0592154227948341
0.014041842842168842
0.0007442159488901563
-0.02412375664374704
0.02998423689766293
0.001347524772427057
-0.01715266671129733
-0.10562615478825955
-0.019951799696828105
-0.02346591385675424
-0.010164371102932062
0.0247000246116985
0.025049993222953326
0.01989502461585618
-0.05380531573102361
-0.09261555165087612
0.06372604740651053
-0.016750642579919997
0.00806992149382849
0.018471638129145956
-0.029012779185529705
0.008222141335305822
0.030111205221708782
-0.1707664389534352
-0.05611304903491842
0.04447777090957693
0.04544452597759182
0.027031154427269253
-0.000644136901305537
-0.0368164586594506
-0.033902705545433474
-0.004806342647382909
-0.012459094812551757
0.04102966006279141
0.06980892813783195
0.038031043045509215
0.07472826429411002
0.0452418929417055
0.06141571774619
2.3483165507148516e-05
0.0213035002357263
-0.061679793345953866
-0.08029439741470489
-0.005303954073422184
0.0021867696404770623
0.009023057778960522
-0.009799548218477961
0.010520595137141292
-0.011275038115334956
0.02642816320193336
-0.0013277252940443087
-0.04718505076112606
-0.03116606904886244
0.05156699568525407
0.008229017150880261
0.03961090414656107
-0.040967655312048164
-0.017888786332427596
0.021772663676699763
0.06243131032943607
0.022534355561305945
0.00574219617331891
-0.014782776110531906
-0.023020458543815858
-0.008218685744853328
-0.05150502400686525
-0.08383639688057865
0.00769119586159885
0.07247396114402857
0.012933097257735447
-0.018156647889947333
-0.00290285365241929
-0.021938134113086708
-0.020981689629299752
-0.030424685725504413
0.0007153748198555963
-0.012135996069211697
-0.06168563148408108
-0.02594890009493426
-0.0006591162366302879
0.0014329517976054546
0.13758837430639978
0.038056548858162065
0.02867836436194071
0.04287806946751232
0.009317690744580021
-0.01916927424377863
-0.11365569623000843
-0.02154970527064049
-0.015940649038001936
0.0014301387323248833
-0.01595415194535861
0.053952762489157605
0.037408875780340335
-0.021335306019403543
0.006711231726428642
-0.010843117054581587
-0.021249104982527814
-0.0013033110638577703
-0.0264147103304301
0.051414082386174266
0.013020237822828197
0.008572613872815946
0.04960942283907371
0.02870729793321267
-0.022640160128913824
-0.03622975175128805
0.01746228374933748
0.046247398761589266
-0.0071651189656807435
0.0013658307203059583
-0.03186076975772528
0.0003754887634464251
-0.027438348715588846
-0.039835110783106684
-0.02637148637889091
0.003385716208533743
0.0035618556697678814
0.03417572627864753
0.06752394973889499
0.049665499528990464
0.05787930690469532
-0.020739234815718374
-0.017510945533138575
0.007269415593664226
-0.057026195982509645
-0.08978560390731052
-0.005959566729969408
-0.048445733139558696
-0.022446036823926256
-0.03418079935448075
0.005465356938258025
0.015101663912947334
0.02737024403987908
0.0002829454540895753
-0.00261344287775508
-0.007927130635463962
0.04003270597872502
0.0017445901758531147
-0.03830111463313854
0.021487754231488722
-0.03465665791930207
-0.019182404101281362
0.0037547865970031335
-0.039640045074732115
-0.018826631265858654
-0.030675365960882082
0.02209854051323157
0.05445840625724381
0.022393287541210467
-0.01838133737983906
-0.01610930068592988
0.031743051998754074
0.14116914369290218
0.0757266135499588
-0.03738179754813532
-0.04639736428482927
-0.020112114802770288
0.04390341347526278
0.19086568114042501
-0.030390007245219862
-0.005537362759103846
-0.06074220580924837
-0.040788102447073656
0.011050264348498262
0.007727102786521422
-0.047930132298635325
-0.015207059060643388
-0.017725152954044372
-0.005441566860415213
-0.021704803665920213
-0.01733434002657985
0.013386366984235483
-0.008491491122718877
-0.029083566053829987
0.01117593490542997
0.013334181416086253
0.05105330254521513
-0.014429440346990932
-0.007102535265981431
0.04108539286353525
0.006666438252223278
-0.018158696211925642
0.02502660400944283
-0.031224297447916265
-0.00638445502858587
-0.032425376867452456
-0.0011642195528099987
0.0009097633235297846
0.024132161693820802
-0.053031275532729266
-0.013116549079397223
0.015087796425474947
0.021473230714777185
0.06128142043020247
0.005611048479411267
-0.03193430500272891
-0.030033530818970623
-0.012594239488748193
-0.010332524642906436
0.016634786457262983
0.018637997188569302
0.015459337604835347
0.00024270051885296224
-0.02917872622529758
-0.017499555203044987
-0.028161630701780908
-0.003231764453529255
0.01597354539161678
0.05389519295865195
0.022475143966764644
-0.011831422873071623
0.01552351805889867
0.018784985616478764
-0.01943915846878865
0.021058812196470676
0.03522402166227801
0.03200400098163657
0.03334779341220526
0.0050023275073500335
-0.0011543582283170747
-0.07524422250202788
-0.03635019791219954
0.05950290657761932
-0.08549895173584468
-0.05764639702017246
0.07996778744515416
0.09270318842016279
-0.08168929690140155
-0.0010290693137284656
0.010243462927279946
0.027562517045943105
0.0035440089914582163
0.0197915604368674
0.022637610269584118
0.031805979570937906
-0.2838587647602663
-0.030576525433168474
-0.030078678242103387
-0.12833553567849423
0.03772078033579285
0.013492989783490589
0.053078786236376324
0.0028660804482857497
0.010140157360822568
0.005733268215967917
0.020979401499807596
0.024831313870842676
0.06006612506702124
-0.07560663938926873
-0.06873519587645766
0.012344357755873867
0.02842747962857101
-0.013265037828788262
0.0029388918137902994
0.03903188343396405
0.002162180938520269
-0.01373717852853777
-0.04658362673157275
-0.022076851692451105
0.01619837422101641
-0.013540279605728817
0.006788441874872215
-0.05041461936319691
-0.0102598413685874
0.040661645707359
0.0688091593856213
0.06144115332294559
0.02231630331186495
0.019481161168751798
0.017236933572047707
-0.01656515993480291
0.04119560590069003
-0.021236821704882447
0.06651077772499603
0.11190142636132247
-0.04083238478978664
-0.007332920124815762
0.029785159328517715
0.05122427733447527
0.027265741984409633
-0.02030162452921615
-0.025730470668489117
0.006859215679974758
-0.009854541342613687
0.013106821489719039
-0.023112590796054672
0.0268210833409399
0.01351036137228044
-0.01508643236372459
-0.03420134543076929
0.012762867655349699
0.03077007441480235
0.02932447540296339
-0.1275103566276384
-0.053629126614742256
-0.01869407119233779
-0.016823781875610996
0.04407315894250612
-0.0887874683168568
-0.016908270170983484
0.003844635117307134
-0.0177214059040957
0.02336753760666601
0.0986544798047796
0.011169188383588156
-0.06534420586917412
-0.013126118014630043
-0.006955670031320494
0.0075030240511387986
-0.0010744460016713032
-0.09864887552947511
0.016311993381801806
-0.013328146626055595
-0.012473699428877421
0.01235078665387509
-0.004888379068806591
0.006074045856961952
0.048536967527609526
0.05108600907527042
-0.03830848076861731
0.0628079238783852
0.038860540338963356
0.009164167112504912
0.0017869558575928613
-0.0784136463772712
0.06870279316835334
-0.10743714012985094
-0.030277597412911562
0.042746096694460806
0.049228344852104325
0.004302637830111648
-0.050186236584995166
0.03533831713528475
-0.007962327997804788
0.0564212793536165
-0.05107216103917902
0.012828485857429326
0.0015209697132363466
-0.04187302194294591
-0.024467193119920787
0.027847952577406042
0.10668393571512289
0.038478838489441405
0.007027579121062353
0.03414834709820326
0.019576927933162847
0.01699832255776941
0.04780755969658346
0.034707007599949505
-0.029445892089310977
-0.20906665515504635
0.021623875371391328
0.00992403318551336
-0.01334300492739075
-0.08011015361229555
-0.03357868425375325
0.047212349727898596
-0.01638387237042495
0.0584705603532341
-0.004238631784525515
-0.05396126436687179
-0.01875216862915618
-0.01394346133670607
-0.012283552004615846
0.0007052609373808084
-0.01507379891570543
-0.038798290211164585
-0.017323497099992258
0.003109555803575476
0.0757809119471458
-0.02701067900459995
-0.0056922788378338226
-0.02181042039998317
-0.07056392246188734
-0.02348841833159417
0.005733014876657828
0.007772856892283896
0.06625510982954887
0.0011313080467797987
0.028425879339643082
0.052319337560015965
-0.011354186159373851
-0.008605278822432255
0.03202863582696535
0.05970427933197216
0.0590812536865463
0.02940038888776296
0.028820523658581065
0.012866107204657369
-0.013454809601957081
-0.018869231941469496
-0.006712485651960585
-0.00909350420412873
-0.027804024306934128
0.00016573018067477663
0.008640721906933225
0.010951519062910081
-0.05971557668091476
0.032840909220867645
-0.025625011960752637
-0.07814379893431006
0.07304752542367335
-0.0018999847840873766
-0.012890293112189912
-0.06816742259191547
-0.06264388134297749
0.007613526357760317
0.010408573966745093
0.018684188387422185
-0.02059949534076465
0.025465104534358827
0.04248263977655779
-0.04833190865816001
0.010229793767639083
0.035157827872456505
-0.04968702213172658
0.01819354738217408
0.03664369281130847
-0.009624289746526508
-0.01274280710655293
-0.016957341087860355
0.10359288433828005
0.05671349945244596
-0.025933023443298224
0.021490461774084507
0.02830874592261379
0.017210618847441336
-0.028099360726578787
-0.07798443269882872
-0.015799786086039182
-0.004047339291726694
-0.01790662980644549
-0.005819445621106188
0.023145471821708584
-0.02029985883733742
-0.02150217699343381
0.009546614491817365
0.03362626382796881
-0.04569413048225793
-0.06403579495942391
-0.03424757611138632
0.02508951326530155
0.03230754090593544
0.02572563422803876
-0.00422834663144131
0.019795337956812164
-0.0042951361089178745
0.028168549652941594
0.0007347297116328902
0.040459372992469454
-0.019552908518572575
0.11242928586788997
0.0756649457168456
-0.03572056020936232
-0.010601066428606887
-0.004404070957736636
-0.029226373235544428
-0.04081268089691652
0.03655388587981913
0.006500200614564449
-0.1432876029724525
-0.11096979865709375
0.022170410202727257
0.02365687298527804
0.009663611433270311
0.0037771393141298407
0.06529656565133657
0.02687458984317533
-0.019889813718946027
-0.05154142906376389
0.04314287621187287
0.024385024037586363
-0.0074258255603942315
-0.004914307414508403
-0.012119772275563564
0.01912384699849189
-0.004966332635640725
-0.016097679038900838
-0.0407627542840412
0.002041959590598879
-0.06098007397620643
-0.03691872833085
0.0021604282900490935
0.006497497756937797
-0.020170922986054475
0.06041948070991497
0.08738151133711651
-0.0011647141769285405
-0.009880356600891158
-0.04372024912488915
0.027704598689966206
0.10012563770230012
-0.024844598102041215
-0.017170499471504046
0.0011429768996980118
-0.015674605003088433
0.02752313873989451
0.0060147147442156474
0.03032126397277886
0.03043375930146482
0.002993803381579262
0.016140958414314004
0.03678506616984729
0.04431743254714375
0.020259652081605697
0.01500224105004538
0.0440279063312623
0.03910825519453375
-0.06932355086206897
-0.062355743447901436
0.0015207533262171851
-0.02219326292715417
-0.008044140407648392
-0.014211430878968897
0.030975288734218183
0.031348053915901106
-0.03090332871109753
-0.1339443686047534
-0.16896379049921045
-0.010266362851913223
-0.0019609190903010065
-0.006758959657703932
-0.023455943532698063
0.0020075719929933274
-0.022008330703781054
-0.049917986960195025
0.011551782966273455
0.010405014551331505
0.012329692857965546
0.07233439227215516
0.05595239630441931
0.004696237684127773
0.018251292367212745
0.03143877989155023
-0.03351017098098558
-0.017253806794103082
0.014526983246443805
0.025648103485431575
-0.034230708716426604
0.01723727430827786
-0.008895772951318126
-0.04145887904793979
0.008577629973042726
-0.005788339757812049
0.008129863471513706
0.03039825298474934
-0.0075697794668933395
0.04788409455108384
0.024530189909883385
-0.024497331641537688
0.010364544355858063
0.010345749442602917
-0.015093946459484354
-0.0006180830123175727
0.020415492452090022
-0.019298875955801358
-0.003481200315217604
-0.03277483224849533
-0.06493560732585699
0.0180490982289432
-0.009512818409389768
0.0032436088559177254
-0.006308121216275328
0.008560323833308693
0.04242139360257018
0.0004673234131694316
0.017943395044009467
-0.015540578876741271
-0.034158211502786986
0.020104831741526327
0.06271535159549228
0.0787917422475552
0.012502718801137808
-0.025828417098775206
0.04621497605590876
0.04331871269578296
0.024253422171020344
-0.010910309727453917
-0.030499451541541715
0.04870441449396369
-0.009726214595323456
-0.02208181902162256
0.011327418337530306
0.013721264948080536
-0.014185324200027888
-0.007775689259315116
-0.00886672516036418
-0.007088297295207895
-0.0027418666848103234
-0.02738793972981289
-0.02929973047866551
0.06428105859214094
0.01149621866454462
0.011575538503704299
-0.11510730883349876
-0.12623488250870707
-0.014117156612922423
-0.02078337849473866
-0.018721567922729745
-0.027390167924849655
-0.029247695316891264
-0.04685027633893449
-0.0035099061177523237
0.04733696255144996
0.030116067957812232
-0.04755370529671866
0.014461669680310792
-0.009169477593167753
0.040650927555952884
0.029489164076655573
0.010649021325554654
0.017281192527868926
-0.009449630016854792
-0.03654225223290246
0.18014404130342548
0.08143843627120398
-0.030404420090200116
-0.019005444150479653
0.03206992183508302
-0.05023480480162484
-0.007344489021381045
-0.0019082710860031267
0.021877772563232242
0.023691660584730847
0.03292360700288278
-0.018619354665160525
0.061526161821393824
-0.003792144038364244
0.013253005460389856
-0.07247038227220151
-0.014356254302897027
-0.016797660849985876
0.00617193770417997
0.006683091921806131
0.03323392319791537
0.017079075274053602
-0.023639336442890246
0.018363687004655457
-0.009269611471689924
-0.01888855596758692
-0.010198198972792788
-0.018689991260784994
-0.030008704322770238
-0.026205521020855615
-0.0011454917889444384
0.000403998132369432
0.0066616376028386624
-0.019434910190376645
-0.023834440775808444
0.04142455612014863
-0.0023763617408909285
-0.0639882068783688
-0.02893114490861281
-0.0632628115557816
0.02567061801432191
0.054057666180865376
-0.019762805445214308
0.004294050940941008
-0.014306968797134325
0.018906423375754284
0.0035398155976431537
0.00782521649329193
-0.05088753743774176
-0.02223380898938123
-0.021063391192891363
-0.0062750566754642325
-0.016677667850336392
0.0022014095645131945
0.03742703694661394
0.03559030398839116
-0.09668143834651688
-0.0009871247336411398
0.21739596172945988
0.031330879291724574
-0.06629591696341883
-0.05613359615441419
0.0077777120120485245
-0.013582058127308847
0.015755016824301544
0.017945666632192846
0.03187947298007398
0.007755852841671851
0.03488433862451197
0.005960385998496559
-0.01552471364248309
-0.003547600041741149
0.10372692088745829
-0.04045762710186635
-0.0117206036257233
-0.040219099512105054
-0.07305523357312946
0.09020020994119761
0.06447022577863484
-0.07936173510069038
0.04340907203112596
0.08963504874403339
0.03467600290013201
-0.0388328335636547
0.0064698847043342085
0.008353520312034452
-0.0027237228238959116
-0.01067041410588121
-0.0011397269537837635
0.004207465068568536
0.05291234374145566
-0.009586473096271881
-0.01255747543495799
0.005293005871072707
0.022804137251541238
-0.22209276240565723
-0.06311615513821928
0.00430454527067953
0.0013825340182806413
0.01375804417703707
-0.00880217349159109
-0.01998921309778075
0.030774786019660768
0.076830567292776
-0.02117563786338773
-0.07618063728105558
-0.028445939550487492
0.041944877502818355
0.009637107226875672
-0.02624835838450448
0.005149213620801414
0.009634501658607676
0.00614315139510587
-0.02139571000789663
0.004006357608910476
0.044668383846868366
-0.028280935298473964
0.04027173151640829
0.01047495545129621
-0.02154142745884614
-0.006829970714194531
-0.0022949401255062314
0.04504741777784252
0.030736309060772408
-0.014385612520390232
-0.014798878042315795
-0.0016855850636269317
0.0064862269340168885
0.01441028291041783
-0.038613795631663436
-0.026663803307816498
0.04029232693788104
0.03724775508687841
-0.02886757846564581
0.026831801405519305
-0.043038006868290096
-0.06113553500460356
0.007900992806208228
0.017391859895362093
0.01373638742828769
0.03876505363956982
0.015859006959032317
0.013095185835208774
0.03177094323379312
-0.026877368578461135
-0.051949763467728845
-0.030302965814613038
-0.00041579679802378097
0.011985796072299005
0.031181077422196224
0.004011243604668134
0.03373829637854317
-0.02898048559768408
-0.010735111410959635
-0.013696918283740034
-0.019069720505589693
-0.004484997967536434
0.08514517629972504
0.006000386416896048
-0.007322655800086217
-0.006385226138892541
0.03209267941691258
-0.013119223941354015
-0.02479494987539347
0.05008932688405014
0.029934143517002524
-0.05186869888668379
-0.015271877645082522
-0.025357620493404086
-0.015611844314644702
-0.03673617954866767
-0.002738624069083313
0.040040285762616694
0.012972084512009806
-0.12665210192178447
-0.030718680040948413
0.08207119626366939
-0.012221358088369999
0.00635510436085698
0.01341313232451658
-0.042195397419840984
-0.045169542508270696
0.03230616516449534
0.009527592034426765
-0.006714420197898128
0.01835403520476379
-0.020032141219069956
-0.04654868042848549
-0.01795342561655497
-0.00031241584732317107
0.05802232760845209
0.09795471543337933
0.017272958603039835
-0.06281102454156691
0.00047436389332789934
0.020005768359594403
-0.011843519136191734
-0.06436693060341059
-0.022851951608193873
-0.009449399932475016
-0.008430791117603812
0.0034797130095329826
-0.0053280469877104025
-0.029168963705792975
0.010877521453153986
0.029551417540457328
0.12297112454044103
-0.0706036313322199
0.14288140236316513
0.10751179432763852
0.12404448618220015
-0.03523086058340764
-0.02613660308907848
-0.0014419473283164216
-0.010257178088531322
-0.02587242398629184
0.0011996076413226145
0.029837851525590774
-0.031276622223365254
-0.045768912612127816
-0.055061610366148935
