0
-0.01591690865002826
0.003651481207970599
-0.029216725272302842
-0.027443473989083738
0.020442216730805363
0.004676093281862768
-0.021894412668768654
0.017143526335356728
0.026406990940782443
-0.004034676967009837
-0.03763379398024432
0.01088784267313347
0.0005505959507488173
0.028307809571607584
-0.005163132913899366
0.011308369371703588
0.014343149094491326
-0.006662590833503287
-0.011013787826991363
0.015023260289424497
-0.0158843512279843
-0.012124484716871949
-0.018487430878283907
0.010802104688476985
0.002766347782913536
0.03550974024988952
-0.009798319280514159
-0.021654589489033465
-0.09027853576362956
-0.027829659196793307
-0.049825958290697865
-0.010048855974536641
0.02990588772688335
0.004741168422616388
-0.04941461770660705
0.11825823793184341
0.06666756561769609
-0.02928499453567659
0.0033672869759543028
0.004733188776246686
0.03148666444496083
-0.0016541643631526415
-0.02779463448726352
-0.027372243933910405
-0.021568947604559657
-0.010839618466041406
-0.010116287278628453
-0.0060262246058974175
-0.00828266459972092
0.02319389337100439
-0.049543818861621076
-0.1420702148475736
0.01202868705895296
-0.013559932134114069
0.009623613753828895
0.02964119659539165
-0.03602473661559474
0.1865211651586144
0.06716026167025949
-0.019248661740697726
0.003931540688879745
-0.03549758769941939
0.012661222362902284
0.0012478352030763104
0.040015631684467104
0.06803366308306082
-0.02720139290004869
-0.029902149763337174
0.005739887906892993
-0.023004370365944785
-0.012756854749955526
0.16681428408675988
0.07065781866947654
-0.045469294370262425
-0.009309570751603097
-0.02843033309064672
-0.03446293647868506
0.020372361466500916
-0.05534899234748691
-0.05697724700954176
0.054871502907216076
0.030164336188461326
-0.03471092594012427
-0.021414827466597175
0.04388151622425471
-0.010122477571685579
-0.08216929075556938
-0.11499619443715135
0.04786527784559934
0.0032474764494649436
-0.018192660977813566
0.02080685309267635
0.05001909085109714
0.013302700341320042
-0.0038666211159709327
-0.026149248411733675
-0.02768142023306761
0.027658754303535663
0.017768229903482195
-0.04317252907569114
-0.0028935692493622634
-0.03326828852971097
-0.0037469213099329685
-0.007320083483569285
-0.003817915533817031
-0.008051779391445088
-0.02934127860940931
0.0031056829624357234
0.004747966056653576
-0.008276233674899415
0.030038797330664856
0.004920932039385673
0.012205502366926881
-0.014752448382183345
0.0002641434328440436
0.008779966271453818
0.008838164913248486
-0.008080966278453856
-0.01592475115078995
-0.014954566750365404
0.019980496493496754
0.0317653740208381
-0.006786721464060625
-0.027995560235567207
0.00641595316539527
0.029078279056750155
0.005755961754810145
0.009754704909612262
0.07329536712880709
0.027433303611162932
-0.028973423284146187
0.024045428432127973
0.01671896065691036
0.01961861488427648
-0.016296581869869042
0.051901976664596804
-0.009279348479649898
-0.006341097452529637
0.00708938956209856
0.0025378182153234083
-0.007801324479151961
-0.01408939250292778
-0.040707174830812425
-0.024997123945842137
-0.010909356204507347
0.01042723781296673
0.029704007528910684
-0.0034642559195621797
0.03437061835930546
-0.010245718245825864
-0.0024224036857575745
-0.033738003453664435
-0.062016068366391626
0.05635036416013808
0.04779887293168609
-0.021396795422363717
-0.016183694984646165
0.04724521640599547
-0.03768482567631842
-0.02298893689420151
-0.005084857054054355
0.0065078815862828505
0.007991476900017563
0.00557172711606816
0.006545071456416052
0.02780812223155788
0.029354606626147535
-0.027135925450758405
0.020295125441667155
0.012140294066174749
-0.021177391066229213
-0.011223845727566115
-0.042730387090010334
-0.07425466666745813
0.015568534141851675
-0.025520008800619172
0.007510315676962554
-0.004623720958478466
-0.01549469403288533
-0.07789778357027213
-0.022969811886203825
0.0044863496460273876
-0.014270076046112627
-0.008348658141466845
-0.000288748372707811
-0.011995619204113354
0.006513265134181271
0.05296365020041653
0.020392301580862776
0.008002162944536
-0.03166825728565564
0.012643026111970993
-0.010982979446209844
0.04160658752091595
0.1171028550969119
-0.04263435055947409
0.02410482264356874
-0.04797617350874861
-0.00022552676235320588
-0.0109320012068096
-0.0059532152475054246
0.024270985083784148
0.02154546095230029
0.0358539700712097
-0.00729572752348339
-0.03150306338727759
0.0022744161538666443
0.004674317820667053
-0.05100038847315383
-0.00360152002357911
0.03906697854914014
-0.012579394987650164
-0.01597892062911287
0.01716200371940478
0.007849943704502
-0.020481118176441823
-0.009641735609538347
0.08901584590134853
0.06421336841927595
0.014513823813041792
0.03395651571843084
-0.030861925340744552
0.014738531839958938
-0.04918908770758806
-0.03862042028855552
0.025211771862002397
0.018248382415283496
0.027838396780645036
-0.011353331112547979
-0.04502180789238955
-0.004111371572054074
4.18657468530338e-05
-0.004714381820597014
-0.00020051438713663335
-0.0012554295857719572
-0.015607409011883589
-0.018696957037343705
-0.0207657985427983
0.007477323517424668
0.02203093437473837
-0.05049715349936983
0.018471347845796814
-0.05710773312205781
-0.08408902019629845
0.03670674736974824
0.000145292079301167
0.019370753238309567
-0.005843028017108364
-0.015491017670673348
-4.0052101599444815e-05
0.04412784246807406
-0.0002959549034746064
0.011716825549430904
0.02810969924065236
0.037904711317582926
0.029353938433684217
0.012477278333088074
0.02003932316019762
-0.005889128747281687
-0.03201907832519747
0.053715320287511074
0.010420035997922272
0.003524539460096146
-0.029359120819410695
0.0032681863367170377
-0.03809680697455258
-0.038510190494517337
-0.032889215055259116
0.016475113750734134
0.0534983690785555
0.004815524161619126
0.014652733865914588
-0.020891568597917326
-0.021299200420564848
-0.005069863720411366
-0.025712836333163094
-0.03427046203176751
0.0019001162761228775
-0.02159338550966503
-0.018646022785110884
-0.020989661167017476
0.012637298287520018
0.020039625068235176
-0.025612029884885645
0.025652392375442395
0.02039449980177414
-0.00866361670036813
-0.08487427142164303
-0.019841151535657565
-0.034053335345653406
0.020448384191995107
0.022505486556761527
0.015093262857730943
0.13217555283547897
0.06853247564547724
-0.030728313241491615
-0.021362523895867153
-0.04729030600616368
0.021543521339662693
0.013009949180167964
0.026270624468430835
-0.015105203919636245
-0.019654448942196152
0.038633257276037544
-0.00707125038531795
0.002104979432450157
-0.011308331644771344
0.022138060810784753
0.060831883724539564
-0.007127463656971362
-0.023954857894274813
-0.001517863059760416
0.040201643810483835
0.011256709115442354
0.0068299214544282495
-0.008403639904122266
-0.01964974140167108
0.003497608135417294
0.007375969983176179
0.013277800830453938
-0.02837953700198167
-0.015893582451306117
-0.007180532722568212
-0.015685608585712097
0.053172031284910534
0.019058107405620268
0.00487770999629426
-0.02567075756266997
-0.04185318332324102
-0.027746374970926725
0.007791487720534236
0.022795996336188985
0.001495308273293548
-0.01825526209476726
0.001276392284313849
0.00130283873652851
-0.029343906865883753
-0.056979615219941396
0.057441178837026964
0.01590072691823742
-0.02541018056794846
-0.05382199982420058
0.03491009115492145
0.04071048063634243
0.014576041142646077
-0.036656463616621254
-0.01720971144201802
0.012217799785777948
-0.014614232338821642
0.014557376361738225
0.009211967336017547
-0.009324627388641647
0.013258576020129609
-0.02547525771612422
-0.03551929466755886
-0.026945472444853593
0.012593844254410371
0.016146112979277944
0.0028501713847680524
-0.011466750254295251
0.00816218049950129
0.01802879889279962
-0.0019124960418762365
-0.05534091745900982
0.05319740692394839
0.017014102183373972
-0.022658067367939384
-0.009346388149338353
0.008985578560851587
-0.00997453434728258
-0.06791723667075465
0.011931394455068403
0.044264590839300594
-0.011145644877869626
-0.010555995621030026
-0.008580762138843918
-0.018620137634174447
-0.06634068527049643
0.12066092269324619
0.027473496757687357
0.11040329135197728
0.07955113779092651
-0.040996304218276665
-0.16835376018063508
-0.08588544865146769
0.02087654046039453
-0.05381274312662801
0.0059694732063326926
0.07043011394876457
0.03982558226292721
-0.010657924030583977
-0.07703900791303973
0.08853461790878114
0.1363340639674779
-0.047191537407553316
0.11489241757647162
0.05216681262662251
-0.01924803231477215
-0.02413902208651121
-0.01486284071578897
-0.049348420972436094
-0.0025443459763648227
0.009645181227802177
-0.0034255181172548888
-0.008077838803128613
0.00397792675125343
-0.01566291920669481
-0.007667935860611611
-0.025135337304459663
-0.010861593305682819
0.027635518082141756
-0.016238120939649884
0.0008313756136688667
0.03121678061410686
0.011064178386598605
-0.01008358124149066
-0.0165532657213153
-0.012904854622846594
-0.019219379025270555
-0.035448104315561536
0.02416035702569497
-0.03451921001734344
-0.09084490820716862
0.011681835007475628
-0.01075898309652959
0.0686134965428614
0.005401350813503614
-0.014346347849897271
0.008256595695718313
-0.03713110850638266
-0.008306929070610307
0.02546399730770525
0.011365572949372798
0.013467886991777723
-0.028852965288976327
-0.006847826112000838
0.051448513106561566
-0.012262391201826707
-0.001870583443902404
0.01926250012097457
0.013844736486393606
-0.08597887622567063
0.01990341998629602
0.06393001479008087
0.09282959389164706
0.09780566294585442
0.023475252661404742
0.0029438821864272257
-0.1997799112723728
-0.01776229363368748
0.04448961642725887
0.06132727031672856
-0.13701465497314813
-0.03217627686200518
0.04135358981726341
0.009953196034184134
-0.0011848076037707029
-0.010289667857793245
0.012191800650825129
0.04615576919310947
-0.042410147729498464
0.0427335289043406
0.03765113455761154
-0.007921388423689307
0.005552407707865233
0.012385348516065181
-0.03187114618975158
-0.02388948046797096
0.0073238060608731975
-0.02072163860518985
0.003847438990095279
0.016757088726899256
0.03114955836396776
0.009503702026838966
-0.004976468462218007
-0.027072435381598942
-0.029676646531680697
-0.002550062317445485
-0.07133076923439624
-0.047509193212446135
0.01319991731247879
0.051609923894615536
0.02319760459898367
-0.012820459723654887
-0.01647618643752836
-0.029595649584492005
0.04713178365461374
-0.011299015049798624
-0.040860482222562604
0.007496462650444626
-0.03297185787731467
-0.05179305179542094
-0.018042453059156513
0.0011321570040317183
-0.010874961378952639
0.005958040602651228
-0.0352072014883951
0.07156953238486108
0.019365573186742067
-0.031064865597634148
-0.025052058726746766
0.07139633220681098
0.1173921153309647
-0.025720978218619742
0.03960960212859449
-0.016752706397580683
-0.022618616639319612
-0.07411769429626637
-0.02988307037795414
0.12047249849213704
0.06690997184378802
0.015788796064089887
-0.05849497751989341
-0.013178951447371426
-0.03261867371038789
-0.006182217450155539
-0.0403211028856919
-0.019974994599248057
-0.0672181634500787
0.06722553851789317
0.12783479498925324
-0.0377242330946257
-0.016637222525473117
-0.05265680493973819
-0.028051037237825007
0.014241881445148392
0.08121646761596714
0.12784377428602547
0.03548828743499053
-0.03559121477911314
-0.045114840798320587
-0.034335286989816555
0.06838712899714158
-0.01679907492115612
0.035454379572994556
-0.019136893378432496
-0.01203087662293577
-0.0009830631791927908
-0.01776059344485016
-0.0296750815447837
0.020921491274428713
-0.08159948987805363
-0.026570177664658173
0.09341961672552528
-0.001792086127630298
-0.03720091104709989
0.0005206614849548727
-0.010784554322917967
-0.008207618504748127
0.008478233434741819
0.009296983794962188
0.03508405335270956
0.004207714982245966
0.013170854934312417
-0.02669410287023725
0.005366407300772085
0.047152644963299434
-0.017473547306568204
-0.1423945084116264
-0.0252953471449993
-0.024412821552522935
-0.008430810738713563
-0.04359295867802047
0.010935335657183815
0.19239308145078413
0.012461312992803843
-0.033522664106891795
0.002218662448789599
0.005943130103595246
0.033579729503390734
-0.07899905540823017
0.07158053881001082
-0.044028531027945024
0.12135534423367213
0.05180731455270954
-0.11282199096613635
0.06754685754338616
0.01754902232644348
0.05846212808733946
0.019165170057404163
-0.019349777448607823
0.010493729451214488
0.006987609437648824
-0.039906461451077534
0.005981095424115992
-0.022162935515302927
0.030093364259703496
0.0020584594269837508
0.0004759964747449382
-0.00460039750468984
-0.08864422860852894
-0.02793161857966075
-0.005189618512692901
-0.005974647996867172
-0.11365366280325327
-0.17025207832709116
-0.018650071357214852
0.03840460213539274
-0.10467245254734817
-0.09364045008519094
0.09607988243791786
0.061837849428789324
-0.08432009237434485
0.05554327600671401
0.14222132176334276
-0.053873799172340094
0.04927107861951079
0.01913985442095086
0.012425728123777806
-0.01792066519566787
0.03890654656601641
-0.0009248673636605746
0.04086664164729622
0.022853268893803232
0.02487923890356618
-0.023976656147450138
0.009802218830658863
-0.048970545188370046
-0.059232496663014056
0.002060972950804876
0.05157137717207924
-0.009901269175594083
0.013335800885551679
0.09576789312716383
-0.013787556685289405
-0.023122621384870888
-0.006039803677111237
-0.005518302064358925
-0.016493491988252635
-0.018975100321475185
-0.014361235252754612
0.0015020646662926881
0.002367718619651845
-0.023187255104615938
-0.0003471117728381291
-0.011688659352559291
-0.00471251034967866
0.009648218072907873
-0.019853761424388282
-0.017324142740547263
0.056095735992438854
0.009675108750756726
-0.015142078157649739
0.21257384188858774
0.08905113002813102
-0.02469457886034553
0.008386031223625828
-0.021446670817029622
-0.020270322289115714
-0.058134449863423254
-0.031675506805086545
0.005594395171929851
0.023035117764682676
0.015559351322419205
0.0029501922230645477
-0.024467402499550893
-0.014927289681633824
-0.01701955571591577
-0.005187962114253794
-0.013614366541603305
-0.006024804917734792
-0.03689359123180761
-0.0646715784360711
0.025281810510052044
-0.12492697814254697
-0.026226335372442528
0.07049245499332178
0.0017422347753495192
0.00916058888258124
-0.012995165259235908
0.003993128467984243
0.06903768280717955
0.05894129007455513
-0.01978349522656029
0.02190062983682713
0.013433474645978884
0.021047101634665454
0.021595708051494883
-0.03966709211055592
-0.05741971478984052
-0.01401012628607106
0.0010806003045512717
0.015388442890221734
0.012880294304780614
-0.05381835402368002
-0.03941691813539678
0.00013971054888760488
0.011217264487177558
-0.011744473239928731
-0.08849865140305584
-0.03759566297770252
0.004269349891885551
0.012503648909391266
-0.01826951079359375
-0.0022622484297946588
0.044434227393779585
0.04220109880913925
-0.0016839885982617105
-0.008371418977788854
0.002734832611435487
0.03404615869056838
-0.04020454372009139
0.1314753083587941
0.15223712245092702
-0.06155328278006014
0.037050158087962234
0.04663150912727857
0.023602183976821026
-0.016177480413929746
-0.029054761733033126
0.039331148263100954
0.04036931463844139
0.029246862179594102
-0.011575976494255989
-0.05872559332384336
-0.0032899181196289397
0.025973211454904093
-0.13922953612183228
-0.09133353192330518
0.010719473572621194
-0.0010895142718484983
0.02261872286151262
0.032576106621129634
-0.056941507674740995
-0.06342038859896841
-0.0008896447467018825
0.019367066987188975
0.003479740672576495
0.10570678745878372
0.015782008809724708
-0.05320542405311548
-0.04591246246564087
-0.015228133835277803
-0.02674710291615702
0.0016900804109944542
0.036832078511332106
-0.07852777375394313
-0.00062682199943327
0.08146393730534045
0.009071766488994064
-0.0031218861220105626
0.1566437923895498
0.08291671188495364
-0.04237473300017907
0.014481001126987034
-0.0361656606332228
0.011993325790181352
-0.012578048629623736
-0.006161698438282676
0.014017656215075771
0.00535119846037708
0.032516452041349876
-0.008322646389849583
-0.17335708353015344
0.024247263448967604
0.03316467275828649
0.011231707244903279
-0.013413774579480018
0.012817208719625463
0.01264181166150131
0.03174786937394783
-0.05839533803738025
-0.11325108214622641
0.005125308879553847
-0.0077145907798647625
-0.01905771235480716
0.008338518645678875
0.01197582235808463
0.052008984937714615
-0.02933497070211767
-0.08505118874247183
-0.01698557964769752
-0.00887000276897806
-0.011702797016479392
-0.006396471625758886
0.012157659806898957
0.008867980855664325
0.048375438870265915
0.07173543570271151
-0.02097107672614172
0.002525585736352616
-0.022128963913151074
-0.01519710224206185
-0.0418044385228116
-0.0020641408338206756
-0.03366502154621369
0.020126728508339277
0.023295180174817767
-0.004060144525832547
0.006735263668571252
0.041175714721644656
0.031894797960022966
0.0070434781834351375
-0.009396533869665444
0.005711342412743389
0.01286777763320667
0.013336614662756064
-0.032823918753175925
-0.007177312996170328
-0.027924796213312862
-0.019803679514974443
-0.008936362211156625
-0.027291323008692785
-4.437018424435133e-06
-0.025887231672778045
0.027434097422882376
0.09839108639271402
-0.006006857182470172
-0.05040280719176584
-0.031229527277553137
0.042923734461901605
-0.004568887162595302
0.0020201901297822534
0.03192223356999994
0.12266664945440196
-0.026293166904783283
-0.04826947753903563
0.005383834635965621
0.007904110610305541
-0.02269874619332443
0.013679853806246768
0.025591190010466232
0.044503454042294686
-0.03905498306816572
0.040736444724351395
0.07047049165983121
0.007885571793415395
-0.013693372218833185
-0.03900304466224851
0.008777784675582335
0.01758693689225155
-0.010140792915668885
-0.003550785448686508
0.01583733521543941
-0.01688937055238653
0.005396044801440532
0.08141527247389396
-0.027050468139190906
-0.04385420240983139
-0.016785719702867952
0.018919483388288343
-0.019094677295744118
-0.025559634614173394
0.015055109419804145
-0.008837168090049847
-0.005273252289380335
-0.04160319348395109
-0.13943597239570735
0.0407891069814832
0.007576508486252144
0.0046560696796891865
0.023246156504093785
-0.05164308502425161
-0.006929018128093279
0.030424485250481755
0.017620196958186264
-0.01732624487181164
-0.01034953090267973
0.043834326087320435
-0.019597497883965437
0.05025752444559563
0.07724440019004551
0.017255427377839666
-0.030719866234864286
-0.004818550615220463
0.0015058894410457495
-0.008934281093280174
0.0020662026820667495
0.05922925635020415
-0.06337417442238052
-0.06674586259376375
0.01379318930854204
-0.008283588948309644
0.027800528221736606
-0.06676179771592616
-0.030525357269867926
-0.00101421294955133
-0.023677950905416065
-0.011786387360613992
-0.014717587702074581
0.0005708867094126364
0.006908071536405596
0.015174395764601563
0.006290933104279538
0.009712212410156813
0.008907388283768698
-0.02973441212562572
-0.01684171284846483
0.01624396430727381
0.00794624614542363
-0.00694070477463957
0.008826002768217524
-0.03682280286769834
-0.009683610359931007
0.02704038753477555
0.031045073682299522
-0.029393609849197793
0.013334009970543166
-0.001236605322991112
-0.0003235602691852139
-0.02675892440017027
0.08704314134181362
0.09428930709708064
-0.0274114986747522
-0.00014924382468850343
-0.022070701707331095
0.026370880489758795
0.009991106077245274
-0.03595165947635115
-0.023511904472002337
0.004405385935814797
-0.0012403803759411544
0.008524039579438154
-0.007186889396649997
0.01886413402388436
0.013023040877876986
-0.01257372151788745
-0.014049836904285871
0.015020790061437188
0.05758177000078909
-0.005537174592107648
-0.0344452392235251
-0.036856708264042956
-0.0057585183984348405
0.00979388461990296
0.020694380925007878
-0.04053537109892985
0.02276588296590977
0.0006560636587817799
0.032915966257316305
0.035063501363401646
0.02106500937647151
0.030774358015435287
0.0034976978771889384
-0.029141786086771013
0.001989430140329307
-0.06683568437579263
-0.05665660368885287
0.023018393561314604
0.02079012516256248
0.001070893725832167
-0.020690089463444996
0.006238905848477753
0.007909112566008394
0.008317892998954975
0.001527363250831547
-0.01419228406155914
0.008951301167717888
0.004116972951944312
0.011405944112873951
0.004170817066728809
-0.02414564546143167
0.007686565110362463
-0.015325461550634278
-0.0006393466797199642
0.011558145113261817
0.04351468464660502
0.030318387379948967
0.0024842863502426296
0.012152082581768444
-0.01683175044661424
0.004873491141222526
-0.0334376709485926
0.009004019309908528
-0.09944597219523009
-0.10992290783366096
-0.0012836612808009515
-0.00834563755985075
-0.02496321137409778
0.06773316637657384
0.012724512912600787
0.044529815974830654
0.0553742734940718
0.02932997325099365
-0.07344225413485227
-0.02172978750330537
0.03890252707469098
-0.009147981530277252
0.022907894472491926
-0.02526353269141192
-0.04937591158957068
0.019968969588330915
-0.008264346042727147
-0.011245323222651746
-0.004833532041296006
-0.003417591648163217
0.03535717489987783
0.02942313213802975
-0.06216724369642805
0.03642062169489696
0.16593627490543172
-0.012427536400735984
-0.004367192841638041
0.02586859801719047
-0.015318369113072435
-0.03023221354351369
0.003614003955372608
0.0010500251532392767
-0.014679823614174747
0.06487829741504379
0.0030255222028917174
-0.018905973318413205
-0.03670055281120658
0.03942238684326428
-0.02594157025754421
0.011949701306558369
-0.018928439957681058
-0.11986617335863836
0.07167738137123976
-0.010960403659385448
-0.01014584338930986
-0.0045038062151306416
-0.058331077670694204
0.022041834292167516
0.029217615119702695
-0.06444059431103402
-0.07947758628076103
0.00902085177400447
-0.012947601629271657
-0.0070942988011963685
-0.03368205081794448
-0.022966389230839816
0.017498888274824636
0.039426987648223534
0.012191038013160257
0.006198948514000814
-0.007168498422905895
-0.005339773192530963
0.016736163292386058
0.02436998089714415
0.032210780766381876
-0.0008281608553075715
0.011096039608304634
-0.005906201721856176
0.012855533642150904
0.002316474434401817
0.020251955218834272
0.05240833515737502
0.02473046122412867
-0.02249627865291929
-0.0013057686348262182
-0.039850366683987996
-0.018677500837703614
-0.021168717913405622
-0.008199579359797935
0.010731091140944901
0.034098380311510273
0.00320772723646483
0.0762556590795067
0.07939162440121215
-0.05537394249246535
0.003972425320154209
-0.031607887375924244
-0.014878017913852768
-0.03149545082310479
0.002749967200113088
0.054846993344672815
0.01740637492955861
0.024551610990766887
0.018634737222067304
-0.004560118029628567
0.001398106738494482
-0.04021609372813041
-0.02265685712366683
0.02773333184717084
-0.015642135567616244
-0.0055106895874807455
-0.0783400470803448
-0.028754848506780242
0.00671443192580615
0.014692185470699138
-0.007659414628145518
0.0025011547893031036
0.014231031428969563
-0.016464941754756934
0.013168696195800916
0.042186038722880126
0.022151569899106292
-0.014310106241191497
-0.02206505631149378
-0.0024280567267496987
0.003845328920873777
-0.009016094733947464
0.012699727503176352
0.013874613530772033
0.027256681258182088
0.03358563207904644
-0.0037200911166927883
-0.053380299132762356
0.0014275101876364072
0.010863479720677197
0.0019145850710252414
-0.022104932003502557
0.006077106616821292
0.027211015122918826
0.01506878653727311
-0.04269895772082556
-0.03127574536728369
-0.009934127563244338
0.008775119259475208
-0.054583339881505794
-0.016475803889044124
-0.07118490292303346
0.01669778067125317
-0.01981022836508856
0.04656199686160943
0.05155180547958024
-0.006084687314049965
0.021476021805420745
-0.05906445383884856
-0.06092701237228662
0.01563011428066169
0.017493992392976332
0.0007868334581687827
-0.02309082257623768
0.026526810073137525
-0.007457972888699299
0.007971924017371367
0.03492155625115553
0.02248254919847621
-0.045408273633338575
0.1321772246050383
0.09490300432265081
-0.04804533140869688
0.009381691700743827
0.0015862445162084786
-0.058509884599614335
-0.09444310304624143
0.02636602512360393
0.016708049469735958
-0.001353568806385026
-0.004560905500090846
0.022162024284643707
-0.005717181192249804
0.05099397886633597
-0.1170202172881541
-0.05822924614617705
0.0579814091004049
-0.02581092358098761
0.10480022567778044
0.03662920385278221
-0.09667364123349391
0.03995593337059017
-0.040596200938758535
-0.03033184721368464
-0.00014803325528599793
0.01995595378102879
0.04457601110637671
-0.0007328506091736309
-0.042052328115910864
0.012063859571924414
0.022741947363893233
-0.0226408894734509
0.007407880753469939
0.037873694963966184
0.06026417097567905
-0.019839552214969126
-0.04144684714434188
-0.02755306943713755
-0.030708696095690463
-0.010900943791877268
-0.026740731029825843
-0.02915568949144513
-0.012455905808921232
0.003337837093868877
0.0153259622362865
-0.006252448029309065
-0.03683165483976622
0.028505980943984075
0.16722253785386024
0.011482783779839276
0.06696785770589422
0.1076526166126199
-0.05779693595382751
0.024601649497237973
-0.0030647139042408117
0.032740807721079034
0.018944793895154532
-0.030765769891689054
-0.02125945469835786
0.0335337658651605
0.010437059949879613
0.009877326741527718
-0.006152383773565086
-0.007719274819037464
-0.0504611110960185
-0.059074977496728215
-0.06606039782000638
-0.01200950599687161
0.02758063902568336
0.005377291734534235
-0.00503211047257731
0.006740816855036609
-0.0316945552805667
-0.013932179352123862
-0.0861706278552216
-0.0317848297143787
0.043459297301368896
-0.008439369152635249
0.015134338999937666
0.007422516236356507
0.019485663385197038
-0.006775450322445232
-0.06105798918650387
-0.04110998877348308
0.02797847232609238
-0.0004336305882357511
0.11857198099261979
0.06054661646133522
0.022274834889884583
0.010105460491664886
-0.06643162719442326
0.006351485712838196
-0.05002595422382072
0.03583513551263927
-0.12742306338891676
-0.05444376084339521
0.09168021679468452
0.00021133627158926547
0.012158995355982886
-0.008991264810812992
0.006451406041332194
0.005905359391213406
0.01269391474902887
0.0015066240053695779
-0.016231722877779405
0.016167959310778125
-0.00908716875729232
0.02873185683578265
0.01140390385543942
-0.0008662682053941829
0.01797707888099673
-0.03192730694197462
0.007919729875681602
0.018882096060817578
0.0022466638289427364
-0.002979118544357991
0.025472520875729363
0.0014765077726882092
0.004964256487782905
-0.021038804862361305
0.008576799929534314
-0.004295764733900524
0.015470403684239332
-0.040161333194352535
-0.028335780149055297
0.012837086361488913
-0.025593480116817533
-0.029855166103528084
0.0022583762480304186
-0.018133304050211466
-0.04039403112844055
0.005400402683647188
0.03587422017594265
-0.026274216807127066
0.05306536572251582
0.007034683480048346
-0.0017249748676265715
-0.014536611354929233
-0.017648819584291157
-0.014547225716427973
-0.028895273852976876
-0.05533866791759699
0.026281149437540313
0.16681460866518105
-0.029514203245609036
-0.018984447381275985
0.020567151258797246
-0.004874483864501728
0.0557729676898307
0.14815197446504866
-0.002003082540953813
-0.028602097946736297
0.017528883998542095
-0.1406812245219288
-0.09795897888509894
0.0437131950431432
-0.020807609282155342
-0.023597875797093205
-0.006255496698159153
0.033021027398874775
-0.04435575785237491
0.0645787433847667
-0.014520820587449981
-0.0037638825307688287
-0.0012921020829223153
-0.025065881957863276
-0.011059533275399557
0.013973443904213394
0.022188030193537604
-0.013040909051864643
0.012623087615864921
0.023626202927463615
0.033506866404558036
0.06682388233585872
0.05739449944037042
0.04038034268174268
0.008205179361852248
0.0004305927497209655
-0.013585038112253946
-0.01749178266737826
-0.0719097085072743
0.013998333241181599
-0.007923850876253255
0.013667701873131544
-0.016452517638781677
-0.0390470837348933
-0.009693191244428722
-0.006384279329467612
-0.00605184753030238
0.017791077715066675
-0.01361727454771815
0.012366033593825982
-0.08342973610968434
-0.006530379779278228
-0.009700114459185468
0.018389719105344062
0.002298873132139957
0.011945196542983889
-0.07691693217079752
-0.01053090175579356
0.019083051722738848
-0.014818772600195223
0.0030074748520077534
0.02048141791974695
-0.04843291034584832
-0.03052082536188847
0.04507093360854573
-0.015029025525357462
-0.001334703964546085
0.03512959802456393
-0.009262009006305593
-0.024514073866372922
-0.007201261709970298
0.02879279285801214
0.008880665992097641
0.020423414306606075
-0.0015414333848904425
6.310602810870487e-05
0.013021220462408245
0.0123958532850527
0.0024074434266650024
0.07371367050327807
0.06071348318706196
0.06243338570781092
-0.027155855399004475
-0.03235536426026531
-0.0007276471145567789
-0.08431786170046968
-0.061291269679637904
0.07253892647602785
0.07787206864412717
0.00729926465626156
0.0461488187651339
-0.006828397200247485
-0.040944512629159
-0.03006166546524177
0.039712644573037595
-0.0018262512633414466
-0.050595086939402636
-0.01568780345423155
-0.021134745582339756
0.031188168853421527
0.007820143375187869
0.02351097124824265
-0.04331717771748896
-0.05503661932394936
0.05584714138811123
0.029787187451046675
0.0009826445791364263
0.00557637848704157
0.036813157790536954
-0.0011098714116399562
0.018932367110038446
0.001290400294647353
-0.019194051812679407
0.01685213376492562
-0.011666395206472422
-0.02445543609597437
-0.01678484570089896
-0.025755937043493375
0.003350531749226307
0.009937025749802377
-0.09643209426366581
-0.06516490233314844
0.013872631110994857
-0.0026934118039782175
-0.003610942606153202
0.019978366397395243
0.031023266440851318
-0.01462521568727011
-0.08668945340436704
-0.014904829492362761
0.0033419322419863044
0.0058555677696476285
-0.01580290749394696
0.01200475484359323
-0.017678244278292416
0.02659979645444932
0.02415863450179146
-0.010466553509759372
0.04261662710652163
0.03858484590182148
0.014343433685832449
-0.004202045312995588
0.010421431067928639
0.03420620458797764
0.04211518731395199
0.043149823106890986
-0.02555577902110368
-0.08082131191102093
-0.005669549795771643
0.028506251096035908
-0.0166562318487599
-0.017697673799318206
-0.011096845272182741
0.0012980756316071298
0.001565329930746423
0.04642595939131069
0.13825723138086757
-0.021411922561092735
-0.042315439667337335
-0.031044591551263667
-0.054998388703736356
-0.0051892211224694165
-0.002970853902360418
-0.051766798468111254
0.01277675129420415
0.05892915873442701
0.00036047577251807324
-0.028992903778593097
-0.007298772853839173
0.040729130101906416
-0.023686494085522872
-0.009790701836105717
0.01035550539099196
0.018478353396812714
-0.021406267444157818
0.09030751065538527
0.01175924056318638
-0.04520406343229281
-0.014507416220912605
-0.006343470764370914
-0.07379734080743491
-0.010234006027232106
0.026110140237111355
0.006674974138460215
0.05215524271672677
-0.04037751120051326
0.004395219779764363
-0.0947675193946318
-0.05311647779735891
0.07241858677190406
0.0270314164482252
-0.04250845539282851
0.12945664434040277
0.04317306663295211
-0.01381845211241504
-0.03841544954553104
0.034829240204260085
0.05482701035731112
-0.05567492778704766
-0.0003122482350711135
-0.03262743514603669
-0.032592991302587714
-0.015558522864566318
0.005445908285804233
-0.040439389926255974
-0.021191872404547656
0.011241348691706237
-0.014701069320263984
0.016939506144824635
-0.002435464288997783
-0.08304072473677651
-0.0047485307516629315
-0.007718741484268109
0.059729760272924357
0.06500855677556447
-0.0009210376338022601
-0.015480390200165485
0.13134791805097945
0.0423650572997697
-0.022892193419345758
-0.0008836557055531672
-0.013018768010901427
-0.01050005148442283
-0.06524719018395207
0.012342463184361479
-0.024148688674447364
-0.02405736735692872
-0.008647338588465045
-0.028695896468709205
0.08708872091386667
0.08886794625908231
-0.029614514974372726
-0.014018836067469731
-0.03502452923249884
-0.02291985655491564
0.014050072800787343
0.036255148295433706
