0
-0.04238095151510131
-0.0288756096709011
0.04945839970608945
-0.006550453372693297
0.01651094402585722
0.041272752055287264
0.0006458571533363871
-0.06668294675435354
0.003405521740212812
0.00857909795984887
0.01996269442490605
-0.00481526345130604
-0.034528759701708996
0.007316499150259136
0.009681888029055225
-0.006684760188269535
0.0303212972318194
0.023330620558767473
0.03096832632084864
-0.03719407537769541
-0.057637337269332754
0.007555606133361431
0.02169282707361086
-0.07144031501482465
-0.103548361520148
0.046756320053592496
0.010084245583340088
0.12214967564844333
0.06659071872274626
0.0074240465007763615
-0.004138181300029557
-0.010177581177590576
-0.012160856528333888
-0.037566741494908296
-0.02247773129239921
-0.012655301499287471
0.03638320365370184
0.01012679058289623
0.036609705095796634
-0.013908748401299003
0.009848833957311235
0.023273319110479824
-0.0025844471291228558
0.053896958814640385
0.03087886332144999
0.03092164242649682
-0.006641068627782231
0.0022603241753606515
-0.1078313306102514
-0.05343174434498101
-0.101016981857246
-0.034149434235749954
-0.001289558661301282
-0.0012708089108811266
0.03142700246785106
-0.11524450925179149
-0.009818953538659572
0.0518864671153344
0.15437828892420005
0.07235988073211352
0.042134431136238555
0.05504637223655279
-0.01719480776008644
-0.03223139462811908
-0.03890075723326281
0.04032068609007759
0.01638256309911215
-0.010752131794658627
-0.03446294345452832
0.003809418494605927
-0.01078260760257527
-0.002603624423007251
-0.025448915662779924
-0.0022833652696811714
0.007530590021039824
-0.004364115692687126
0.06297956618357178
-0.016025609340391475
-0.014941079586926503
0.018422979354497892
-0.02867149732744441
0.016196734558474257
-0.016539953212219762
-0.0017589435395778837
-0.005097735484876876
0.003967382466964432
0.04266836750672929
0.04185639942839315
0.07321420517089242
-0.01240444211879891
0.041689993028417145
-0.013879401520391273
0.08298003133093758
-0.09750904775833462
-0.2353046953944666
0.0011651216828684465
0.023517124680799684
0.035204115381718484
-0.006023920803999773
-0.01907453894463829
-0.0036031786638963084
-0.021030609426402863
-0.01373842182351729
0.03441035319937885
-0.021953393152986823
-0.020236730102611112
0.020090680467154193
0.057932821835356155
-0.011547154496120137
-0.009256078534500313
-0.07803175767844127
-0.013067294042689068
0.054668141182544795
-0.01865826940157476
0.031077635270670954
-0.04269846769151045
-0.01816892140426008
-0.002254275467737455
-0.02557141025403172
-0.02420995984170499
0.051251823843936485
0.007726731615183352
-0.03412821400105811
0.04415970641931627
-0.02415618193123019
-0.01693254307460298
-0.021133971185421558
0.053117666197109364
0.01451187925388071
0.0043976883733007465
0.03853609517647342
0.0037995850031355893
0.0035499109472079465
0.020488463934966134
0.013031644301354365
0.005207291673140258
0.00436257278997077
-0.003650122323120896
-0.01573194279251577
0.017476257713511092
0.024740398051301887
-0.002240050250089064
-0.0034860389141653505
0.008402969582293847
-0.03086034451332641
0.017989736092439007
0.0007130564438879534
0.030715787904672262
-0.04163197975021635
-0.006164214452436219
-0.017021602531481047
-0.012383253868498919
-0.00788829263369312
0.004125577447378449
-0.00886963975190675
-1.9505831185878928e-05
-0.0037206083460016573
0.003906645536066072
-0.007502278906358046
0.014969374731233926
0.025883968767416287
-0.02921868220678769
-0.04393691374730511
0.05540269718259427
-0.027337362316415377
0.016335924652110912
-0.007082133920297216
0.029065742740412764
0.10069397194219883
0.002029018333216819
0.02857304245215334
0.014606253396739507
-0.0007822982539801533
-0.02328977920960153
-0.0017452253788061338
0.007793246010020488
-0.009064483719453858
0.009657551824364102
-0.005782504674279584
-0.014443401700993128
6.290624148654453e-05
-0.019760667042454272
-0.11815948567726034
-0.07280240692351657
0.041089045865381084
0.03934392559442122
-0.017361185466879495
-0.0390325686455521
0.025685993137899328
0.06552165947403163
-0.005853345663563959
0.0380193117488725
0.01205100253170278
-0.09849915078528165
-0.08607014920352205
0.03259219963198341
0.007086575438674983
-0.02442979560488218
0.002918745720252765
-0.0007656143877912368
-0.015133053018317393
0.0347765001471502
0.04885367543502161
0.012508351720492772
-0.0041993041495061445
0.04127856634001817
0.01755166354762233
-0.0027119427988073794
0.017402382999189447
0.07195082353330821
0.0011444004645274819
-0.014278506143016796
0.07634228773938141
0.0012388906191809438
-0.01914250507336939
-0.015701688293637817
-0.007900823837888721
-0.07543499113367438
-0.023890323353155534
0.000281356742931894
-0.041169896402684605
-0.07400877322641652
-0.05072682994397303
0.100890665720973
-0.01065708523237678
-0.03574454865273931
-0.03197281014049088
0.01896802416691612
-0.00538508361067246
-0.01519826122523516
-0.03629173109280105
0.00158026398753882
-0.013836076001338906
0.013285857971807978
-0.02957552521551372
0.1658470965493171
0.03669188884808916
-0.02384201183960772
0.019582928646665377
-0.020245292864546547
0.02384813770598147
-0.006796418949026282
-0.016560354065450422
-0.008197046066704492
-0.06509075736720796
-0.008360521202802772
0.0399861394188141
-0.018720305177431635
0.007002045450033285
0.04963352528584517
-0.039036018608811084
-0.053792493610425735
0.008252897568932441
-0.016630468319087304
-0.01277396212462806
0.0031780548994393247
-0.006317238242143099
-0.017852045522040866
0.02785039364217006
0.04948742156054516
0.022140384939847758
-0.0061826837523813365
0.03958623537588643
-0.020239494932776388
0.004228746728848066
0.013142815024509565
0.08781657715413234
0.098765404754696
0.007771875955202322
0.018124189552903344
0.008503181272208447
0.005614995930151481
-0.025322624426184243
-0.041060357102438674
-0.02311918089932409
0.003975131022847343
-0.03888147676064398
0.00315900444249936
-0.022436444175000583
-0.005226483506826557
0.011579360975754781
0.008458027606701782
0.020871218986550436
-0.015698484191947658
-0.0388319674875899
-0.018915171689368928
0.01393885010236783
-0.030497246397297686
-0.01979079461089391
-0.011695429041631369
-0.02056191631499464
-1.9193866542029773e-06
0.021879211028032176
-0.016192193488419777
-0.0755923152005055
0.046521262795701145
0.05225446957089705
-0.03842575146381402
-0.012287212401887043
-0.027386808401454295
-0.0005229923757311035
-0.02369490753778441
-0.044572010383119254
-0.009305214868876286
-0.04923010815969244
0.06063834614844941
0.014960749825806394
-0.0009519387561857437
0.03222918088089782
-0.00033371133937918447
0.03646259134404915
0.04687756366476972
0.041072368544711524
0.029537151709423132
-0.008063473967839362
-0.06406981197790763
-0.013218672786689247
-0.006506343811116063
-0.0058710989217336485
-0.020739503394530037
-0.02525732337430847
-0.009036123901012131
0.006264435539510359
-0.10664739722157092
0.031866659794071994
0.009981342566105132
0.08427239138131198
0.06043274035708694
-0.02248112744138775
0.007237916508917943
-0.015661910763784485
-0.012550384027265082
-0.018201388368699688
-0.03221903490268986
0.005500074899645462
0.040755038808391014
0.06437517950597582
0.09279181099548696
-0.03039661827897357
-0.03809367188880374
0.015187463306216738
0.03172390352387043
0.0031331891454105497
-0.02915457060673032
-0.006421659829088667
0.017940192234390803
-0.009951831439795686
-0.014921537664093439
-0.05172993578158755
0.049004403260761005
0.057747907458475245
-0.05410531582163554
-0.00658398543541802
0.033795845863314154
-0.0005631325505648566
0.03142573870603539
0.018777122569421854
-0.030204881154755257
-0.03238162092160519
-0.005078198687947171
0.013814337303545036
-0.013373533370576948
-0.0022936494808213593
0.023592831127945697
-0.019641169756351336
-0.00485794263447706
-0.011822765427995957
-0.014404442346816555
0.013781763960002913
-0.044600418927243125
0.007530711170270976
-0.005592096485965319
-0.0004431112070220416
-0.01745424006305159
0.0023215152934063653
0.025911426649113913
0.033968929021458774
-0.0032676289488140506
0.0021572765065688876
0.011179945971134694
0.004042397575566738
0.00053634713983707
-0.0006103145210866063
-0.025057026549395865
0.0018102669439750924
0.017663938435645635
-0.02355632969557176
0.02119557397399523
0.005746715653940825
-0.0011569458264618874
0.054910283132754804
-0.01091503193931809
-0.011189981400645225
0.018704490921531248
-0.036359260437797386
-0.04593485836560223
0.028329470682757468
-0.0033231601895895827
0.14814530786155625
0.00452183863215384
-0.0360777138782845
0.02110205422602998
-0.10156176406471945
-0.08217438143547459
0.014914457948524118
-0.015590618847196676
-0.08034830684601692
-0.1401866882631857
-0.10956401409186735
0.025230267331443634
-0.00865967243337538
-0.01962390102944182
-0.016769347598754907
0.005864969565595915
0.0028927320003922633
0.026790142469836208
0.09952485067539098
0.023304788384026724
-0.033567699716811804
0.005742707626391803
0.001318560659534132
0.034895056831167066
0.15896834890621958
0.04498510555930393
-0.0360054995892126
0.07097875482401922
0.036191242311004
-0.040622241055713625
-0.006056981780689996
0.013841614418615996
0.009617526054451517
-0.008473405009543016
0.008520838634207481
0.049249172758009954
0.042970782720992605
-0.011174356154454106
-0.024482098337916692
0.009659035299373961
0.006448808502968086
-0.007216808126704566
-0.028969999902652435
-0.01953384749284841
-0.100782399948572
0.08646119327366186
0.0549414062236932
-0.14398999064499124
0.0040422245815267595
-0.0016972180889348837
0.010973111528510732
0.0012695917572092931
-0.0008825199797443769
0.01137758882028176
0.009315974744277533
0.006044834372535413
0.006057973270097922
0.01205073877384484
-0.0225547459372324
-0.006297148847116859
-0.0238730353041191
-0.025790743449437166
0.00043787105189698323
-0.009873003170972174
-1.5971478735336516e-05
0.009778292071448534
-0.014829516922832365
-0.008177504242843183
-0.029286968154246563
-0.006551284310001449
0.017933007522699378
-0.028222583260056375
0.008655741263477042
0.1817795669486797
0.07759880246440634
0.030385646189044276
-0.01799939077307965
-0.207209775472853
-0.037863484892317896
0.06955992238138022
0.01548248975151747
-0.003528223273407255
0.04527892281691003
-0.02401006883304403
0.029712854445290194
0.043711469582476396
0.03841709600751438
-0.02806331463643312
0.00735075350615742
0.012483800906479296
-1.1923013445882678e-05
-0.03864885441235145
-0.003570351206203345
0.033879902808369805
-0.0036297246342516104
0.01544555169857583
-0.0449655159183085
-0.10394376328699996
-0.07873712448153634
-0.09228473565209265
0.01852727834017386
-0.0025139197700842202
0.061646283940184066
-0.013762031017761635
-0.024164720130731135
0.012137725474471384
0.08982330652089585
0.03313645151473006
0.005426663749730686
0.026083832257303836
0.015344789051980334
0.013308098353252943
0.040835184324154936
-0.008679740394373017
-0.027947376063059606
0.003064355442387297
0.008688301631994133
0.04189496139660667
0.012686255437159899
-0.08627903193946058
-0.06018659528435978
0.11513208159623192
0.09565790667013471
-0.10061669152272279
-0.10059221275685204
-0.05828429072427244
-0.03388853236503239
0.012072077606114189
-0.019685370697296773
0.06703680204986767
0.022731540903435123
0.04111499632349149
0.0235126736684924
0.04803226793473246
0.036021887432475495
-0.02671563471036632
0.0310076361721617
-0.054293951386876926
0.004950712250315745
-0.028121834794187762
-0.07539195102497598
0.0016058515871667871
0.02569387832323228
0.10382898787370057
0.022730620186689674
0.011402370827808952
-0.016329694112944916
-0.042307602937452976
0.043434410342991794
-0.03553555427609714
-0.1180428579995674
-0.006019086751135544
-0.025587226991798672
0.005548662416166815
0.029976428199408874
-0.05038333557036539
-0.15279617863107542
-0.012754810468817986
-0.008743690141851772
0.025380705061878863
0.12276520480162252
0.03426640033879465
0.008705848032279176
-0.05197184229250072
-0.1160686653666171
0.09995899721528999
0.02865739481574574
-0.06516467213774324
-0.11757393602132014
0.017049767674236892
0.01897217927077488
0.022076913775384024
-0.024790165959802598
0.04817970591191132
0.12221412168563477
0.03881941957798794
-0.04190103930214937
0.009776833140630499
0.02566440612948373
0.0546322257482204
0.020110640086715894
-0.025330832938789183
0.08762884127334294
0.04637931859200294
0.015056675143966226
0.035028498839792824
-0.004479026031317967
0.020404280155596335
-0.09217698625620134
-0.05364884262143821
-0.0031569780280550144
0.00557294749707939
0.022731315816079144
0.004196718466509385
0.008752701299588325
-0.03993998563071113
0.04083882305873565
0.031041815762298617
-0.04746105688852728
0.03771363971627205
0.0036955170953284345
-0.007624667448708265
-0.020451342775202615
-0.02580930367842405
-0.020520574020685793
-0.009422665733853976
0.006786376858577357
-0.005409942386762823
-0.011148772686316089
0.02896595780364446
0.02141719245274977
0.014924293302169586
0.011266570870750293
-0.01128531054086451
-0.03110248917322156
-0.028412211593868072
-0.1272495928656954
-0.029917916195297514
-0.006474673600724883
-0.010522505742138255
0.006443143993238597
0.04846914136625967
-0.051313657967395704
0.02987249986518956
-0.014776924621560316
-0.013966388882560537
0.014720343567484763
0.11490229942394938
0.06279018485695487
-0.03768632368393651
0.006432064260760135
-0.007990854469464454
0.036043121414969605
0.04666014109104395
0.0014517295011142318
-0.00254905444911071
-0.04914720354745175
-0.010142072025363807
-0.037373474461796716
-0.027662873328831453
0.0013339443316393396
0.03190649552085375
0.022478327022988118
-0.002472430361091693
-0.024692786637400946
-0.012549818401932323
-0.0012191123251193848
-0.017271160063135265
-0.03361318785961112
0.014973826911040797
-0.008447785606748451
0.01996625881347368
0.015903675760102248
-0.0033939606508981476
0.0010797583254217248
0.011360550041433081
-0.04655117106681829
-0.039658421781297935
-0.018955252815623356
-0.01235176758651678
0.05461499263129995
0.007595066140751981
-0.018403211899604966
-0.025039801516333407
-0.02014703355951886
0.03148156978399431
0.03573999672168145
0.04713670212124183
-0.005514414011697262
-0.032167163545100484
0.00877039527865683
-0.02451786717184185
0.005776520182863457
0.0015747228576960702
-0.022698702751361894
0.06589813772985458
0.02079411901441295
0.01773073518298774
0.11156286391182085
-0.03891830351923545
-0.01675447766099957
-0.04493116197836217
0.003751933807759489
0.019792576628121544
0.017216482327030987
-0.020140530996621237
-0.015063026697425505
0.04182989864132043
-0.016141075925296393
0.06624217456451767
0.001511028325315413
-0.036928408897745534
0.01465996761019549
-0.010057683268962045
-0.060548201434000054
-0.02375599843548126
-0.0031123319042919316
-0.027595323194404102
0.017252590421401676
0.01987095251987866
-0.012564410993873553
-0.03129892165145323
-0.0428547180792185
0.014681360990695886
0.006349859760982907
-0.0149996988071655
0.0387760050188182
0.058367602656565105
-0.014472438623000421
-0.005578365088953425
-0.007396868686950571
-0.02925045383471392
-0.024434311440441062
0.0011186613544759874
0.0007603276172862286
0.029350149084007952
-0.018269376228363107
-0.03167615726981557
0.006547677315814442
0.007728264820627602
-0.020401187141066784
0.011924194440396963
0.08539357703628336
-0.011720710716059127
-0.008782925973966777
0.041115247652686475
-0.030849659001475096
-0.041311913458819724
-0.033202033505396876
0.028267997010026483
0.10963066832989143
-0.0806808517509004
-0.04549784514343569
-0.0143114123527818
0.07970118668278138
0.11741678402143417
-0.04234904138580137
0.0032723015251654927
-0.03299682239038532
-0.017259735490867647
0.00823235623639399
-0.03234958646834695
-0.07150762360075542
0.02478543801088626
-0.02329196033816308
0.01800814006518516
-0.05398255978472654
0.12898566782697718
0.06705354151115324
-0.11657492221216818
0.029194262104345853
-0.04130695960881538
-0.06931848463126723
0.005544364135754801
0.02420958348886848
0.04680550433580148
-0.0154406911242837
0.15488132999548687
0.044676723947322104
-0.13992337777770628
-0.006298117855870157
-0.017185621273410688
0.017893074595093154
0.006528435092722375
0.001934756388203042
-0.030361543475977203
0.03299828352481949
0.0223052907087047
-0.026929034484166146
-0.05727735785621889
0.0025688553219965684
0.08096731842140449
0.0014472333437389182
-0.001214279552081442
0.0851598062282243
-0.018106292408005577
0.05876721247608791
-0.11683457114776968
-0.08392965227904356
0.05512916863414605
0.055744082356275065
-0.06461439689334372
-0.07589990903591758
-0.011546487532246397
0.12305569475816173
0.043801214950082594
-0.14561057289869578
-0.037199757946772494
-0.07863237927848601
-0.014757467085899569
-0.014909823443560698
-0.023466582190742675
-0.0027303307887144453
-0.07153892459780871
0.011623857994310828
0.09079591985592973
0.0015585203904624476
0.02915454458558401
-0.04159234229723339
0.029462796770659435
0.14351056012319363
0.02487196009947177
-0.021863062916962675
0.02531802263467007
-0.024469457794242415
0.03163407779739952
0.003420320183195904
-0.0018858909471606345
-0.01449366210280362
0.01575824938573768
0.002143572014928764
0.0014523520381235825
-0.005249832477271436
-0.00424785054666557
0.009946472068239617
-0.006851589930817647
-0.02063784362982209
-0.011005808789428867
0.0060458024683278395
-0.0450163362148623
-0.013492777411884689
0.04170269551656294
-0.007689068652848875
0.10741170276267575
0.02648192826456052
-0.04261756407142493
-0.0005919178339581152
-0.01250805971386923
-0.035184097738843255
0.04571082345397458
-0.009818127054531478
-0.013564140982137799
0.006528649026776036
-0.06985759273555459
-0.037973706296807644
0.012617231202119095
-0.011281123704350637
0.02676339215654804
-0.006703385249999617
-0.040147189733928
-0.005747330288005415
0.03415997965505638
0.0030777729868157115
-0.018942894121542993
0.033717479712902884
0.00821556284837154
-0.007240064560628312
-0.0032310910370623846
-0.04046381170405896
-0.03178874005705022
0.0016408495382499544
0.1223223663779885
-0.021751357659912773
-0.06657971518039131
0.0020480965405371117
-0.004089568739474022
0.06322714538877426
0.035179208735294926
0.0010759258098442636
0.05709487555278351
-0.005760816016921249
-0.011255008594494856
-0.00508977857074603
-0.0075634976174852086
-0.0025565149501047785
0.012487060098237449
0.004880648934534606
0.0041493399610220295
-0.004439548605816886
0.0013379099714837099
-0.02638014131558531
-0.028481257299516193
-0.010425294279740899
-0.003759226110407704
-0.007038098335295132
0.0027872243061985193
0.011767947573428424
0.010925259177878526
-0.042486183447057374
0.005275152397504506
-0.020179674790205555
0.034343360104261304
0.021042080302116725
0.051080446395094924
0.012010197610742696
-0.004406782770243463
-0.013805578057471908
0.023891392583226968
0.019126056412277898
0.02076492259599757
-0.041423723745217626
-0.05817869458256079
-0.07206985186530683
0.07055094384276729
0.015541730823215078
-0.03012415396195128
-0.016362801652453886
0.034159770095839634
-0.023238155024002023
0.039065383947465365
-0.015349126583704208
0.0067036842213362155
0.00625347774743205
0.05311335950713377
-0.013710208171108731
-0.09067814928713451
0.07209833629782483
-0.026711120182411032
0.004349347752017377
-0.021987933370072158
0.0059827872935076685
0.013707116269672387
-0.0225798396723969
0.02476976340170982
-0.14824113735865743
-0.09770679492853167
-0.002807903370319913
0.005921619630743164
0.0188640134210718
-0.004789815295516516
0.04990953870833939
0.014794663279205195
-0.014346791331676626
-0.026772189017290445
0.010951566294934222
0.04114232292571916
0.04331288498283561
0.007587077871480986
0.010236452850501671
0.05185457808656017
0.0802208209215458
0.04920256714456193
-0.0008029409030301204
-0.0007402673142484057
-0.006288140708553934
-0.0020338834013231295
-0.0027248143642367387
-0.004529195353299502
-0.010721413303250802
0.010246729890964713
-0.0008023215711035294
0.04791332838945302
-0.1671878249858865
-0.10978496756881949
0.035788261931365806
0.0347838060842374
0.013321813852802605
-0.015573516088971008
0.044888929444765927
0.016832878566175023
0.00893542212099936
-0.02929243812974621
-0.1933593231805212
-0.004436179623717173
0.04406110606374246
0.0003139446933348986
-0.056760207986490084
-0.002468368717664759
0.07022332130883886
-0.015790648184732324
0.02134480076276269
0.04666081130043694
0.04844184985687412
0.008662386016808476
0.03698375435886585
-0.01233718572402481
0.06756810877053944
0.06000733116267563
-0.03366857939341082
0.0017834941270811597
0.013405063497373254
0.036094738762134815
-0.02878203042969283
-0.01470619064820996
0.02514528285027019
0.025372787157351303
0.0273903331745565
-0.024026162135918124
0.01678431528232257
-0.008084028744388887
-0.009149197486098713
0.022835684497943435
0.0014317587758433637
-0.017152559961954243
-0.023659107807314696
0.02708395048210771
-0.13151572720736793
-0.12797760282870554
0.006578148525577102
-0.019308105911200454
-0.026111797345445924
-0.020988471953606626
0.048571332223735164
-0.020917671114641788
0.015483879640920762
0.04303346853895105
-0.007033613278482196
0.008554737393443583
0.010900344618360633
-0.04672933385128484
0.033070978290101555
0.04622148235401173
0.019725823407896352
-0.03143124427237991
0.04786091258605718
0.08371053943439845
0.04568016082847454
-0.019483087533800576
0.03133823681667527
-0.0019856334346610932
0.04132203973503
-0.07471616012916057
-0.10129923978759926
-0.03292162151787928
-0.04434193644554842
-0.011823084538021916
0.0074514760157451815
0.008647787618750395
-0.05133406480720326
-0.05643717671295078
0.04025295257449715
-0.02084529873881149
0.043069107176229304
0.06272191724768385
-0.0034728098820936324
-0.008779905480742764
0.0371556274670466
0.035546470010691805
0.02403938124228032
0.0033670021327123515
0.015120493082478797
-0.012287621217420115
-0.031984489883140545
-0.049545646015482135
0.041514287752881775
0.06184027371049411
0.013548544050795305
0.03402751624110633
0.004715457754352746
0.008522898548234596
-0.00467742441727157
0.007199348972164025
0.02440551543716564
0.021930113776083525
-0.005701873986567268
-0.008309841081814899
-0.013852239327742466
-0.003201417834523288
-0.016761033464559497
0.011763218269124713
-0.013698438991689103
-0.015223871494323582
0.029115486936332133
0.023091382522576216
0.011487611341146784
0.018844809418638326
-0.02988747024777085
-0.035916751957159355
0.030151926785616793
-0.10073669227115842
-0.19354716020035714
0.0010305920497898733
0.016607807600213992
0.05955506418017402
0.040833642626692555
0.010672881512066537
0.007079004691954636
-0.017117002014928665
-0.07146422314580227
0.0015522245652556496
0.029122706612822468
-0.019087417899297302
-0.004113672501163947
-0.10645392246172497
-0.014211217887629097
0.012722241455917296
-0.018232410729001204
0.08058258440064284
0.010610273166941084
-0.0691295939324787
0.03056883364178052
0.028315462552034557
0.03584074543776463
0.011668885264314687
0.009580377041106432
0.02012520631771446
0.038889345930950905
0.01854601238405272
-0.002628942857065257
0.010063627072935354
-0.025873445120957198
-0.027803169760253776
-0.028696741492737557
-0.0027506043849491913
0.0032371553986810767
0.006120621868403265
0.022223849588886912
0.023752041965166896
-0.0078117718573416095
0.014691033575884816
0.026858536783881264
0.018318133286962968
-0.005240868205132395
0.005964489715459338
-0.017265555135140626
0.023779618293269262
0.00015386915145096654
-0.0035273134709688163
-0.0009241372120329451
0.023138432467533696
0.01057106418841161
0.00794188259555546
-0.013244712831299285
0.004133498026626788
0.05522989232796564
-0.0015034857791139345
-0.0021809702700650575
-0.03253330164430564
-0.007629412479388904
0.04741811594622071
-0.02417505633779785
-0.012927008426314519
-0.0185800595349397
-0.026061754585685593
0.015534947020072151
-0.006107430136470601
-0.04426782199652156
0.0005341051411996548
0.02594304170239186
-0.028315486951640496
-0.00366098746978827
0.01388065412368515
-0.02705530940882455
0.004767578560221716
-0.0005939257567251604
0.032339358251521275
-0.1131274953224373
-0.13739276889291102
0.09329111971658637
-0.01772823537165315
-0.04292349778175183
-0.010475002680592125
0.01271768244596053
-0.015207793545169776
0.05586098503409342
0.032264149952379265
0.05999066304056881
0.03543966817463002
-0.0023908556263894203
-0.023157324583531202
-0.01666246802787397
-0.01085707356982637
-0.008385279969787484
0.017791761115895012
-0.030784436896070196
-0.029577004059769575
0.0076484898689188315
0.03149364918139097
0.03300069142244658
-0.02757035049797719
0.08258818762643871
0.04877394289840049
0.02641489036590351
0.005681377846049646
0.010575604412541892
-0.002830111657637687
0.021012350063302144
-0.0342494942564712
-0.0510946142197884
-0.009651733773462928
-0.035629316914288924
0.07440837464548009
0.020651180319685183
0.006232857657039365
-0.027554826478014525
-0.04181121729614121
-0.031357705516697046
0.009918454650037802
-0.004725610995462466
-0.013120247114572724
0.04510268975840862
0.03597967143014015
-0.022522600307625238
0.0038572068336049127
0.02029294496745778
0.036507286901761075
0.051224560193762717
0.04107836953226598
0.015121671478257366
-0.016945620904354593
-0.011271563050539597
-0.029955790414376335
-0.06442099007537402
-0.05012761672550104
-0.0161483125829233
0.0069768678120266875
0.0041176638609042035
-0.04618964603228693
0.007515273967577678
-0.030166431136367848
0.02034484071194676
0.03024033336731045
-0.0006804961434042668
0.013926438854225712
0.04777594260190988
0.014449363393049612
0.01182495707100233
-0.007824869205969696
-0.03572213688287512
0.0407089522370513
-0.008956905098351078
-0.009234708290042653
0.014466907463254408
-0.05194917069761969
-0.04298804351062623
0.010307306593092279
0.005708981126746467
0.05999772232201787
-0.027326054589970988
-0.01908690908100389
-0.0007022746133946785
0.013372806306152049
-0.032103692119459966
-0.02945573997040214
0.02080123184418569
-0.011121608562643477
0.03315613960255253
0.014897821786143704
0.03202619881281655
0.011867063529200604
-0.047679091362959676
-0.0366191509684056
0.018785667358829923
-0.015526450996557951
0.012513706492312067
0.010614327152829959
0.04381846169055726
0.05029031761176359
0.03247722896993571
0.019435720697796734
0.013642231837990793
-0.21765591534577533
-0.10643167783642303
0.02809646554056588
-0.018255634825355433
0.011505840644641987
-0.029777216519775395
-0.012353095246156683
0.03939193532826217
-0.007256037622564409
0.01433289605616327
0.025071517579272024
-0.024974544121377708
0.0020673311957034716
0.00045418846939483405
0.0389687536948197
-0.05156395551917219
-0.037469741729169496
0.024127214360115518
0.028614998833444965
-0.01690849595679601
-0.015904896495039973
-0.02873326266343058
0.12158293691414354
0.11149231538222475
-0.031202785266946174
0.010304548187545955
-0.007833987041393561
0.017071931863018742
-0.01157922047205411
-0.07191178299263426
-0.026906800500108442
-0.01936559169736607
0.0036181794271220326
-0.01054594802780527
-0.007969995207756573
-0.004187201469429728
0.029363370970016255
0.008758142252416378
-0.015400369293026456
-0.01504002088178147
-0.04903584691721873
-0.0631961761269074
0.017315964312104127
0.1834755991849854
0.03286650515690708
0.10278958626992561
0.07613402931814299
-0.05229698728559979
0.019319772477273643
-0.026637528314728248
-0.009905688191713183
-0.03698018047523848
-0.0024704492513460035
0.010660902975956302
0.008529738190995409
-0.05796803470805402
-0.03195980920348638
-0.007134144753362817
-0.013820807487675448
0.004178970065682962
0.009515033522748448
0.019001917784211928
-0.029690106657158606
-0.03993618162774304
-0.009303583354889828
0.01362470814395177
-0.00746343128541774
-0.006449364626148328
0.03218796189866304
0.05706279009590486
0.017563426843552287
-0.008034162166996857
0.022879016447489953
-0.005696739616058868
-0.006890628785749309
-0.03348608515449716
-0.011028281314591833
-0.0033179220305652036
-0.026973128756027205
-0.04787235705200753
0.029370523978317745
-0.01808581859948829
0.08190882937843165
0.044056350254537906
-0.04391792953463512
0.07650813067862687
-0.05093703674819425
-0.04293765032416768
-0.06489120433530293
-0.03913278017785091
0.07053341234883471
-0.01802711453331181
-0.049652270884885406
0.09171065142992943
-0.008873795819744611
0.009242119446848848
-0.00784600814057222
-0.0026301294494295658
0.019151668047319183
0.020140777573554144
0.033677542919996514
-0.013182695882296869
0.0010491036925875834
-0.018660739357526927
-0.010068992027680277
-0.024854842424015904
0.02324729549606024
0.016795719133727717
0.004091081992354185
-0.027517667085421613
0.028896683790765258
0.007106513243049394
-0.04081399000235917
-0.012437725671126068
0.00019773905444181247
-0.009522563967026996
0.015510332043667766
0.03363365078460442
0.03531843229163694
0.0316172574503112
0.0320622307154874
0.0012789278283064822
-0.03859334719276586
-0.024372970055718937
-0.023290766775561744
-0.00867356404672103
0.0054698236085332416
-0.011905441091438327
-0.0510710737764994
0.015888297673491102
0.0006542972686119942
-0.014642809125463544
-0.010072880735995986
0.006901777563010739
-0.006446853089272794
0.03964669207804619
0.0270371270620822
-0.030343923106472066
-0.0038409356774845196
0.014632746199533834
0.011794259012322849
0.02373056685188784
0.01792366186663818
-0.01351709883798312
-0.01176672763119518
-0.024973913036896056
-0.004946777532250653
-0.04192602356415706
-0.01334065387551492
0.055326350150389586
-0.0035255757150788043
-0.03147627043689755
-0.03727140112857675
-0.02806657169266637
-0.002993749737772852
-0.03713214943505694
-0.011858485740542407
0.02892460065767253
0.0057492939609647955
-0.01114520542104147
-0.006694168506682743
-0.018340075710114402
-0.04964035574701683
-0.0402148479082493
0.02090752448525343
-0.007401132644715241
0.043410117342978685
0.006630925733971652
-0.00766223978736557
0.009685865561499562
-0.014722763083918957
-0.02657362523639498
0.03158413152237482
0.0094894839857928
0.017249176220033295
-0.04162582504412858
0.10108097809442917
0.0930421005263377
0.009491842619857907
0.03234020729537684
-0.023717064414186258
0.014663337057100606
-0.0105826213646806
0.017046891420177006
-0.022563080040917078
-0.027155325863450246
0.03643751989704926
0.02669973036465024
0.0026961601957475327
-0.004614328349798378
0.024290981112836053
0.06244780108801344
-0.011123980419615794
-0.019045530726004307
0.00892376509109369
-0.004805950320065591
-0.05816698220793313
-0.020819292351383047
0.1326444753707047
-0.028981242135687084
-0.0426461476674104
-0.007847783259150204
-0.0657913789597057
-0.013258387777173721
-0.02269535152990661
0.026530130508755266
-0.02037456401818807
0.028935701892196648
0.03189967416609062
-0.026524288905403
0.0034852192209953357
-0.023564719726317497
-0.016049631711012813
0.0036036268434359304
-0.04397181144007331
-0.049614092450259495
-0.01097780204523797
0.02121449633715357
-0.0036560621239497574
0.028497504480399154
0.03039829860466387
-0.03825515781383031
-0.015428126136007669
0.01792652175246955
0.0795111393849611
0.039637472230260186
-0.017961978234247646
-0.013027773757934756
-0.013328880842002917
0.023723770033024852
0.020541714980332797
0.002167658824284869
-0.0019661970266375995
-0.020341750240623745
-0.02965080018497119
-0.027333647383579997
-0.005015433543122586
-0.001916004117275996
0.0027955104683846346
-0.021781599232455918
-0.01063390731961615
-0.004936116438533611
-0.008044760719766291
-0.0456199169115155
0.048892416409290346
0.0029298084541419986
-0.03094074389234299
0.013806277147837885
0.046743375583123734
-0.02229988812361801
0.02872168877527325
0.013035718821783462
0.02128245670759939
0.0351587574369409
-0.01288010189006922
-0.006686737302331187
-0.004459510042664323
0.005378090268965871
-0.011777724848328062
-0.031792516906122704
0.07152245446965781
