0
0.05678361850069153
0.0503338490349557
0.00091396784693235
-0.026735444229350806
0.12599769420438572
0.011965187639990146
-0.10594530564344436
0.01727675098063656
0.02243566689228415
0.0838378779903949
0.004643936685870482
-0.0061000302176165136
0.015859346480046676
0.0014477252207489011
-0.0097396412515988
0.0048687787827707656
-0.026199710252768568
-0.10223045629349316
-0.10554078251129283
0.04824753660303267
-0.17254103185047098
-0.02119240007752591
-0.011365045673948216
-0.03591433004505867
-0.004219031141312387
0.03469004630518482
0.09804864605730318
-0.00021877886071177964
-0.0023879230751755473
-0.0003155048178008529
0.0003659018465909175
-0.0882619818256137
-0.011796702578824208
0.05060707951800965
-0.08954797094218801
-0.041361607396917466
0.024649006868011834
0.015341184325483365
0.0033749894962139004
-0.008743386007969823
0.02571623287650188
0.012761953859808243
0.038863140012851224
-0.03156018155489919
-0.02217504003136863
-0.009506672289007614
-0.006104210907967256
0.0026469350707951293
0.09807231138443163
-0.09790154917775415
-0.11523277690590751
0.015359597622900992
-0.005940594468519339
-0.06413199738548435
-0.012290216415740058
0.041011440851534624
0.1810712580285296
0.015065413087370791
-0.028270265795497553
-0.013667702071667233
-0.02209554587869725
-0.015640255238177723
0.0533032277591616
0.02859904712270978
-0.007908583270166138
0.029430082196450283
0.018193699065835938
0.006997419742472061
0.02231565656244117
0.0178847024518222
0.0007068081167011937
0.02455266284127097
-0.025741340838902213
0.004711327744241442
-0.010380472037127364
-0.023461173238005225
0.010669947249121093
-0.05273922221585185
-0.08237788736102368
-0.011022313349654062
-0.022699261459951377
-0.009121519545317935
0.03078487455380824
0.004809489803396297
0.016580478361408305
0.0380809347743881
0.018383553361245822
-0.007989603896154177
-0.019706332482533506
-0.009024199360503785
-0.014949437186060253
-0.00022368310399240298
-0.04015720273096067
-0.03747347222825522
-0.022519480265185885
0.0666620054366282
0.0041102921240985515
-0.005733672808913914
-0.010240769711378397
0.10227475086264484
0.10174211051387998
0.0738304193031919
0.04150203393298679
0.011302748412469041
0.05186535175234716
0.003743787683258666
-0.027930223188505878
-0.026965241286499964
-0.005104084128219021
-0.022510325833877586
-0.009171995912606111
-0.042152450158005915
0.025618349805240047
0.06934669102608601
-0.01747698734464782
-0.009477025962972807
-0.020619011423102643
-0.04803003864162934
0.0004603761410487026
-0.006477283334271051
0.010593511095624742
0.05569520515926109
0.010713585356109143
-5.393302070577729e-05
-0.009645030776065334
0.029246421803628936
0.02889250959179305
-0.002008986389617589
0.03053863132619602
-0.0045235225554033295
-0.07054848943271586
0.06258241943909792
-0.027088958661835475
-0.03452483048179801
-0.14066864268251647
-0.13730798528690336
-0.052464647777479445
-0.06779422146494697
0.021528203590896015
-0.031368527728246665
0.02435281693959097
0.016328695361171926
0.053460716813153716
0.006086931883480505
0.05983747044536597
0.11150830981930909
-0.005663625608541243
-0.03278417072245721
-0.05531035231942314
0.10141164713966053
0.11661443248093785
-0.17667519895267397
-0.0676318114418051
0.01976419465291024
-0.05101846167855297
-0.01636091189259857
-0.0028932580468589617
-0.003771028916995907
-0.04286957252558631
0.004692607183824803
0.009573480676292902
0.03102987884734813
-0.01482312819821154
0.00440714744742927
0.0027563168440796226
-0.032419154291824355
-0.020896356794065013
0.0065660204698404084
0.04841404503702496
0.02744384111658405
0.02594449136259698
-0.010792182332489313
0.014045542665228648
0.04016511059652856
0.009413479676814275
0.0016420114898055987
0.012507791149332113
-0.008025662428047958
-0.02692943294389975
0.01520930924323024
0.05519691998186957
-0.030427592310983884
0.012710481897114415
-0.03006245609373972
0.05631663711835314
0.06771351708210877
-0.09425343405139229
-0.08489968492303873
0.004486222298699307
0.08822092346589949
-0.03911421214029585
-0.04325785403001842
-0.027508667421061665
0.02260406817299234
-0.01026087739419743
0.002462139153082373
-0.013409903976402824
-0.00036175340423978615
0.014102218395271647
0.10399342658082016
0.09272866039731406
-0.04950988453891819
-0.01725253722403488
0.015278291846764306
0.01237634826046549
-0.014515803937833548
0.0018299978437249526
0.023164771062184408
-0.02332853559145774
-0.11233190618444325
0.019602939151537078
0.1677918621803475
0.019083059531916066
-0.031859489210400056
0.0004780115705300411
-0.031560921189229686
-0.018819130130376432
0.004302759079879031
0.013024109653603004
0.010294612069895473
-0.007783680944813236
-0.027409606231604853
-0.014356229289172462
-0.029608440198930313
-0.03204481083308432
0.001086290585879577
0.01231655089013373
0.0049947426752015205
0.00986296758954988
0.012294357004215845
0.016832849328582568
0.0031093737391151605
0.046875399689194776
-0.004629875008296448
0.03536293931111149
0.13935949246808432
-0.1014570422798945
-0.05050234995170195
-0.006730006973928086
0.00957850684941664
-0.061691254104207144
-0.14903349825136014
0.008984950284919068
-0.01837257295901071
0.011063135382500287
0.04275255123918976
0.024110664269002127
-0.012727075432004959
0.017048074402117818
0.003993208048681756
0.01667727455165758
-0.0031726989247263856
0.002535441587933145
-0.011528472310278643
-0.0032598472897048467
-0.008005136105709765
-0.0135761579905159
0.0008321545377442081
-0.009614298603208123
-0.0051061089364467455
0.01168746131846013
-0.01857556876037992
0.027582868298711732
-0.014929035580623827
-0.01625295766649011
-0.006592826109031736
0.007438065456664685
-0.07210766679278598
-0.0060010602193472625
-0.005766116340399235
-0.017905588576024284
-0.020314561724082837
0.07071092357172841
0.01900999243308039
-0.022403061736444456
-0.007760181690069527
0.0007616888000988815
0.008582371055998229
0.03193914940712131
0.0061503542053744755
0.043868499828399035
-0.02699870861179887
0.024235380000804045
-0.013525474302751929
-0.023647175598564343
0.015806074543068423
0.03275126580705623
0.012279064197769002
-0.03252949116322107
-0.10269938122161174
-0.014271817239746694
0.06751182507596577
0.10957623536300348
0.07266220580410966
-0.009956813087610586
-0.0008293140081123087
-0.029701753701395436
-0.01726605334128936
-0.06003047951101609
0.006149630646617929
0.03545795623080361
0.01242390097685362
-0.02803927268082485
0.020634108330502707
-0.018122942958391088
0.009832502928843748
-0.023701961675508264
-0.019895456854584964
-0.006043266090282795
-0.012876239269676756
-0.013577956123979053
0.030573176966853587
0.04474244203575134
0.018687588229748763
0.11215516550538
-0.01301001228917855
0.1101394032163041
0.06810449012695935
-0.025400469188553952
0.0006133216831734409
0.04886689254974554
0.011405543758063318
-0.1119849152746155
-0.1048636410961223
-0.008356380493586101
-0.026673253661912588
-0.017865450125860723
-0.025007882981412117
-0.03982447519556623
-0.05003922112527053
-0.028248826752758745
-0.002910587334007119
0.026760284371951572
0.01874380340368789
-0.027136948222070686
-0.02314338412915317
0.009311015267360114
-0.020403679107849463
-0.040394063738593736
-0.003552494016427649
-0.04235420817123446
0.002072553442026341
0.056712695915296735
0.015183431527935633
0.011938181750364828
0.040300254407517756
0.0163503367989296
-0.03713997862875486
-0.053144306944935917
0.004276722623252072
-0.037694253798289695
0.05422029981208814
0.14140004568011139
-0.03172675055816615
0.002213317097386472
0.07385622929111336
-0.045371958756383904
-0.03518503978813966
0.04687842267016066
-0.015280128161890798
-0.01371540106897179
0.03396036420270512
-0.009249620030729395
-0.024433104001359247
-0.08780664388784105
-0.044288402718517465
-0.037170051447663895
0.04316665957632504
0.17226491811194394
0.004498593106141505
-0.058572301058921694
-0.10886418637834429
0.045175500407997726
-0.05167756939167608
0.08702859759492883
0.09716879769970473
-0.06622269168404615
-0.011286363771765463
-0.007931287859867022
0.010123477303593002
-0.004022122068947076
0.007553460391441445
0.0388901850228813
0.17736527881400269
0.0016366414799632396
-0.04185690649457761
0.004411705111818344
-0.01928046589888699
-0.0796011128699634
-0.010138150830712641
0.01680017719678278
0.029955456778793434
-0.03126566100477454
-0.015088899876296009
0.004819456868246514
-0.05017981751055126
-0.05617635357012319
0.0022158525207566855
-0.023482872221377248
0.012322455606613034
-0.005222203732682389
0.018498934324804095
0.010115066125366428
0.003972947718636802
0.016944714002970616
0.005956722735675347
-0.016802659484163384
-0.03385930712940941
-0.0008260477846801005
0.005774903951358385
0.0357801119181
0.005033582456938499
0.00663388884804612
0.009466970793064008
-0.035783343633074886
-0.04669597712180174
-0.016963845289824073
0.025303106718868054
0.021614623963210133
-0.027531440916918757
0.005838620796260381
-0.0012624831685394433
0.04480853838708637
0.007293725280612271
-0.017340061012313324
-0.038146618743076365
-0.08010775790476228
-0.05537036688886692
0.09796214215201628
0.0974920586965041
-0.0948339088236526
0.017544285153696257
-0.005637019886663035
-0.001416484137949618
0.031466056208637454
0.026710124302799766
-0.028715852769349466
-0.017190840434900944
-0.04226909437425846
0.020910473565530666
-0.0364746558058846
-0.009647277580338943
-0.012191533503618337
0.02558629473387923
-0.06856633964396122
0.023261283137461567
0.024372995338879502
-0.008296884705437357
0.039372084433162494
-0.0037246398751802187
-0.03395971580657563
-0.014233836325872199
-0.037394870746104286
-0.026329221721625433
-0.028739440769335097
0.13285347155244326
-0.037064107004573556
-0.05372204224672608
-0.003845510395273751
0.011188162125711443
-0.023003413540648956
0.0484975665421032
0.033331119427146894
0.17587859984065546
0.065957382786052
0.028160134967062267
0.04429002150228947
-0.032427421067335496
0.020636584575660023
0.05553853050686556
-0.05894151685210495
-0.027453721306807424
-0.08150530544752195
-0.0308397225598964
-0.013365194807303884
0.18351570831571234
0.10510276878854807
-0.027323966455900503
0.01816573722427726
-0.019876285164459353
0.01748384644548481
0.009761083602266518
-0.005477435278891806
-0.04492586424130277
0.0030690218342658265
-0.08621390671256475
-0.10191829206461127
0.034063286123002176
0.04748612323837656
-0.022505686173502393
-0.04380660436764868
-0.03281049972945122
-0.006547937676570452
-0.0535016710493992
0.001428243545777727
-0.02102397497468925
-0.008763916889185432
0.030701475674816892
-0.006833576375553664
0.023163481988886802
-0.024943036956463223
-0.026150649760079796
-0.0007392475135631658
0.020726684181341538
-0.01868206827949538
-0.024690684420392486
-0.006363973026057892
-0.015866329365157528
-0.01648577856666713
-0.0030336567535262406
0.02504028806061966
-0.05006570745327591
0.0015272185505046374
-0.009838183057459409
0.025147610368932278
0.053207036952501646
0.0019107893432184673
0.021015503553273536
-0.0021239665131749658
0.02888717819224156
-0.0052302784810645455
-0.00487130568648759
-0.012186979481867671
0.038017676311669864
-0.03240675088238144
-0.017166217215854124
0.05963619218805713
0.03703868783923924
0.09012799359818241
-0.03610147650963024
0.02203966690762261
-0.029018980984001522
-0.018932228944916998
-0.00649701552676807
0.01117421621290774
-0.0102636748719964
0.005471195416544732
-0.018802969498710027
0.028170740981364777
-0.06435184573921272
-0.04624102276165224
-0.041137616664440164
-0.022468906014610407
0.03935353324714093
0.005339811145514611
-0.020251225951326637
-0.022656780796353287
-0.0732120558132084
-0.04850607939912829
0.018177426893111078
-0.015459847519707057
0.022565277208722187
0.04101011226932698
0.029543376890659088
-0.032412624347429884
0.04581145284297451
0.12701055257257865
-0.00683251522798066
0.017215252449825177
0.005773897614399743
-0.019055969452858437
0.0348803215641758
0.06512960960151519
-0.0007824859006163021
-0.024086234686761146
-0.00536626701874853
0.05201979813618535
-0.00529472078338358
0.002729196521628923
-0.0013846935223334918
-0.01960828301940052
-0.06544134975403805
-0.03176209864588646
0.04952584314560189
-0.007790361071505589
0.06674215141998419
-0.03712119558024267
-0.047177010258321536
0.06729302888393127
-0.03692166317473358
0.004278586193306998
0.04207264046993922
-0.13367589483569334
-0.07311096914782059
0.04332348270017206
-0.040892865096452374
0.03883268204328705
0.0024246712952620047
0.009945707877918108
-0.11579105663026301
-0.014615533726989245
-0.011502541300995822
0.048017491633891275
0.017303608925963342
-0.017400613647826715
0.002146983696202725
0.009857956008934035
0.02126920112259041
0.017906949365568903
0.02689896936828347
0.024098487777019267
-0.006767208292587107
-0.003194120772518728
0.04124255063792915
0.00800362609418527
-0.008341851932797916
0.03940284859962818
0.028220226894973208
0.036347775450078904
0.021370085969836496
-0.02276135128039074
0.007222319731983195
0.03571125591751243
0.022066969243594678
0.028092356181060946
-0.015017499983620989
-0.0748253252322524
-0.01835466011892703
-0.07583900965640335
-0.013437471338774034
-0.025302881448021522
-0.025812795621772102
0.08218112048724029
0.03883942329440483
-0.012984834137920448
-0.032536098234386766
0.012902892920908824
-0.0036977476299278555
-0.02806935602068477
0.002019850314503048
0.014224772042460017
-0.010540995231061782
0.03197701434611663
-0.023344284159233307
-0.05539154441385247
-0.02062193595621066
0.04209213732762175
0.04191606575400535
0.03056825213810382
-0.06795439181581006
-0.03475229743658169
0.06377212421036224
0.026567225785807953
-0.052813309508391325
-0.07835589671997266
-0.0021055942857864766
0.013216001937608678
0.009264580349073997
-0.009178453717789631
-0.04470466105788898
0.008397207662600919
-0.10712244754026637
-0.03897594374074928
0.054449425505292005
0.022001391814671603
-0.023475463390622286
-0.0124235375121727
0.03901098550337042
-0.005281108272819177
0.03712486092948681
-0.012474259530923945
0.041390977425783744
-0.013399025080150048
0.007798265276041868
-0.02725092355748325
0.04457497803480701
-0.014492126968706734
0.14250440120987684
0.05156386898316044
-0.07007042701020777
0.01968740719940074
0.03179087948554391
-0.01591626805848777
0.01287269337118703
0.012166208719732757
-0.02285021927470946
0.024404916487751088
-0.03036436103109248
0.00144190508079136
0.029219915768599874
0.030221349431328738
0.016399316991755012
-0.0043428376068721025
-0.03026382745490886
0.00274655056045477
-0.03825203628802713
0.02126311932094053
0.01674248562744803
0.02497896581873919
-0.03588055483234315
-0.0206032572257418
-0.022972766130323983
-0.015896671709012673
-0.024095015009920614
0.0821008910272732
0.09727098482771702
-0.01575688856340635
0.012431849940570876
-0.020240845544031084
-0.08881511962378771
-0.059663291645417435
0.05125388894202082
-0.004009460332008444
0.021760877111190992
-0.003802382414462976
-0.004281458564687921
-0.015533525409763833
-0.01122897343771868
-0.0039380681085076545
-0.004398110902553884
-0.02781682225475592
-0.0157090320419576
0.01344989102406251
0.018565586357046145
-0.0031636392873798033
-0.023175538698513812
-0.07239483037223111
-0.019463561300266056
0.04862494160920992
-0.010821749785828163
-0.0247966770512572
0.009304872947241537
-0.015079841516684124
0.0046876991038502245
-0.023617918162472322
0.009685629834394456
0.002770810142031349
-0.027945105833038674
0.012863669011582429
0.009691527530580276
0.01232477247953388
-0.05046670700711966
0.01666362081796258
0.023972495410527185
-0.06639419336157965
0.015222622616624902
0.020256783945347943
0.0034392203004176484
0.029222654918428313
0.04232857962610128
0.033388628433477736
0.011560487040949806
-0.014571114298932705
0.0008522597425233772
0.009754281487834516
-0.028604657805119803
-0.005449990729953005
0.11244929148091902
0.006410566312878913
-0.015762637262932932
0.0375886382779817
0.008293447654740462
0.03806235976104072
0.05221464902679028
0.028667076736728633
0.009147625823804868
-0.04766934962780022
-0.04859758150740488
-0.01311408370915266
-0.03650308875081427
0.030478661419699793
0.01924288793277654
-0.0347396718264711
0.019970167272707808
-0.03563875127196793
-0.02593955636108422
-0.039596939719799905
-0.01292733575951829
-0.003124317512150407
-0.018264841403952067
0.0275733866662949
0.021289310921756337
-0.025275309476143253
0.05806039520756613
-0.005247401249882182
-0.03979113370945348
0.0372580193496799
0.019353283483841018
-0.03589481785655599
-0.010838563094031993
-0.0337554379802879
-0.030978307619769607
-0.054340834954305604
-0.0540902145997178
-0.05161528577900088
0.023168343967516648
0.0017573278402127426
-0.007312336242304648
-0.05121506326273625
0.16419649276021972
0.08024502475503935
-0.058603010055402284
-0.013870650420271493
-0.02102440005808632
0.004432477488299763
0.03287681765673186
-0.02392773223039679
0.02057376998231807
0.04466614311753909
-0.02365121688072337
-0.016625416291805546
0.005640446854974906
0.0208520313160442
-0.01907273717475745
-0.017008859519291153
-0.022471816359272485
-0.012352653315877489
0.04520371108847047
0.05398337865046747
-0.03826354734491432
-0.011818462756889171
0.020860626038589774
0.01860773493293122
-0.02257027231614037
0.03268329972876441
0.06154944650635701
-0.024142893011423305
0.045031053693738
0.01147418022421594
-0.008474734165608355
0.0005603538012902708
0.007256115344113767
0.0025123840066339173
-0.027333253311643855
0.0032878749132368313
-0.011686887341255954
-0.04775334904747963
-0.02829687274548881
-0.022411523120266577
-0.03849756774618576
-0.015218558552697218
0.0475597609218257
-0.016382181578225782
-0.05483678061060469
0.02112776509099594
0.06788989618049612
0.014193439602382372
-0.040457625447689466
-0.01536459611031651
-0.009586981242813873
0.011033523081667563
-0.0004472385920027213
0.0641924673145584
0.0025935985267273006
0.013245245149236156
0.07679212969834763
-0.01550587425523713
-0.02800480271184484
-0.02123474906165575
-0.012562140412835977
0.021044470655028142
0.010430354035826195
0.04612778338856327
-0.015456830884715535
0.044689387265227656
0.07022124782026473
-0.01652988813032474
0.002323650367660333
-0.02037386554339468
0.00424569653441123
-0.013346737799933978
-0.0005641922742291225
-0.07848195326050841
-0.027010818788458197
-0.04595424262826568
0.039632744051680976
0.008299245557969152
0.015369994790968865
0.0744140623248088
0.04050508906613377
-0.06390090675703824
-0.10872745759434367
0.014968779244030008
-0.038712370279193914
0.009218828985398306
-0.05247574690381489
-0.02465074879156708
-0.04974446758685659
0.06529720316810714
0.001471818872353271
-0.012495141322909421
-0.04925193834780965
-0.017796196632943892
0.00015377029786718948
0.010814125586206622
0.030470007561547236
0.049948719313669177
0.04152311608731632
0.0027945838582136605
-0.009164482290511904
0.014243744106783291
-0.0483981333221056
-0.059039428211583804
-0.017602325343272645
-0.005945471440481743
0.08342836032611163
0.10107552263677066
-0.04748035477282769
-0.02098479173950733
0.017708327663410725
0.0082047941173732
0.00530533694196297
0.0026278930830890253
-0.03366518561253697
-0.008333581045136863
-0.0157334337969511
-0.015326051264156744
-0.004518139801402069
0.11846727353984257
0.05757738886125878
-0.09094934097756709
-0.0708499707443585
-0.02345100835841724
0.023749067868366447
0.0014159808247527262
-0.023309181060453054
-0.0047253474968797695
0.08539143635398694
0.03674827304810538
-0.009056813758183875
0.019692883792370768
0.004902336799034395
-0.004901148567817415
0.017945908469235976
0.008407673034302515
-0.011468157043561944
0.009712958809719691
-0.0411199679934742
-0.026783835591463065
0.0016964920323872224
-0.06775031212782212
-0.043622716936003184
0.00030702918971320164
-0.0016621825740469073
0.042680118754417413
-0.017228967565840508
0.014929913718422507
0.015714681588467234
0.04566479569645317
-0.04295858783156419
-0.1572543937770248
0.0295664708327416
0.0033259371476120564
-0.012537391089528461
0.02531907045742987
0.04012288566838759
0.02024639346238376
0.011861500589282129
-0.0012561016126786634
-0.06231544816209993
-0.02892125971443035
0.023621144961456137
0.05756567401703181
0.05134885336654059
-0.004356117477951795
0.02775403510874577
-0.020668912802047884
0.11513922567512572
0.04754359117003949
-0.004277344214370031
0.009320979953499297
0.02555213523673806
0.020645201552398972
0.029231800240583042
0.00988038299214716
0.007341589255478172
-0.06746080494335999
-0.026558822387135837
0.02387525571102331
-0.10459584250014951
-0.08362317764602273
0.018513020936100577
0.0186091118001286
0.02821022718202963
0.04002633436609285
-0.03511400279486268
-0.031054510761855968
0.008624711939850383
0.05100338766276095
0.0452586376666318
0.021535275243555713
0.020293105640993327
0.04539093320553188
-0.044031828836903306
-0.12690714757015348
-0.0025303070136873072
-0.005555788347415972
0.01803720486023367
-0.11886002553158563
0.008236736679577437
-0.021988247387446126
-0.02967674098847206
-0.02707229188235751
0.027973208414925885
0.0509331397954516
-0.036953262171496706
-0.028000717382958736
-0.010909815743031976
-0.012325338809501096
0.037456892826257304
-0.02292456748860133
0.027913778275990453
-0.026661926532814014
0.1533555262815258
0.061183806594105265
-0.06358205763742338
0.04361134089853351
-0.011568029603553949
0.02030139064621182
-0.016794282271772498
0.019831497615851273
0.12451639953701615
0.10688271270928264
-0.18072159945946226
-0.10207863191327941
-0.019287129758660548
0.07420568360455973
0.010262362028165207
0.003062841160377873
0.10378162007313697
-0.010021028239110046
-0.029125691805810785
-0.015264670245502703
-0.08740557434224304
0.0009899835041227744
-0.0313301438086522
0.05751828578175589
-0.05146808144939163
-0.0034563289581304463
0.0548986533498488
-0.06933938743595741
-0.01104846362111117
0.0019174688582429603
-0.06589036423434604
-0.12799883396432832
0.06313996698904822
0.022343096748568467
-0.016909782900543978
-0.006815319095854041
-0.010828443295131053
-0.002420919832775584
0.011282201810082283
0.04441417130081491
0.07164132850050602
0.03448795909958481
0.02616378217248589
0.030647773762237773
0.006766264842760843
-0.03545184039219276
-0.05615634898316717
-0.050941700714362895
0.016093271843076642
-0.005193822756211833
0.08627171846247844
0.010982673647479107
0.06759188952687335
-0.05168693400327372
-0.021485040987302948
0.009809357415606401
-0.04725517758723915
-0.1116980604347346
0.013782329159992685
0.039351499736751436
0.0766188871841909
0.0763126236802499
0.037325226654484164
-0.07916149463691781
-0.01346026676136937
-0.01629686769392745
0.004876284768123053
0.030987095682695306
0.02590490673484949
-0.031146489037446733
-0.00220576803917975
-0.05071284164227696
-0.005642807060635384
0.024115639683073144
0.007432603916916774
-0.008678043213325779
-0.015374639873934413
-0.008389415473893973
-0.04727976761744296
-0.005312440219609929
-0.027017896413804508
-0.05164349952073678
0.09464247882059104
0.07693885082666485
0.06997857777413198
-0.1228974928040856
-0.03758966054987108
0.12092111092531503
0.010682574289831017
-0.016808854461123898
0.007677976686623157
-0.008207906696138871
-0.003640807611920355
-0.02195670211143544
-0.016261072117163298
-0.020632408565730603
-0.02121765856022112
-0.01307837465977523
-0.029617230239041184
0.005354243797356656
-0.0002530790259167224
-0.014090739606987828
-0.0186571363763321
-9.108013428943419e-05
0.0160348105685243
0.02682899440864135
0.01686550114854119
0.043763283677733356
0.005831874968784718
-0.03959507501722294
-0.014781592641896116
-0.042142629001880615
0.01685248055671567
0.014025058240243913
0.01735029675591966
-0.01685929518522172
0.007335745684973477
0.019992573845422138
0.03865130997628936
-0.030559060095985597
0.03173796092497837
0.01501210117429587
0.04744347801718732
0.023694501768234424
-0.004810071690262871
0.0021397701811970383
-0.04988163494497485
0.01078777739873754
-0.05656103828681007
-0.09230001351950626
-0.03645663787489517
-0.05939882781416649
0.05822606550930557
0.050137435906266986
0.04690798515473038
-0.026842137923377803
0.07924637999638556
0.08440061590719686
-0.00011393518911001153
-0.003613401256980238
-0.0076892372092849945
-0.03629521654351037
0.027479596129469996
0.01960687439024525
-0.020305726418543942
0.03929752144727417
0.018962005449745648
-0.01721865260497261
0.019361695793971016
0.019217288113331205
-0.0342293724540103
-0.01409390632648794
0.004525441637242362
-0.04463544760087952
-0.014947894807930583
0.010770606450393481
-0.01374016169612145
-0.010806079952072374
0.029175069548510017
-0.015199854934816326
0.03374385745384388
0.01783275327044232
-0.025864791513804917
-0.0042781216451454026
-0.0028414417787293107
-0.003004025588437457
-0.02451529293333677
0.024650362177654674
-0.02874216200692137
-0.018542956676974847
0.03791124827361841
0.047027926943985755
-0.03249160563195052
-0.014893468685811276
-0.006882457432439093
-0.022167474261342846
-0.020385989991217615
-0.02178878828602094
-0.043380441529767694
-0.02511794567737306
-0.026314577796356525
0.10653387398768939
-0.025619943250469332
-0.0053699578101162855
0.02239650648023825
-0.008394928837583646
-0.026030915026186926
-0.1695271221502183
-0.05161506650055836
0.014743733668056324
-0.00573750634478396
0.02216726653445198
-0.046438121448615394
0.05632203192259764
0.1678021271592226
-0.0010463008080747978
-0.018445970630312097
-0.013928028200757604
-0.0008638934608413292
-0.03310097598641627
0.005409282252228775
-0.013427444087209814
0.007664557836961291
0.11425986772497285
-0.01783200827374785
-0.029867154509787955
0.00213283753558474
-0.01128476877342431
0.06797306600138565
0.03013554990580205
-0.08403269578478602
-0.015449741789078032
0.00715018527107635
-0.01891977407587181
-0.011815849528075665
-0.015228192681536731
-0.02806365024390253
0.021049426679462534
0.09192662658262074
0.008561969747406376
-0.06085615319490402
-0.015855467427067206
0.062086864712025666
0.010804238529963338
0.0036498599313254526
-0.003489183089434155
0.0424043165314462
0.002380988354646107
-0.006589781472503597
-0.009480274518018115
0.03073165341375695
-0.019008745855882487
0.04249356783179215
0.005029789283696914
0.08114630706155326
0.09742949772336758
-0.058749717402090805
-0.04743761185466607
-0.041430930757278016
-0.009377417648363653
-0.016939144997153394
-0.022299258211498526
-0.052308521174649486
-0.02681123379988754
0.00945627186636681
0.040890644048373205
0.08608050811644805
0.033808166830933496
0.017536769439078996
-0.005588423155549768
-0.018386652543526408
0.028204297470861315
0.010020545855710213
0.017870584441035845
-0.013175579925643601
0.0024488164613814547
0.011802383500352448
0.03346079298763874
-0.01387354132047662
0.010277998782669644
-0.02656272101017981
-0.07232782420236565
0.013772948467910709
0.016540150856153076
-0.009541019041965047
0.010627832141499339
-0.08815250701687363
-0.14501581968265878
-0.040237809794849914
-0.036736785233345975
0.040191063047454775
0.01671874749991934
0.008770315460065112
-0.006442632493765565
-0.03941514907150228
-0.004440638742332084
0.020935765828514547
0.03695572098647434
0.010904516919288643
-0.05640806242162401
-0.035580308412481755
0.06460568649337106
0.030947429951495596
-0.039406518307952665
0.006915392897143764
0.025965008226357007
-0.018755396604504215
0.01094913678957457
0.007397766434680943
-0.00821329396728548
-0.025376690917104816
0.01328952833078411
0.03549552342622882
-0.021829684615205236
0.02567376194694089
0.002901243504464012
0.09349187074768203
-0.007931713675169809
-0.04174075167004363
-0.006562543672568827
-0.007603509741510223
0.0009865071654419624
0.008543744466429264
0.012547447744476565
0.013751815267059053
-0.012534346098608637
-0.020336289459920904
-0.02596277807561918
-0.0322240976351883
-0.05400862130546909
-0.0359897291789656
-0.061366985708859095
0.0007352857510036971
0.010238451789835786
-0.011264713708345798
0.0014379545867442929
0.10340073841189083
-0.014484197888021346
-0.059362645398540186
-0.041003421007651225
0.13879074068611605
0.2086301546930885
0.038689764419997774
-0.009179491008283138
-0.013570911918851444
-0.026644638609177426
-0.0033182817665137567
0.027367359283288397
-0.04725887758830711
-0.07216720485192477
0.003987746599134946
-0.00521311905724172
-0.02868787664308223
-0.0030793676883718564
0.00975615066262773
0.055366446943271065
-0.02165225398413535
-0.033569910238535776
-0.0008044679273846117
0.009005810914665924
-0.006911250873068571
0.03782942594899504
-0.0011179463429826894
0.028960867145099677
0.01848233894668259
0.019370602628216646
0.11671507914688993
-0.0340340862797377
-0.037001424314442005
-0.04946253625177425
-0.007314597631740866
-0.011215456938669781
-0.04737911631966868
0.012307229703752266
-0.00385869675117056
0.019914164074890675
-0.0019210548574980044
-0.009907457200197872
-0.0024063640004365733
-0.018805002333699136
-0.039122238710729194
-0.005692131399388816
-0.02541385703802275
0.00010529546134366841
-0.0011465190501368844
0.02831788949757937
0.025902039652907324
-0.024948005261169914
0.09689640891055613
0.0644111210142888
0.007000760584285057
0.030794121486752476
-0.01354896733212313
0.00508461454915545
-0.022902553951146577
-0.026106471627995897
0.022369433696885547
0.04703264658110853
-0.09936153103977617
-0.04467594181928092
0.013577472252746458
-0.02506284626022135
-0.09029998666757096
0.0009761087796877056
-0.01743507420673502
-0.017816532630311705
-0.04093745533510437
0.0011467569644793092
0.025109548366217573
-0.026273422125195244
-0.018351588003730792
-0.03511665536785352
0.0264922697826704
0.019460897676554845
-0.02127281622939288
-0.0009457243620517652
0.042701625546329135
-0.018740810404388526
0.0961373190156968
0.08359443882146214
-0.016433074402133797
-0.03304697089361358
-0.045011008966418305
0.04598353966250702
0.024231425359580453
-0.015177451097185648
0.03529190588959812
0.05477378970855032
-0.000395915563031446
0.045284294226581714
-0.05115887964622206
-0.007725194844937721
-0.01701548139168247
-0.0021866323197499305
0.022860319280915715
0.019202450641112877
-0.025436318028031004
-0.020888855413742986
0.03830697045889568
-0.004656563284533266
0.004033693010743159
0.025579084067635028
-0.06601329088040686
-0.11214622058913863
0.03032008710744256
0.009215745782139323
-0.04448063316888924
-0.0017575383594270663
0.018035317849361937
0.0046691497691209085
0.043523200886046935
-0.009719452581231604
0.023248509247598102
0.0244613283568133
0.016445313872950677
0.07508455268393908
-0.03280760123418747
0.01811001560796238
0.019019831767287224
0.0025298084757575954
-0.0372597211331549
-0.03449697726494173
-0.018879582406412052
0.09581568337743013
0.025649599855379235
-0.02133402715001049
-0.006865936926852028
-0.013809908037651973
0.004459377999317795
-0.01696074630741291
-0.028589229968316265
0.014679829208616674
0.009687916133224436
-0.0005108944514788668
-0.011683748645765282
-0.002789573383935698
-0.07797587680200234
-0.033095972478150534
-0.06741400027705731
-0.012152682129630023
0.022692588232073676
0.022840527156590407
-0.06882098869381612
-0.056945428987869584
0.01377033752367341
-0.027521858188588894
0.01506781771543466
0.004162306110444344
-0.012493173252816337
0.030354146234700022
-0.0074806534545137394
0.0064127523641368265
-0.01659070031174521
-0.014271997975279808
-0.012883076771143365
0.0003598275628221262
0.046596506081160796
-0.0361839929289286
-0.03501191534462749
-0.03370501986327692
0.059746026491555936
0.011372830639040571
-0.024202287363707786
-0.020301361903497864
0.09475275395227795
0.2095383068694664
0.13142634609992726
-0.022260801363831125
0.0276497040260852
-0.03000077559029205
-0.04949017994425134
-0.031068099629031353
0.016701597593612096
-0.03168834484340171
-0.03002345361353735
-0.019892468465692034
0.024865647043435087
