0
0.024346171341494166
-0.009501159290396816
-0.022593715545856263
-0.020852357848638224
-0.007033669745971896
-0.0002617946937696618
-0.04179514992516043
-0.012393180557306519
-0.005693009872026496
-0.025563500658341867
-0.02571549983149071
-0.010562335345742632
-0.009190080912819866
-0.0590845155417535
-0.04596920702049791
-0.023609275699666532
0.049468193384767475
0.21080485003750246
0.013218286148382084
-0.01616582848676907
-0.0037294187353636176
-0.0029037881648777387
-0.05283317539953649
-0.05871439841320599
-0.02748795490018304
-0.023387996274148812
-0.04908446524802524
0.0029614192976190074
0.0006451177012308225
0.0051567421292428505
-0.012426385444831944
-0.02104119340008948
-0.007598396863536021
0.029347989675984856
-0.01947708821182878
-0.035577313686104055
0.10706388044538873
0.034456593059393005
-0.07565861260864036
-0.03900743511349908
0.022127872515083597
0.17269321834181756
-0.0032490548933928943
-0.02419248694604106
0.07211134126707526
0.01914521038276559
-0.043264081104198424
-0.04397917607927052
0.021357398624008723
0.09646199647173409
-0.051391844147803
-0.033774585590638825
0.013099592342165645
0.04673926152789655
0.06597387682808906
-0.004826306143037499
-0.03736591551190192
0.023956660806904312
-0.06114071137633614
-0.04854438268680068
0.0712334273176877
0.011979130704592307
-0.03253485242368229
0.013088332306137086
-0.0014158085321464002
-0.022472082998567303
-0.035308870548261505
0.018542631615613613
0.07100713877588949
0.005107700744498729
-0.031025879528901224
0.0014054481444471297
0.001383008039049116
0.03686660383309991
0.03388830345169414
-0.059890122293905466
-0.022332905608035362
-0.016110324061898575
0.02714652973380947
-0.0071738048771656905
-0.09056084913591142
0.005570263551295982
0.01860325690722026
-0.06161787581489017
-0.01809250601429884
-0.025374996271021213
-0.005723203041398225
0.011412095291123194
-0.025596516184500658
0.0076517254541531516
0.11138243958352496
0.04979796891527686
-0.025315881070240718
0.0016723381407812404
-0.009356353275224305
0.004787339283897145
-0.031126827062676575
-0.035087306942416775
-0.0010168156697190876
0.010023761015377266
-0.03289173542563451
0.016523556539283384
-6.0190935325284046e-05
-0.025935253216939538
-0.025863725806875446
0.004171479104724383
0.019156767198832504
-0.03134336809975138
-0.07039642607468193
0.045108262254692416
0.05713250590709313
0.06040716562398899
-0.04561380961764251
-0.001852173963319043
0.056273338024174564
-0.011010435019110764
-0.03228018671070513
0.014952750057553737
-0.05485959978547071
0.014491954647611712
0.008183931532293801
-0.035456756170327
0.039631611073739685
0.025249892945734063
0.013233572585688032
0.006201132751545729
-0.005379857731216087
-0.020669542301477627
-0.03404081272408
-0.029274676796473366
-0.06055466963622215
-0.02894061085321639
0.004219842852312692
0.012614729955795552
0.07124879798686604
0.0513462134052012
0.024119238785721895
-0.009406804528273948
0.005596889135349401
0.13099797200835267
0.09481757521546869
0.02019161293031228
0.04643801071167747
-0.020203705682051275
-0.031298833812123575
-0.03911543141115786
-0.027806784102239124
-0.025735664593686716
-0.033050064895475184
0.0031151710092768956
-0.019792802698023727
-0.03450098537325052
-0.027021160612889776
-0.04624486745130479
0.02984227630854848
0.01505146790151617
-0.033829693540341294
0.013214292289739388
0.06470874803754652
-0.011876349575704659
-0.02793594566673407
0.01870204085615038
0.013156748818951682
-0.026307378836311856
-0.018613194558513253
-0.008844725088685609
-0.006809428619155207
0.03329903342816597
0.01753682177273195
-0.0189987957834602
-0.014266101282972506
-0.037449972037735875
0.029353345600274257
0.010919712094436174
0.002633079483676068
0.004913444647595671
-0.01962604104306311
-0.016287465009760353
0.010738626764390774
0.01731825155593385
0.02571469408407821
-0.029228502496376728
0.009986699677088907
0.008394123033158991
-0.013117604697737402
-0.0033360505201017973
0.048536582092639724
-0.008683031047942649
-0.01610899996383165
-0.02829537456524906
-0.03386868340662333
0.01772706040078737
0.010824916514976626
0.002366674295638172
-0.015074803560620671
-0.04294156506913707
0.022312546778375724
-0.0022544980897849834
-0.023810888556073176
-0.005411639283392896
-0.008469403458024072
0.0006126803922233662
0.03078841965721421
-0.012445249456541145
-0.0036813269513202677
-0.014349144438791702
-0.00853100176375427
-0.027656550467317666
-0.023417623982430223
0.013391252984955972
0.027441572926409284
0.052761626591937665
-0.017000192424102133
-0.008496733660207789
0.08304377623919033
-0.05328534647241793
-0.04978892152519284
-0.002718970833044212
-0.020263586623800366
-0.06874891776910443
0.013934143861255063
-0.023137756641157785
0.013903568781822686
-0.013931997288256136
0.033219556098787094
0.1574883012275022
0.11977925494503482
0.05234046673766948
-0.06956222585972859
0.001680343919544116
0.02060963571276478
0.05967334187670881
0.007772795982104258
-0.0225032049722287
0.013938119356615956
-0.03900417554387607
-0.03337030516687263
0.0428394048188872
0.009226563896077171
-0.004608345457829244
-0.01424078416842926
0.033728327516777755
-0.016723805545762374
-0.0054011076766923155
-0.056972979141191434
-0.013415926097045516
-0.04192612037739971
-0.01426478259330059
0.022412520043237974
-0.021348842390530847
-0.005011593021005881
-0.029707801150534792
-0.010571990544232142
0.009195118972141923
-0.04330698279114416
-0.0435423094024117
-0.006055193192223655
-0.0191324796960407
0.07178178426761944
0.028366827690606507
-0.019193738046594532
-0.017212663962454286
-0.022501356269160187
-0.02483036200625882
-0.005141147085361532
-0.004476172781862441
0.007125083461203933
0.0008404218547758346
0.015310733197569013
0.0025794156778358576
-0.02432730540322143
-0.01509874412703248
-0.017539140009447847
0.020854137885640944
0.006063655484838038
-0.01770996188557829
-0.0026142318131680874
-0.029148746952028046
0.07795491664155312
0.09028471627696663
7.605710600894136e-05
-0.0009144648764526419
-0.04621735993986918
-0.0812356749855373
-0.01652928864496648
-0.01829957536677833
0.18146683019999763
0.10178482405573937
-0.021013874998076342
0.05029447549789698
-0.04390351362763692
-0.04102651954447808
-0.02289411216660157
0.013165180219131812
-0.004139839148996645
-0.01959033663852513
-0.0476357359005009
0.03099516138803222
0.06531563593256672
0.05803297156923181
0.16813223071524044
-0.12977860174007289
-0.04770063329526262
-0.04336583254921624
-0.03820041178519214
-0.025090909905405707
-0.01578388769461403
0.010679289225113195
0.07995434953682974
0.030665425164622853
-0.05363867403353169
-0.0010896416604161505
-0.08270022837617685
-0.026134804161845875
0.03028278342283396
-0.005530157154070244
0.019443105359179886
0.005098266869139341
-0.09621506009912847
-0.10887582402820051
0.014224903498721696
-0.02747416762231346
0.0029313194963808595
0.011276345194095332
0.03389872441449365
0.12821201703495153
0.06009947467466233
0.04530461022015811
0.01600238923878554
-0.005511459905427108
0.016227979637583947
0.022841740738306186
0.005762802819624422
-0.017340098200036208
0.0032993559583034634
-0.08126784989126945
-0.018392600740911653
-0.014341963793501123
0.009120874522131004
-0.001404624875995982
0.00970435170898443
0.010504791278075678
0.027005414340805823
-0.04286106058492684
-0.00573027619535754
-0.02760211304467094
0.017071943175612402
0.007887540727953377
0.0003305588635990074
-0.002431904431237046
0.05444283992904086
0.05349324278707347
0.038741895004623696
-0.00671397417225528
-0.02239724491258209
0.006928432431335357
0.0165394287484053
0.011747853683705905
-0.016465151303336457
-0.04157563525483915
-0.019919460288193865
-0.04370679189033563
0.059683052615185125
-0.1517200131623669
-0.0735114754765851
0.012401903205154512
-0.01039976291708946
0.030201430906128562
0.008373910016415069
-0.030261937904305317
0.018779878876125814
0.022534516434110436
-0.01157967418509466
0.04151410735426804
0.08055065419454854
-0.03508731736874594
-0.03652609417474114
0.008857697184792216
-0.005262804440925868
-0.003725106081997643
0.028260840458690473
-0.10834042529210376
-0.04302601671490943
0.001722804442782539
0.05759000067097723
0.022467086167061116
0.03624490090728034
0.017928041213262712
0.04992294803720167
-0.010830678945238844
-0.07343548242935481
0.029647700665929658
0.045338977927783845
0.03398566702037302
-0.025295453340036144
-0.006328446768737554
-0.0011054866906423711
0.026617854659010308
-0.04003934152596618
-0.005254615459524646
-0.038418040978619936
-0.028280278722821864
-0.04312294987380598
-0.00047456697989706355
-0.010072103323380398
0.006854599424890555
0.04118792051344507
-0.0417478045360669
-0.021587167102699232
-0.035781248996018374
-0.02135344308210941
0.02834186629613426
-0.03823191481667781
0.03613119661381427
0.1091014404824802
-0.0357085267853962
0.011353465965671262
-0.04434701333303395
0.14564337242927256
0.07492102471641408
-0.05412503699354308
-0.016831240940244824
-0.01948868065825594
0.010567527937884007
-0.013563774830326263
0.0008301084361148848
-0.03408941718023167
0.012034888147040297
-0.008838506989725861
0.0008119172652554134
-0.02413868103425779
-0.005088127381159508
0.03683714515558978
0.003336858935359093
-0.0022712884490509407
0.006471766453509792
-0.05476124525119609
0.028051975068941238
0.03984558038008674
-0.014721869977584819
0.022129245436999543
0.027861590303026634
-0.03856775889401392
0.024832087093850482
0.1261840626701301
-0.048077086358085185
0.06526409631297501
0.001228981793375842
0.0007581053986352186
-0.009186743741720646
-0.049793924692081694
0.01203271121783318
-0.026837599462184773
-0.03175062601927068
-0.014482924260646306
-0.010208811438086923
-0.01600708579420596
-0.0013803525147968582
0.006217314290709415
0.03071608632624555
-0.0005876759955401253
-0.04354517620738724
-0.007269570741587421
0.07155472267695456
-0.00437094531076871
0.0020894666812096858
-0.014685575119861289
-0.046281265611908706
-0.015312051409824287
0.03466771938276355
0.03702841459266724
-0.03090991458844065
-0.030708463015800505
-0.007930044222715696
0.0020858937631581254
-0.0027591537043662523
0.007064661746296472
0.036538203419982304
0.027931186917244978
-0.015358824202352683
-0.004387439660048534
-0.011567439132869936
-0.040868736098920645
-0.0036254442776513713
0.032492171802174105
-0.034294303417344754
0.02900049966901595
0.020163085076786578
-0.02889894243126119
-0.02846137168661933
0.008059546645724024
-0.025195014714067147
-0.02531148327835644
0.044320072061444116
-0.0002768067919526094
-0.0638162116197131
0.011097771679947768
0.06664427127644733
-0.025480188949715092
0.013654923176634269
0.014751186936038524
0.008229449876990081
-0.0005808775991598143
0.011609914668695341
-0.012499084876819345
-0.02339832549217469
0.019500901762684236
-0.016133037098999627
-0.03365379846623175
0.0339458128275195
0.015644336940452492
-0.0014236449348451945
0.016696865251816653
0.014175119764467446
-0.016940561032215886
0.03875652696819126
-0.058242260582887145
-0.11659230932955665
-0.03661701813209824
-0.04489424179647679
0.023931012682338264
0.03638685668892832
-0.01049291863332048
0.025072952671190373
0.01295288264013061
0.037107093957968955
-0.0031813535231730995
0.04894338663808877
0.021453068544283572
0.05398838490800857
0.005205965881315772
-0.012442603485811056
0.005447085011124221
0.001221887896656116
0.063197963811408
0.01130407888251027
-0.02690446532692596
-0.026701969018591995
0.007935928882546088
-0.019563065270205446
-0.03406690643683784
-0.01784446665917476
-0.00302304294254388
0.02025671131302524
-0.023696929525278392
0.015572584196636196
-0.03547051650398666
-0.045519745494651376
0.016137394873710596
-0.02615161699314037
0.06742568541192698
0.10224563396490352
-0.03144198068079804
0.06270064120805215
-0.09180056784733306
-0.06946243901020131
-0.004910752528801613
-0.0030973581519466217
0.01742324025092438
0.03237594945076261
-0.1042216576726928
-0.027713453460379865
0.022837896384363215
0.005658065312466533
0.02497421434086805
-0.0028773965874027085
0.10065090429147071
-0.016629939828167798
-0.032591873803585795
0.003423724886298046
-0.03789999939724755
-0.007393688516314123
-0.022951414946739288
-0.005070261264011023
0.07279719445860577
-0.022309821491471708
-0.07181971991247656
0.022411902176152815
0.022238477877201242
-0.0012213295127543916
-0.02024926833469736
0.0001574977141899269
0.012508418234055537
-0.0051898883004195045
-0.050458532789673514
-0.007574167911747181
0.10221629209465721
0.07441774657964273
0.000596890409367107
0.08149882696923134
-0.007230009594100276
0.019246023442500003
0.004602077797033757
0.01839321207665674
-0.024817242661057375
-0.011598724419524956
-0.046772116806447876
-0.015253537977532533
0.05907102351416716
-0.015688568725706443
0.0004992392281149814
-0.026837745558246584
-0.054061422236548896
0.020074049667354394
0.024753905697508127
-0.00555057086136423
-0.03672031757753118
0.005007477738430847
-0.014492603693058973
0.06236236524950378
0.02408941426537939
0.013524897955851127
0.01731894673014739
0.02287533504533453
-0.015340200050152152
0.004672425557338604
0.015991780189176033
0.04264442107526403
-0.15198239094824012
-0.0902646047889622
-0.011973018643001787
0.016066925557042405
0.044389393621327364
0.03568675362289303
-0.023782311188906894
-0.018620845284580897
-0.025142657921605648
-0.018783480232498005
0.007865017994224153
0.027781387539856633
0.033790248128435965
-0.0033918046910285304
0.009093884856323384
0.13452684869650475
0.024389682448272332
-0.1278276674712497
-0.02816208892766543
0.0896096094496214
-0.023544878332043946
0.05997112611618573
-0.09950353157574462
-0.03914241057612584
-0.01725472704317657
-0.05896606443628685
-0.03426215585762448
-0.00729618301090258
0.026686078252317506
0.01185004719015979
0.007048709975574536
-0.009482972567068839
-0.01246955034753152
0.0625674798866547
-0.007781193450961687
-0.06454113709081725
0.016457028582366834
-0.013427485520445552
0.03415830564346398
-0.019493371917149584
-0.012377795711733142
-0.04105495859134177
-0.02756277886880153
0.019032535584658825
-0.006714117688269631
-0.010066289917882743
0.02211276229306127
0.06761630362061508
0.013805741148131715
0.0065148128738126655
-0.0014102966747241098
0.040711027288055646
0.011756693996271406
-0.03126371542542247
-0.011481216682809747
-0.025285403762408017
-0.03086968903862664
-0.027357436177385036
-0.002796990956496829
0.010076734326261327
0.002262998183116661
-0.07540539824846555
-0.0021740581314835827
0.0796225745972797
0.09375662531517379
0.031147563268468237
-0.009974990110475401
-0.0019336752220730465
-0.008043029241314302
0.02367484305086744
0.0037001117072956646
0.011074455034231627
-0.05334366398791324
0.035286799088183364
0.06585724247556198
-0.05549086800402915
-0.02919711004075774
0.0015765732356512758
-0.007173157606282211
-0.034923035355561155
-0.009460746482553122
0.023671182834965575
-0.005804116576400072
0.013996187970346853
0.05398645333136048
0.010251437580663231
0.08108552121960873
0.041214066347796646
-0.05642900119040443
0.005602941711531868
0.04544019164453484
0.003931034234379037
-0.030351736113339335
-0.17627084268029158
-0.05873970154389769
0.04547461767899967
0.10721392969602532
-0.03801363972656657
0.004042800502596594
0.008458091014153854
-0.036993277798515765
-0.007731371846736601
-0.0162088139664563
-0.013055580728690053
-0.016843955744994733
-0.001656321145077897
0.0019711683077216578
0.046302050345446606
0.1136325739917082
0.004552166214808066
-0.03289217328013675
-0.0405728870268111
-0.020945066111080546
-0.0263595868617587
-0.031344840115571315
-0.06760590987131836
-0.016456864249809418
0.007492920575435669
0.005235898806488751
0.039590157397652696
-0.015170885549790271
0.01781644634568733
0.03151379847824916
0.015035257477194253
0.030198960859540044
0.040075254643516314
-0.010456348038935208
-0.009199178524085753
-0.02148247823080728
-0.024407645441600585
-0.04206646204037235
0.0058991889549595946
0.038726494685219055
0.10700533627803396
0.03644441235480131
-0.021098672619231255
-0.0003290926324112385
-0.043525655777036744
-0.03061080077761876
-0.025480984614607394
0.028935741969152627
0.012518774276746563
-0.0015516954786110562
0.08507166966932833
0.03820839655851943
-0.02914498674389087
-0.0017518166242533814
-0.01762221124654398
0.0036773794841037763
-0.009251704082083539
-0.013916102411781657
0.0031954866835286824
0.028648437658945605
-0.05017507136123572
-0.0537821513787161
-0.04099818952303045
-0.04202212199393088
0.010401838952045635
-0.016558372650235298
-0.04369027829885287
-0.02669338779594945
-0.00421272132666115
-0.005928464640418465
0.02040575007267652
0.003363805360180968
0.024493255060701026
0.011479538066009749
-0.010676581328145985
0.04612312135084549
-0.011854477491052548
0.007891270112477766
-0.008533104949188505
-0.0046550463496241295
-0.01690670947181019
0.03792092099436512
0.013528668847956428
0.008062416214752753
-0.020157083293080007
-0.0025800658734945643
0.022830918692599966
0.04911305882105621
-0.03274728399961521
0.007415928474044084
-0.004106999138725194
0.03268027835836107
0.09165036242609362
0.0208990270587615
0.03136292574075187
0.07156655254115499
-0.1013603830551638
-0.04355559732653146
0.04046420230696809
-0.04655204665799031
-0.044665118819366904
-0.0988836740015292
0.030188730139489837
-0.04873281922109821
0.017969622448277083
0.003216744427039985
-0.007484046944529483
0.013696935102326847
-0.004264768513851681
-0.08101078595973968
-0.04309473755879922
-0.06093361794561765
0.07640416465687562
0.17906803520203393
0.014681352324109612
0.006530734855792842
0.0008978393030034765
0.009364208224090145
0.011045943991744217
0.022787788831364255
-0.027950458134219654
-0.016529760723002114
-0.013203175593443207
-0.004217919216059398
-0.00021880739687305927
-0.0542787130373323
0.021842261606891712
0.05534277436206589
0.002419024009981798
0.0346284444325598
-0.018567349333029438
-0.04223513097221509
-0.03485202621938063
0.017810365965465973
0.005574870955765387
-0.00895384313724115
-0.029160974134240958
-0.014865671985057078
-0.027126296406812002
-0.00010436303050823917
0.015099267616745782
-0.03386386647928892
-0.01903693747997525
0.014393638069141765
-0.010645177653914002
0.046984922179106964
-0.007942919805674832
-0.02487588904231552
-0.013796068573558582
-0.013471844200852835
0.05413081448861708
-0.0580095077742363
-0.024225477437056133
0.08829428665829431
0.001489603864937971
-0.006299861495732403
0.02436261554319549
0.017125728987340504
-0.02333170478630222
-0.011533383921989588
-0.017539593765305492
-0.005705325918481198
-0.0033333609425467534
0.007171565026390035
0.022842801703858964
-0.0039505909650556096
-0.0572386537555299
0.04411355461428543
-0.0010811428012731863
0.03145639443831382
0.00766285811221112
0.05352804501465677
0.01797961733711322
0.0024034652301465308
0.03036785066317336
-0.013764592216260776
0.013115279396556092
0.019415805461856835
-0.04140869796719105
0.013587333470400042
-0.060679120193265865
-0.041329642085704624
0.022333894251272864
0.0768814995574889
-0.009960790339903252
0.09583098629279135
0.03095059125663063
-0.03193495685272661
0.00973970009446342
-0.007504563302847012
-0.022678787476125402
-0.0415785697006191
-0.004515212246646473
0.03672384031452944
-0.006548366592241125
-0.006333474931164727
-0.03049311894295553
0.00533912187500355
0.006958204029697071
0.0301623447594266
0.021055355475247717
0.017507323702668613
0.01501552277571444
-0.01273969576072226
-0.00858561719485764
-0.12355387147969309
-0.036525277741112715
-0.03120205447176634
0.04161407774760376
-0.036276045556708346
-0.07633616987985654
-0.019327339496811483
0.015695966138946367
0.03241682271257801
0.07638458576518227
0.010454920359871027
-0.02459577935014702
0.001066782450662732
-0.01347176794784031
-0.018822437324831458
-0.022594990670911586
-0.050476791240015084
-0.0043826183968043156
0.028581399894694236
-0.01241560193445984
0.009062689548526383
-0.006973447711396374
0.037787909893937634
0.04088338558023299
0.011464023755949319
-0.04748150890204151
-0.0007001586456637459
-0.007903240631894308
-0.06143180658452271
0.048241663435509057
0.028107749552132414
0.03917866529094638
0.08271549167376922
0.0038522210475245623
-0.00137322120860153
-0.008238535399443374
-0.011855116667996483
-0.034839406127253954
0.011296115042544196
-0.023384250654105584
0.006574171084751419
0.019730687394201075
-0.01801432931854238
0.00537020424063422
-0.014621908596866537
0.013244736781185817
-0.004210631161750298
0.014445287325379743
-0.008328835090914182
0.019034559696879283
0.0468508736775983
-0.08287671949787596
-0.12472684505482862
0.03611990668047095
0.025713642812351008
0.011667562548828028
-0.025208675474114126
-0.015506667456186634
0.028542090237698162
0.03652389304973096
0.014738775562241322
0.05870772255697425
0.012320730954977644
-0.07502091663781421
0.025846120180358458
-0.004324145762492451
0.03292414288489907
0.05133805496854533
0.05672447319076105
-0.02883074502689651
-0.08568504202489415
-0.015548100318865048
-0.00876960050305074
-0.03812278107333676
-0.0014872958499512687
0.01432178482799816
-0.010371259292805114
0.004039922177950748
0.03319126787820181
0.020585557083935887
-0.07680096999818234
-0.0029021220322098702
0.010139298520529076
-0.01238814886470622
-0.009690156356949262
0.020030123691889286
-0.003442433833651603
-0.005131946340314758
-0.006880531147895735
-0.009927173680456073
-0.026218271269014645
-0.023219406731567273
0.00224223783970799
-0.023107464839964068
0.013394352866709189
0.038922841560588325
-0.0006647110777541165
0.03141229740964922
-4.805300852719873e-07
-0.03020620979117703
-0.0017886425256646468
-0.018941347528868148
0.021373801142173278
0.004773620788573719
-0.004622393338749585
0.012584500097016714
0.11639625807222083
0.04406783132631066
-0.01965246844411944
-0.005668322297795391
0.14240601914848675
-0.023168125432212135
0.04894359686715954
0.025191151601059638
0.02583464104052033
-0.022848512921675078
-0.07382050185859632
-0.0315471950317395
-0.010398791241148633
-0.011841760922976641
0.009431251909799715
-0.040319103458513916
-0.04861376089856326
0.002540805231104103
-0.05745862324396277
0.04893756620831098
0.003928597903451149
0.002755903476031122
-0.002062062880093426
-0.031627604014380827
0.013213639421061475
-0.0061467159441426335
0.016319956239525556
0.015432138602976623
0.05897766294925443
0.010878717029644021
-0.0999393343519177
0.010786540664708326
-0.011880338296886988
-0.00489214638361864
0.039802644582704404
0.030868255528665407
-0.003365707323554591
-0.03071169010462845
0.005713023585688221
-0.12087854601632103
-0.07813800060283864
0.020499394192801165
-0.07080500103125828
0.006520384414650092
0.00891542177366705
-0.016719844197690372
0.016194249546045827
0.1566985116474365
0.08813654239112947
-3.5533925807962066e-05
0.0075325455141539354
0.01956178902038968
-0.0026358756995369017
0.0429590514826028
-0.05846062696094704
-0.16134491145333987
-0.12565328351596075
0.0059919658624767135
-0.02119537988080115
0.014672725795846588
0.026173695812840302
0.10126999129444508
0.04940691207140818
-0.04629832928624293
0.015718496195200507
-0.008711476551498435
0.03548707408894795
0.04399974511251737
-0.050599727104172744
0.06141416360541309
0.035310385538295685
0.0021144372573635157
0.009982111778626443
-0.005497510356927332
0.013798292366438604
-0.0013673518608923673
-0.00981682732310222
-0.03661330872305805
-0.02678158436611059
0.014808447196630629
-0.01710070688560576
-0.03033401763555887
-0.013189073428485139
0.021984947346865336
-0.01702823666360194
-0.011124664072418819
-0.02935683600926473
-0.017767334821920475
0.018565336924743474
-0.015852922194613376
0.018906063481660927
0.03226750491375444
-0.030462133617983837
-0.013960190015307971
-0.01703477648348777
0.01028629887560167
0.0168231046129258
0.006032583034491515
0.014570423246212612
0.010973441413083427
0.039842865477411823
-0.025412388739823398
-0.023239358769059592
-0.059965086291374765
-0.020613022983610632
-0.026393065154448392
-0.006372611417632769
0.03659118818513714
-0.004800433513958502
0.03161234851967828
0.09943271397740984
0.18089807698218724
-0.0044324250642350455
-0.03156790374650824
0.026398891517646343
-0.011218023127658698
0.0005351309194904198
-0.029832108711369546
-0.047640218711878526
-0.011779064504696516
0.04687370277310484
0.008964432050981658
-0.03624365091353332
0.04492766705697744
-0.012967719170471997
0.00486403108353864
0.036830636961903265
0.016186271180102522
-0.05338119411409442
-0.018749710360175136
-0.0032634113745092512
0.000591913788019587
-0.0021765497581773463
0.018511563209059077
-0.0036663402610654944
-0.051778398365300196
0.00020232419515738337
0.009123856505978243
0.012956913944747987
-0.020260132202606532
-0.038540433736251115
-0.009538032344788432
0.08595468018596966
0.047399559337051436
-0.042058807957895704
-0.05390488235655667
-0.04125935977966808
-0.02237721160283313
-0.020389441719665252
0.02320813299325452
0.043566330158248436
0.040679995652908134
0.038751176593470396
-0.12861999461738416
-0.01635698310279988
0.0007952193874103163
-0.013422653974557655
0.007568337895398736
-0.047373812942948075
-0.03473919402589618
-0.056682609001857225
-0.026276529382604087
-0.015932597859662542
-0.033529239305714116
0.030445235394515175
0.03881893447865761
-0.03275524402702327
-0.004834831925174162
-0.006496830607454865
-0.005522355132830412
0.135119498267632
0.05028652815425789
0.02637208683775422
0.009428576387989445
-0.008905198129698784
-0.0454645253829606
-0.026494653941060656
-0.023980755618861
0.1958322088907747
0.07447115568442848
-0.057224599307271466
-0.024763107894779327
-0.047173001503857816
-0.03469551521720819
-0.0038830199336830334
-0.01312394984317429
0.026417907356861205
0.024005667350961223
0.002995686199094645
0.1069481105336179
-0.07394250723890802
-0.014969175124392817
-0.004000730294470441
-0.03658574836317304
-0.05733847171154715
-0.046357396050470984
0.012923101214914079
0.009426144732911056
-0.001628531720125018
0.012644170263883073
0.041464052435880305
0.002820864699731819
-0.011993964267289173
-0.04688546857014506
-0.09565699945086728
-0.04344264141694982
0.003923935905109631
0.10435425832935903
0.021335851867916495
-0.030791549849135718
0.008774302462811329
0.032250263077645974
0.008990601011965162
0.0820391690797371
-0.0005834916699205922
-0.0435378134455639
0.11954873540842605
0.10878517382478871
0.014795927954143794
-0.016423411593933693
-0.007169996572119479
-0.004516828266876706
0.01081645414569328
-0.000693033359941646
-0.058363087423685386
0.02283275358109881
-0.11429298382584285
-0.05521052253432313
0.04665760613509555
0.03664266629383001
-0.022048136829339454
0.008206505659710258
0.03828353325512698
-0.05115209742714252
0.043507974157006996
0.035374762911616744
0.017674571404376907
0.018255496766330974
0.012038843332726595
0.006584572261949757
-0.01629085820565616
-0.040665102714915385
-0.06085102103589037
-0.02319890713788216
0.08087224164561357
-0.02788838316421586
-0.09064294840496981
0.040449280035218756
0.012393330967396388
-0.011246328436809899
-0.0682069348937584
-0.041807407765571625
-0.018662701324522243
-0.0403056074427073
0.05197579129942381
0.07886052619488398
-0.0849076855283711
-0.01884705405624946
0.02425361525030403
-0.03154984105945926
-0.029918334947318884
-0.02159619635640771
-0.03269688357881504
-0.0021718533145916857
-0.004964345938539311
0.006546391240371014
-0.019279459683109096
-0.024938141743598072
0.004162561999302042
0.12837091099577774
0.00010457594158295983
-0.015852584825311315
0.021501791749112896
-0.0292839011991394
-0.03605895129849798
0.04770281843032812
0.0050528364176606385
0.05413267678387856
-0.01833720808495574
-0.009463617875311237
-0.04186719399825294
0.0788436251972178
0.01942487851985943
-0.004607958029260203
0.026223344491686083
0.03565714449969349
0.01411182188783838
-0.07256308871750028
-0.02555522431604779
0.02793276559583068
-0.02438845558676386
0.022264301328230193
0.019490370158428725
0.09461352252851596
-0.02884165665413025
-0.018820811715870144
-0.006685646488250569
0.04373807303905979
0.006386700020733683
0.0036434418847771204
0.0284965937648102
0.03690375592268685
0.024298401662301596
0.0016258000485804176
-0.022795862460060583
-0.02320545158414178
0.014919397608957118
0.07720346707912218
0.013299589257819395
0.01663723840841659
-0.021154281074251838
-0.08010977331567454
-0.009746145212923676
-0.15281219678642047
-0.06597562645117974
0.04180689929948086
0.05259811096979163
0.08440009810498492
-0.10931130374009182
-0.026705514565033506
0.00892611158678976
-0.0033456603513424884
0.015914511884889838
-0.03427924284976162
0.011379505163139209
0.01151380032092032
-0.010656906753266599
0.022338062131926434
0.014418229928191787
0.03251863491285636
-0.02020282247660856
0.050273768954666564
0.045280399274757674
-0.009205607301454241
0.0125558127648202
-0.01704320462981822
-0.008125853781731982
-0.006086287076249739
-0.0026773033309524905
-0.0014293278432879885
-0.14535028844750877
-0.028137902082974554
0.027518641750738516
0.010735613005664706
-0.0034357743424140133
0.0009084353357851121
0.019340934901294324
0.013132655585728625
-0.05786107466204391
-0.008361272293249166
0.014826865615577065
0.01143895554107808
0.011025731105199634
0.021498073110406305
0.021857567922398076
-0.029640301740093744
0.008083001267242066
-0.00026182448244753826
-0.039756994196708265
-0.009303949389887139
0.04078923684044381
0.004253667339723397
0.02080802416243925
0.00018209881705478096
0.02058770866786148
0.01490372624579338
-0.015484794577399492
0.01707045859785115
0.08660286121433497
0.018578889312452187
0.05020559973906269
0.0335849054967459
-0.010620590640695848
-0.01571346942979802
-0.05256928619010273
-0.05435185878577169
-0.10744422026879377
-0.003250789688961403
0.008062470155530245
0.033684119144354964
0.013917457788968284
0.03294950949197878
0.0015301435930646235
-0.10959710563056795
-0.026244372544623324
-0.0041950781453751656
-0.0006815618312617393
0.027555633183670568
0.0003307655141914984
-0.007643562621934702
0.005621469048735105
-0.00022839163962429197
0.0008530060206976875
0.04390272085990385
-0.0656579139286484
0.0844347268113815
0.04752017228440061
-0.03497428575083222
0.01190738882166062
-0.023915384932774293
0.0089750610919051
0.02400978662269063
-0.080075976394253
-0.06684047181280525
0.02172447374944698
0.03947812044717161
0.007385961766126267
-0.028755251137772036
0.007016940973996925
0.04787025656061664
-0.02024286655540753
-0.0035044719486223806
0.013088117953699572
-0.010007395759745272
-0.005337387552094012
-0.014609423926058815
0.028392352261402132
-0.01202154349108616
-0.004890092041459529
-0.020201063637382433
-0.00474803862494768
-0.009756105047799618
-0.04312965309550871
0.008031476088400222
0.04522728726094345
0.005185523693564648
0.008000535614011468
-0.008369559051382262
0.0033089400324513626
0.002509528148572639
0.026744545611881717
-0.005798067822484587
0.02003393099503246
-0.012616596762279882
-0.014542003897829581
-0.020217795118145816
-0.026328391587197443
-0.007455891695624154
0.0045208467986377135
0.029406389045947806
0.009459523610211231
-0.019721952463623207
-0.0032597183031706283
0.0004950028425523658
-0.01986349340964705
0.1499496533691393
-0.0006755918922020122
-0.03696857812126997
-0.019353795365109727
-0.0013214373505818122
0.04283565795394743
0.03286900525056146
0.0064602460456158715
0.007010250206981934
-0.055167811073680316
-0.012999584967695871
0.1315107359702939
0.06454687389374766
-0.017733903448725007
0.0003149648502445157
-0.021129722836418487
0.04644251002534736
-0.026441493223255667
-0.023785133732841603
0.01395371721525267
0.022120950556006828
0.01222211429328758
0.018640972803559395
0.004067143125059293
-0.024746696239192213
0.0017383583432716216
0.05521438158565005
-0.06954507779035739
-0.21677215194525626
0.0072432793068930735
-0.0035306471512276303
-0.0003574396965423689
-0.031198904455464343
