0
-0.013105531525616122
-0.08410944792228169
0.014172758411584422
0.016631382925614478
0.015383392155651163
-0.03245707231596727
-0.02752247892667813
-0.013928330888305855
-0.0029257841932100255
-0.006443494172053441
-0.008169030982853358
0.0048952608464543105
-0.010739515606124257
-0.014184343050206058
0.02458244128599482
-0.042400045505859345
-0.06723585734713225
0.0002084732855409183
0.0016186689097729555
-0.006883280529385436
-0.03893486430989065
0.16042243824952207
0.06484904657082428
-0.028569926487243148
-0.019439619153295954
0.015230592109447497
0.015043049303192765
-0.0165758954189296
-0.006001356874256552
-0.01673131692140943
0.012196820405064339
0.009171853731434872
0.033263946943929354
0.04639668519517872
-0.0054182466458508405
0.0051283054307683625
-0.03459257272022051
-0.00016399255817462808
-0.0025570372246415556
-0.015258729169342868
-0.001761682862796605
-0.008930318792674948
0.0048159325600140935
-0.004430312664015175
-0.009984666393157215
-0.023641858845432354
0.007847670447865126
-0.02563140363605945
-0.009443050013987656
-0.0737045029971579
0.004526778342507538
0.2416911362767924
0.011257913639057825
0.05160877030466484
0.02747722681706884
-0.02568369217569702
-0.0004806841452496744
-0.05074535759748392
-0.04164955890952176
-0.03183505752243589
-0.025603313010782378
-0.031188435149889365
-0.019658399511882932
-0.055445919982093354
0.0410912610954038
-0.018205764844351872
-0.011861057364947239
-0.01038766050697144
-0.017638992851317595
0.02194019972683342
0.0011810105486326314
-0.02057253020041289
0.03568207351163561
0.006944714241523273
0.012359934589683028
-0.0026853504161804907
0.02257802735368632
-0.021930425093860964
-0.026948985227927207
0.11574709809819231
0.05557394985145416
0.00265210915820627
-0.008825197021452501
0.0052595537318622255
0.017600120119473477
0.01949713018642503
0.034213663401752054
-0.0745015631291438
-0.042540460589824754
0.0052319292202008425
-0.032544378943034594
-0.055996159863808334
-0.031223358942320374
-0.02098854016690547
-0.008976566598862338
-0.047321958763097235
0.018934016398718525
0.10111950496920939
0.025225071723239685
-0.018525576295127775
-0.01940635163640185
-0.00022772136319575714
-0.011642387739791257
-0.031087034099196397
0.010848142137781194
0.03253567233669961
0.018808475239700768
-0.07622053770637774
-0.04343744058866747
-0.08872705434042422
-0.0021379680118849853
0.042793318119496264
-0.004286956453978052
0.029175825043462708
0.008633334542571628
-0.010135040005264554
0.017564550784817397
0.12016463329711152
0.03664402812074662
-0.011198690224735497
-0.007759309069056156
0.042471555504123966
0.06793909790379468
0.020920235231477458
0.01941400678287755
-0.034053765755706594
-0.011371904076386434
0.02067962353079813
0.007831102135752043
0.02064182452977979
0.01967591001689772
-0.020005793785116077
-0.040925022525390854
-0.018720765138046574
-0.0003276322016198034
0.00186783593125056
-0.0239781613032353
0.008053143679957074
-0.0730325649008993
-0.05937492834051849
0.037107602990669016
0.018675058609673632
0.015720153055503245
0.026949273785989703
0.006005327831134178
0.007701771958424402
0.011078146132158706
0.03403569005675365
-0.020027989634086196
-0.04175742319250635
0.02304778771952899
0.03000721402162144
0.047524924725179045
0.022467936098146644
0.0441534327852495
0.017691010674849305
-0.023358615952557792
-0.046580407262249955
0.005037470353270722
-0.0546887087373502
-0.11520900378018452
-0.02590923490110452
-0.04462414969527633
0.003833962450255122
0.013801911280838535
0.020558694929147848
0.01612531962923281
-0.08607668186486067
-0.05405157458797811
0.011903024139730056
0.014351766688543176
0.025394470224995667
0.014314425654613997
0.0062796758333496985
-0.004192140553965043
0.02379340933430274
-0.013061083239048091
0.004834720300572528
-0.004671112250622873
0.04249020548703417
0.018706296397773985
0.012431574690502413
-0.00660907606828384
0.030383462908291074
0.06197314660846995
-0.008674280748425491
-0.022217567120588463
-0.017943142430385153
-0.09117642524053614
-0.012594628198108622
0.01688268663349544
0.020231384270795773
-0.0028661259265419965
0.05473068231809025
-0.00041607005856810793
0.025294455583638475
-0.020828282160312017
-0.151011787064371
-0.022858242554389452
0.021280771457000847
-0.011917040519229745
0.025149332689119216
-0.007829556353195804
0.00207955096512406
-0.010093673729201573
-0.06609395681813847
-0.04156662839988685
0.0857979285727897
0.07748095942953423
-0.0021777323837927436
0.016320067751761206
0.033834052563702616
0.03278337090512298
-0.004820689473009041
-0.021382951910698545
0.06383794172889908
0.0405480264861697
0.0013194204225987468
0.021765694079715302
0.0621089393326498
0.007071090013855938
-0.004306769223508172
0.009667827577451493
-0.09775298767141356
-0.06557735655096156
0.036193885413344846
0.003169731906606109
-0.013489757602111649
0.012082613883216606
0.05939204660863832
-0.03588850319492763
-0.012247700231015625
0.002416186039849836
-0.02562703552980249
0.01695141994395938
0.09501902757977014
-0.02540211044069492
-0.007119147500600413
0.008829354772730235
-0.015812351054481404
0.003532868263986463
0.021100835267591534
-0.004398832473743515
-0.005305292013900072
-0.042808838160699164
-0.01480082230367997
-0.022508563913036607
-0.0009964390645252445
-0.04531789012214384
-0.0008082841033085902
-0.009348796441541504
0.0039840421051270045
-0.07644486138943633
-0.056383070554569883
0.03575283000409581
0.005822128044295998
-0.006706500444365353
0.010772202248727339
0.03259953895513275
0.020159613775182432
-0.01920269280567962
-0.027478012834042102
-0.03203521240464109
0.0034206700447798532
-0.015195682039313778
-0.07066218935003957
0.004294646947316559
-0.006913507486668553
0.02173964861858621
0.003050727017610254
0.027830374064790896
0.02050712547293791
-0.011020287177359171
-0.014765964553364177
0.09711942064520693
0.05709153600935751
-0.023515607659951872
-0.02382108615206779
0.04685297035525515
0.027612240536559654
-0.02357323051702515
0.0028054620547046517
-0.0248191223298508
-0.0031454023561605835
-0.018759189575003825
-0.019155700299079776
0.010359980696673956
0.1505431072671724
-0.00023713218198854834
-0.0427495405099379
0.00022928789566793552
-0.014140831869000852
0.0064997105896071215
-0.0541743352575252
0.08191444764991103
0.03243871524286215
-0.01715954050424371
-0.042261253857194175
-0.008468582326971688
0.11024132815686251
0.017785723186100034
-0.02580995439505221
-0.04959082676803467
-0.0010875292652759141
-0.007121467811257326
-0.004863876097632063
0.11449921403781464
0.004150591444263315
-0.025736950561353174
-0.01294081587156806
-0.03363988028099021
-0.02076350535127906
-0.007364066555279833
0.00020747761095412027
-0.002301182028224669
-0.024834964206600838
-0.040253382798760264
0.01200198641443122
-0.04898984006076244
-0.025981832281443285
0.0057934849107229396
0.0028974137964981285
-0.032945169322901646
0.008077410492068842
-0.029189228060474727
-0.03461496886733111
-0.0197808710127554
0.057408708872180865
0.10713832047105319
0.004599513346257096
0.006066455771831729
-0.011471217180452147
-0.027715115395851562
-0.023309384352494744
-0.048997715067505804
0.026298155662403323
-0.012243751553665534
0.13396426555147323
0.02356591689846053
-0.11657938243159428
0.029083176929040354
0.004145878963793919
0.01748381544388579
-0.012769636641267337
0.005138669140953436
-0.03731807018379246
-0.0015193691743090223
-0.009028830547561881
0.006219445504631114
-0.01230882942820142
-0.03710544142141502
0.005842020307838111
-0.03950081338808857
-0.017253646283554417
-0.0014280716772588757
-0.027220044832782068
0.03030882585345366
-0.018166190762880646
-0.028204813554940422
0.04155148823551803
0.01597714582081486
-0.009007009030264291
0.009820387135027213
-0.019915021800254413
-0.03740743453124011
0.031211295272594274
0.12419549661470537
-0.047196038147491653
-0.025645301694651026
0.07928909131146444
0.03541945393172026
0.022161571303781984
-0.021175275483006042
-0.022873809198780324
-0.01304599063183789
0.013473022792595315
-0.038198175906433554
-0.050336429651443554
0.030508979517000705
-0.0072707853117494285
-0.010294934183175626
-0.006048740955260488
-0.017605468710979316
0.028593161027833516
-0.007314450796636749
-0.018905951973346245
0.028306666185982918
0.04071047995775648
-0.009755026650053771
0.035874879642135364
0.08761228850539095
-0.047972158981808226
0.0006012807999754073
0.026657208902901443
-0.026499308495676426
-0.049240378525147656
0.05893565858027622
0.048020291968496776
0.06621840039003736
0.00298573184581704
0.0043843925324979945
0.06069654286622855
-0.03034546543661327
0.0007992900517123701
-0.009836424725397202
-0.07814554611091132
0.001545192173646092
-0.03555340785126511
0.04200332200684869
0.1125810300938396
-0.057602485761649946
-0.2321268855206255
-0.01678122531675978
0.03503120416017851
0.03144649424598016
0.11113071836355731
0.009940736078775884
-0.011765817478089937
-0.12655145842496685
-0.034797718912673074
0.022823634521730952
-0.010218302930944525
0.009253399385280506
-0.0266992446392611
-0.019584497608731148
-0.019196153228603612
0.005210526239610722
0.0339959184778508
0.047342911206923154
0.006684440877882486
-0.055583507024162385
-0.05058976109256982
0.06315244453194192
0.044874481957847906
0.018759014257063996
-0.006102297771933492
0.021157915847456982
0.05622572208328729
-0.00035747740485942857
-0.03167480096388689
-0.052341300925699996
-0.003282743881420442
-0.06536945690940506
-0.0432094880925335
-0.14695277456405814
0.04470601507820427
0.032373073347774506
0.03157458145115582
0.020153103624640206
0.007360868278430818
-0.009179245780924097
-0.009414248829231576
0.031864383217225165
-0.022473996239068417
-0.0155877973622511
0.02191802923097635
0.005188271665629543
-0.005714642132239313
0.04439684222154104
-0.01798395407089804
0.03968926020714876
0.019975364081383788
-0.017564071211497386
0.04775032169579003
-0.014682163495106282
0.03866254828367456
0.11684225715367325
0.0029217197839077466
-0.018059964575971574
-0.016558515707053998
-0.15930530175782473
-0.05306463527104832
-0.0016889782858980574
-0.02542117255091441
-0.00938269857365328
-0.008850494987564385
0.019115990590226065
0.024126355936337773
0.02480354986065226
0.0023591391466710934
0.035161727541970514
0.014655759857234728
0.03727052656619856
0.016045027889329197
-0.003957727960452193
-0.03811793044968168
-0.022324523040808168
0.03491558738769685
0.012427127869098411
-0.006565274676192389
0.004925015551537495
0.03739109049853695
0.10145307689583614
-0.008345780400885152
0.001260476984761782
-0.0565123338496303
-0.021786324545499766
-0.013828020225691738
0.05153247490473651
0.03277823100894814
0.0006276375954770646
0.011257132984218
0.0425884419603231
0.005680902757336744
1.9883234110491548e-05
0.017724154017657593
-0.021544483545404985
-0.11152752935090013
-0.016847776545438793
0.009343548580042845
-0.030055164060869825
0.022529209661432455
0.017403164919719563
0.0019082772428509404
0.004604442331183209
0.03982833174662584
-0.11693971236388233
-0.05690466148592251
0.026014690187215677
0.012717315167334086
0.022585715829233688
-0.00030295879790422726
-0.00979706711825655
-0.0068983194476816435
-0.02607370039599336
-0.06131057863269418
-0.020931242674830382
0.014392462746626348
0.012084701745400493
0.04155588087536679
-0.030874006627889618
-0.17198204769164646
0.08206670948216369
0.12836245717807807
0.003940888468292977
-0.0003460077618650737
-0.04773033620384799
-0.06885618876024246
0.0410522297513702
-0.0019629779776945883
0.014788211873989208
-0.004204944954301344
0.020549170342961182
-0.00020400525398093575
0.044594198561999566
-0.02238694576344537
-0.010967837349159777
0.030477712402328248
-0.015999362343266633
0.004565363799127606
0.04910691260896
-0.030785135949981227
0.021873088257713544
0.026238474207047918
0.01669338346981444
-0.003632885304187248
0.02614074564229682
-0.014008862988785734
-0.06214008283890187
-0.015688172639521516
0.017986133570460916
-0.02004579165275999
0.047475956519219036
0.03105437266556906
-0.028606759509599726
0.04166567000329687
-0.05549067479036495
-0.17753131631354552
0.0011241497732782932
0.056574519060386234
-0.026241060763778495
0.009890176327062213
-0.018600464562281805
0.01503783085432132
0.02165723320888805
0.05240066049750522
0.027662938744350093
0.05373646381448627
0.03032316990630924
-0.016357484627693566
-0.006451124018149189
-0.001305461624267752
0.017027588768581115
0.014715397595317519
-0.011281255282935708
-0.018261198506202145
0.0007957986005296051
-0.02346004266862495
0.014850971924878963
0.06410953428778096
0.1379582646027402
-0.05004676256236824
-0.012448301945415198
0.03471944200419826
-0.04112845248303416
0.059800015616203385
0.0805833947129884
-0.0901606208336992
-0.04333948885142303
-0.04530482570161061
-0.016321718619148832
0.006601283134115711
-0.028830453076503677
-0.007955595006260537
0.0024874460318885998
-0.005984955825769078
0.0809189697066214
0.000442615659901186
-0.12571088022701885
-0.00998874618606941
0.017902490460498348
-0.12900636351877773
-0.09649487987688429
0.04512651396346915
0.02529100722471264
0.03618892573550549
-0.00438296798960969
0.002914906200861074
-0.029681929499032082
-0.02238694750297606
-0.030259991608182314
-0.010921861736439976
0.005035000232567753
0.000635304492444417
0.014676808728435894
0.03808054875396272
0.003937506011451128
0.007483424365844319
-0.015766222791932395
-0.011339541661256695
-0.029889585692450885
0.030393918563388026
0.04259765536347683
-0.0006491843180750246
-0.0064178471422946136
-0.00193708996528446
0.05700565493701796
0.07460906882595425
-0.029361998894303284
-0.10072228592367398
0.10302555498797335
0.1433364727898379
-0.05626233316231566
0.02814224592121263
-0.014810550019485435
-0.0028316540641552448
-0.013153680090451203
-0.015176698864722445
-0.006434877151202948
-0.05094968344188063
-0.02060624422251327
0.014171085646127457
-0.005624913277874431
0.004860172518996195
-0.0015262813279511146
0.0052008414780246
-0.02282486830799194
0.014317081345763087
-0.012961281804701918
0.09398236924451622
0.06640099698303316
-0.0095662013634746
-0.0030460330117596498
-0.007954645451273407
0.01352212684645918
0.0346991955949603
0.008315766605840547
-0.03990367468728319
0.002866658797460795
-0.025945774016038297
0.0111267592576057
-0.02807569311950734
-0.05851279427968555
0.0036820531864218417
0.00765525700907106
-0.015542654244160266
-0.009459529578231785
0.003070372642114173
0.0161474445422859
0.007550278117026465
-0.035636495609792374
-0.00961045519953785
-0.008522471815217262
0.015939636565462722
0.03336110612409555
-0.01092623056848839
-0.020601340083757847
0.011220341047655222
-0.02093835719676011
0.016830285354588335
0.01249181470208975
0.02506763151166359
0.012948737480244717
-0.02432982496350251
-0.010951298006115011
-0.03623703588448223
-0.04420806410199572
-0.07168575710340533
0.01864950497607519
0.0037106440770603294
-0.06016985379145938
-0.020726725603036796
0.012696793237587257
0.03869218619954566
-0.001751964995046991
0.06879707188417818
0.010672602962648632
0.0018429419961441405
-0.0006995642236620091
-0.004627384387391543
0.06425791539951475
0.008277735425256696
-0.04023060860511847
-0.03332241313866855
0.014500804706581329
-0.008134931718408235
0.019348985714230726
-0.01959615589199264
-0.07724493615260854
0.04275278213684222
0.0416204296230663
-0.006529022205976411
-0.00516558954293
0.008838971358779354
-0.024661200776633092
-0.007050117364921603
-0.02570868517177257
0.03786086435484246
-0.02375225627417675
-0.04262729508189572
-0.048073892829010194
-0.0011599115300052014
0.07631614390658732
0.15704851846558632
0.06509492116350449
-0.027949916271502572
0.01205623575123629
-0.04981971487249533
-0.023445744210890875
0.03158728585100502
-0.009708745192211451
-0.028033679999142073
-0.0008824206343455491
0.016851554451352512
-0.05699023670208526
0.05537683048740554
0.08012101787057513
0.02033674674471026
0.008306552909577753
-0.026767340499590644
-0.07755461439142818
-0.05306909549342165
-0.001933661938111376
-0.006785521239819679
-0.005824829339271421
-0.04837373166467018
-0.005629484806974946
-0.007902988829218877
0.0012050022933155352
-0.005300545315961188
-0.019276853464345014
0.0020411003834796995
0.025218705309602695
0.023853259734057254
0.023770976851990925
-0.0014137053453622324
-0.027458223856011914
-0.03810972580645158
-0.02327069252699629
0.0050633013488142215
-0.029626616841606144
-0.005031682976478431
-0.022431655176373855
0.00880981931344632
0.12227610313394296
0.05666633608449283
0.00945119719120891
0.01832962644297213
0.03223122444578772
0.00870933209882465
0.024590861433061086
0.012836319750226035
0.050820416761032335
-0.019109555400643834
-0.04395947984485247
-0.0011325618210342705
0.01265467290622279
-0.0866676550989452
0.03670619132288697
0.0058152105690225915
-0.00145779228494716
-0.06828510358686127
-0.02021386791048206
0.04658518095543908
-0.051175338795301034
0.11939494312195262
0.14339770657275688
-0.044281782456202796
-0.02598800042352335
-0.04262441287110133
-0.017995325862477023
-0.02812300791806727
0.025973710574032076
0.027263121591426846
0.05618296007231908
-0.16250561889087978
-0.19286562611298397
0.0456815210156606
0.018568975445548353
0.027770780185824927
0.036067061549078946
0.0008306060783833266
-0.0009520292629727176
-0.04441725684198164
-0.009180048590766855
0.04352060105518884
0.04763028308138732
-0.003986400035364582
-0.015389701261490784
0.021621397821634563
0.00868696041879143
0.04065979222881769
-0.0014379045261910266
-0.0007711348004481683
-0.013314456674604624
-5.668480623645184e-05
0.010394184152537874
0.0026076559009960976
-0.013368976292354114
-0.035031346231834425
-0.07020216846140483
-0.0004119094138214166
-0.04641995510331089
-0.03820076320370688
-0.004567554609676288
0.023189456182488955
0.0009097227214502118
0.02629443836297851
0.025406858712285985
0.008912265828023555
0.013374326346688163
-0.019154864437437125
0.02633686486192917
-0.02574750108782194
0.00664917305049417
-0.002565943639808582
-0.028805505562432217
0.010213305543333561
0.006240698101229606
-0.03565349005301312
-0.00085626417567972
0.007443149470796303
-0.007339284385028433
-0.006656999662127977
9.582559016662565e-05
0.004616939958738738
-0.04467169016532543
0.029802142521059175
0.0469670072227194
-0.030214385759527302
0.005572995297524137
0.044926950866231455
0.02342509069382251
-0.054286354398631366
-0.1108278698179694
0.07522241692711248
0.12860350049593033
0.11134944066099246
0.13946382427843848
-0.04563226159940301
-0.011508265926064359
-0.02613457483685908
0.02228184935579082
-0.0010003937925902977
-0.01745422801732563
-0.04100413866498002
0.03044574290138806
-0.010905958085170727
0.13471517534916772
0.05239291322280596
-0.04057212810178121
-0.02164553367496477
0.010602030611488704
-0.04354174089196385
-0.043598542756501435
-0.03420907608575915
-0.05160170918295687
-0.001814672785655189
-0.021399684202284417
0.017346284965216077
0.004892107078897068
-0.1271532601993053
-0.03230934554302816
-0.022041283474297804
-0.12655812529720034
-0.01119376871648904
-0.008324024889758974
0.0363443275350328
-0.01459088306006517
0.012356173044192259
0.023549914731087137
0.02580427397968629
0.020210140018646437
0.03207836354447061
0.08558956139051478
0.011795504641117425
-0.001240962611818738
-0.009931490872865004
-0.03373697158853408
-0.0030935413658088077
-0.005850583703250777
0.0360661633394815
-0.0015866745356835294
-0.027262273894177593
0.0018481930967075857
-0.011178541769029863
-0.019888299283945546
-0.01302526583735717
0.034156810144430984
0.02351444475661873
0.05256658511944306
-0.009293659072302693
-0.03401911027982405
-0.005891390285115898
-0.028373498154578618
0.003448111418676265
-0.00014775563043959195
-0.0029791648464869273
0.023418125460552486
0.0021232414788814203
0.03994328755699326
-0.01040200558100181
0.01905347912351491
0.020027616145305183
-0.03414538531594093
0.006518880783569706
0.022463409097543616
-0.004178274397030047
0.023865066841255982
-0.002343871926529795
-0.03330467330196664
-0.07889959699454714
-0.06051200105542313
-0.027864142591448076
-0.09604968958661338
-0.008460949495118195
-0.006569101904149257
0.02853754316052853
0.06831947300137955
0.007158073926307552
0.13555804242697536
0.03207891787949727
-0.034318419601060586
0.0033510132633236007
-0.03326570258258024
0.06933568574547277
-0.0011627226199558375
0.01608905182019444
-0.024202869885417894
-0.04796281818211738
0.021846293560861624
0.03217398515978519
-0.01021298512259851
-0.0029578234709960655
0.01974525271096466
0.08062653523925606
0.03974208922353026
0.012370442183288081
0.05227696363594052
-0.006794020036839618
-0.02543245993618751
-0.003355302198176373
0.027849899065972288
0.013206464930932658
-0.006535389965374775
-0.002696755630168823
-0.0002813192509266845
-0.04322710788004894
0.010740299782631217
-0.041595759724356585
-0.15518529997822542
-0.042775343862337306
0.04118005474723575
-0.02325187167357479
0.05223293673773877
0.09737532945683877
-0.030493137382389974
-0.060660483727634724
-0.09209897686598743
-0.023804508352441252
-0.020859764865892645
0.03322608313190955
-0.02118304799977588
0.018661303960128474
-0.009922009854865793
-0.007805161075736165
-0.041245797491198444
0.054500740788018254
0.024861395657393415
0.0018436720592145636
-0.02008204642878683
-0.034234549908141114
0.01525179636570036
-0.015385496654837412
-0.0013316482093791153
0.0014351329528758529
0.03201199300959627
0.006350742744135923
0.041553791104511316
-0.0004485060072426312
-0.003361622259218064
0.04152846828485419
0.002283950972928073
-0.00044404454636075936
0.028437981345501212
-0.01279233686010904
-0.03826423031468245
0.02073797995029884
-0.031669695036193435
-0.01926195204861197
0.0017501179555150207
-0.002968491589083838
-0.026544353673210484
-0.021568164550545884
0.04390832371399719
0.1508495740263234
0.007630271207863569
-0.07708894255184165
-0.025318447028878067
0.005613149649920046
0.03885038568637074
0.04722273460387661
-0.02602587940632773
0.035704736535413964
-0.06023412059027675
-0.046312412596406005
-0.021632819980773113
-0.008511531951166516
-0.007115639860186307
0.029697474810501102
0.03048462271534132
0.010731364110818507
-0.017886578181882114
-0.0013362022441713152
-0.007311690537325988
-0.007087515471870359
-0.009078709015198963
-0.0016653533602156946
-0.02661530495095115
-0.010571810559169614
-0.011130112935721076
0.13735683429434226
0.03791654723636475
-0.10259899838002343
0.0857951248064166
-0.0033260392369256664
0.015016462900315183
0.024959716069504506
0.009583121929076907
-0.03513897142313121
-0.015633789925767638
-0.030072398855387605
-0.05421409632319527
0.008184665408169499
0.004278305973143931
-0.028840213686316146
-0.001225627431721485
0.03226174622614906
-0.01890125632443388
0.0297226601331491
0.0075486889486690145
0.002957492395007594
-0.012972965119710224
0.001261739531482571
0.025965837296093662
-0.019533744023675446
0.0013764151376989288
-0.009899784697154534
-0.03841922911340132
-0.024816331650715378
-0.0213791054766414
-0.015731783071909505
0.025318649262166176
-0.02112104781432531
-0.012747202487984935
-0.0030976230340509017
0.00128830058146805
0.05175511997371248
0.014493266840549487
0.006643821233126295
-0.03625544972058974
-0.00934019863652733
-0.02185982428844094
6.464252192588693e-05
0.05147836905454107
0.05154789575079816
-0.00879164778591103
0.0003686485631033733
0.01552433464076467
0.002456814379173302
-0.006516138173463405
-0.004024572748629553
-0.02433640816115062
-0.0021872422553807966
0.017865878658611157
-0.0009195308164936452
-0.017177443024063335
0.0001659384150506278
-0.004240038457034655
0.048464073136808984
0.022522407189648375
0.01156502788356867
0.03499759812145553
-0.007754617395863051
0.0056545567536320325
-0.002137045590855899
-0.016353456876911057
-0.007424887945895795
-0.06751352440330671
-0.021666242310242955
-0.06060555209672866
-0.019015652161542627
-0.0029685036363481525
0.028065928942104017
0.0006971512215319286
0.03299140983550179
0.01576408898874099
-0.04044312625796025
0.03678762121254089
0.03197515808177204
-0.002058250115038723
-0.03497354592961823
-0.016524718844253335
-0.0053474149147128254
0.02288417766705944
-0.026939544565138585
-0.00890420577005764
-0.020980240677667253
-0.016148592680626107
-0.028091735185018913
0.00532143194207031
0.009207797249034953
0.022054255695455167
0.029138174190428648
-0.005962707919262958
-0.0233273893872032
0.025779781023225805
0.09933846722361735
0.0076510193215707616
0.05308009256306142
0.02721901474110947
-0.09879945408888317
-0.030690726940086087
-0.024772983245135823
0.06476556514314787
0.055466355817406124
-0.03051802295104277
-0.08204291163591225
0.01999645732324648
0.005495726534092622
-0.07133258421789002
-0.012530360750588363
0.005096450175454011
0.0019637620672993466
0.01794734881788489
-0.007684086872073859
0.006469957854809212
0.002890377206300472
0.01046174649301004
-0.01797955111260873
-0.003470126222505036
-0.03844554438862842
0.00966754302600337
0.06391857939868577
0.021305902846632797
0.06815330587714785
-0.03226101558773142
0.007627529992742201
0.12270642394538839
0.034761669297293823
-0.03495604864678743
-0.017118025426325862
-0.017870805932640864
0.003625267280837162
-0.02348254252359158
0.006095357171835892
-0.017050621133471746
-0.028321666576084013
-0.10311430749519931
0.048960741580022824
-1.9522401113379982e-05
-0.025053085672526752
0.09786110074039632
0.05614017827998853
0.009442050950636065
0.017544172434895745
0.00031885846763186497
-0.022012880776883462
-0.031643355117339775
-0.013452831895093815
-0.0032403404527683857
0.015231847521114983
-0.01189226719725103
-0.04421409026358322
-0.024471555578973743
-0.014832552253203096
0.022000481193075006
-0.08501326077383073
-0.11028972852151174
0.007800874236271212
0.03744706352908988
0.029481089556520127
-0.019202987795144833
-0.004617311893263281
-0.031689774399426274
0.047863353716678866
0.006305124268338578
0.010566596375898272
-0.011748555491891065
0.02724972322255371
0.03770212052731085
-0.007643768338815164
-0.003357415992406651
-0.010075121862642656
-0.017728125589635668
0.01677930423532202
0.023763835537669642
-0.016381871920649268
-0.013857159172479051
-0.004690232524338676
-0.0006512733993971362
0.0010400173516628608
-0.024881430961696288
-0.019021402196861267
-0.027443335103852003
-0.024708008647496282
-0.01577837849383922
0.06769524742545521
-0.041183858064186264
0.005364521600973857
0.0011880814102639022
-0.011237555004518339
0.013061055665082625
0.00861275231271266
0.024240906029525607
0.05522207070113772
0.0008454141445254167
0.03499587160475174
-0.02443554891483538
0.05966211898690296
0.04781267624104719
-0.002437816567030557
0.024223984126051267
0.01777966589773143
-0.012512981210337091
-0.03591590567529169
0.0030458862683140782
-0.005951970147891599
-0.0008521156111714706
0.01362650179906443
-0.018221093527864933
-0.02646264668803342
-0.050617518906276214
-0.013761254683704269
0.005033639975048269
0.05272874627676495
0.024638899337936275
0.04889208489431194
-0.01189684683216092
0.03947197469734889
-0.020615905883097682
0.03237946738179121
-0.0036109796276323487
0.02067279214452566
0.07302571183512939
-0.03618883020837656
0.013802969896626674
-0.006668435356083566
0.011346421792873899
-0.08231837627482287
0.009412051177768272
-0.0337331438165925
-0.014938831523075175
-0.02390564117726425
-0.08208029913610564
-0.05865215925637644
0.019764867784376947
-0.05621630967331342
-0.00396037616683212
0.017424254946888068
-0.0487020437707451
0.015920564832237114
0.0004848193296465823
0.011498668917379655
0.015564492280519523
0.061474742697707925
0.030410849342876013
0.007649621017789388
0.018056524582533078
-0.15342065970653876
0.0007580538713334886
0.05354923863464957
0.010404378272645436
0.01528845080173658
-0.0043734060385375775
0.0018411726755832123
0.026520822314374064
0.036628693510297725
0.007308509688544921
-0.036222543741921784
-0.007444624103782429
-0.0062548921531484355
0.0034968627895250754
-0.00036810142588876926
0.0011399010476875653
0.04422989285659598
0.011103850009101988
-0.011990210060290035
-0.023288309442844133
-0.014310937430048205
-0.006006668710269813
0.057092873844776716
0.04036678927239723
-0.014495189172034953
-0.009030232878741992
-0.019421115721057345
0.008855969582243191
0.01745974198660146
-0.008115025956605713
0.0019808111957546333
-0.038823604498410526
-0.06849014844037002
-0.012092495138413381
0.036908873120786875
0.01421530453601356
0.02362077011843669
0.025586533242425182
-0.02369214277869704
0.009230817841083287
-0.005036553784507514
-0.0030320322513701504
-0.02431585384989169
-0.011825694873152413
0.021079656822742935
-0.042041621547871784
-0.0382070194847942
0.029490797982567797
0.010727739513308129
0.00980906277049409
0.029047417817691643
-0.005623536472769108
0.1380517464137361
0.08004922862402128
-0.0589241970461141
-0.015720168168411302
-0.002231293964863607
-0.035015147145753545
-0.03638469279998887
0.03650666212663835
-0.012620177673104391
0.038083608332072506
-0.0686844096548692
-0.07144797251249728
0.0004073445229855843
-0.03843632657707512
-0.001223429458149981
0.011679934030195302
-0.016388996735599543
0.008981781220113975
0.0022209257039454543
-0.0761463432537673
0.003408958625685654
0.0037900525441615426
0.005731849714302969
0.024619901362190888
-0.012646910959889205
0.025695757891083578
-0.013610290841378147
0.017865202541847282
0.014895041537198901
0.01581642842664086
-0.010032905070205126
-0.013555731163148515
0.12078590944763756
0.0395468659514711
-0.0770453786343182
0.11497917326237637
0.08915678107679881
0.04439644807577005
0.012474339421456922
0.04691024214868919
-0.08688374278143342
-0.16305089727934197
0.03502454632519029
-0.0030225244540662017
-0.003991792306609614
-0.03362936689391966
0.002997703433454151
-0.008318252511288437
-0.0005927238577597765
0.0006708190525903145
-0.03152928011063856
-0.03275509845851107
-0.010452284219686683
-0.023352093224932202
-0.08031286045936849
-0.059608204787755144
-0.03257419867397646
-0.030276856647433764
0.06377727079143568
0.0215107504203457
0.004697565682491072
0.0425864055884916
-0.0231095526709042
-0.0372365064296169
0.011860375124730553
0.00726594901696187
-0.0028390047208227084
-0.007869162723135089
0.04587578889746156
0.23751297168325888
0.030339589786068086
0.019717709614980733
-0.034511781123891215
-0.018755223910602636
-0.008150624461256709
0.05882821069777263
0.0784459020300821
-0.037441271195528
0.014719594739186435
-0.0012635140715796256
-0.019262807718864135
-0.009367548664164383
-0.04518116489456258
-0.11486525247128562
0.05598327445748756
-0.028133872216462998
0.002382857286872828
0.0030467603016949164
0.0031779086880899493
-0.025956920745042827
-0.017990143200835845
-0.00900832882658189
-0.02269875408153693
-0.033877326240798616
0.00582750755278147
-0.018998180454510037
-0.011101888623335736
-0.02202413890955812
0.005324324558278119
0.01196480599973557
0.015046981423129803
-6.248115414322477e-05
0.005131669873367042
0.02801941211398166
0.0150804225126189
0.004044780619332719
0.006871553805711256
-0.009258019763755893
-0.015260715483405957
-0.014148907957895172
-0.02988811062143248
-0.002430767203941348
0.020591530658636618
-0.008862843295622905
0.012124634360912932
-0.013838885691804971
0.02913390951763458
0.0020144600032198736
-0.030164282199842643
-0.021893703123791824
-0.015311372762884082
0.028640478416848126
-0.006230950516628454
-0.019395863425577874
-0.004852042819787823
-0.020962052734579375
0.04663658839048658
0.04756504002800612
-0.00866895923384576
0.029919532582754094
0.01679081169882285
-0.023216980471377123
-0.009843226612557468
0.00275662229632257
-0.012956914832002385
0.010658592068772028
0.07424629245227628
-0.012846419588536193
-0.007714682726502548
-0.0158122019947116
0.008614026273554357
-0.010406469655930757
-0.0041661963860103535
0.0218264152764366
0.030708378326778394
-0.04307358356140829
0.006509689157729788
0.04991756041702334
0.018355182063063052
