0
-0.012069898225673364
-0.0056051566459098525
-0.10606266487517031
-0.006092087570591631
0.02707245668409059
-0.01868560059366884
-0.015873738911009475
-0.029840133421846
-0.03745081173332231
-0.028589298913397346
0.01202060409099155
-0.046294010287706536
-0.003215030298967907
-0.018313413960723675
0.0827391105527088
0.17249907615697738
0.030193673215562065
-0.04863043049831387
-0.008475076316688923
-0.04499833349100235
0.03504438368394921
-0.013452983348663579
-0.0012379669772531305
0.014017334881283892
-0.0009058363253440035
-0.061854247938457355
-0.0242360843916535
-0.0023860094872498387
-0.02777851821235049
0.006191245645439678
-0.01304310686088697
-0.02664461938094844
-0.016809821912159212
-0.02167436437569268
0.0415917651888313
-0.025020166052462062
-0.09519628605355938
-0.01746983291742162
-0.016603697357263723
-0.01592562438900889
-0.007044081961676783
-0.005094695029796721
0.04260173610083481
0.06105067116796059
-0.015513075102102349
-0.019579727699200043
-0.008357604180940134
-0.06938158021559634
-0.03054724114759005
0.05520296264047009
0.037693961921447236
0.05929381989657125
0.03059698216632021
-0.020161674101300438
-0.0003887458712934553
-0.04046349199990039
0.0421536281058128
0.09753859754312709
-0.05162981392775175
0.04971929207326995
-0.00212290129677552
-0.0018602930723851897
-0.015038464696081026
0.01841885376190192
-0.03540736485920119
0.012526402455331263
0.010867813186048651
0.11790894107388422
0.009086693077577758
-0.03401443818850698
0.011196511656210117
-0.02313818900747535
-0.03479126232222712
-0.08937967902029662
-0.03955251607122206
-0.03311954412228182
0.09967513973746982
-0.0184833117385651
-0.027856531190432163
2.368459344826331e-06
-0.05980677816074608
-0.049127680909465565
-0.0016088285416233634
-0.005478564597630315
0.036914938972660925
0.02712427436940655
0.06616946669341088
-0.001172421134872154
0.14169506855147543
0.029566137493202048
-0.04996071378715372
0.033529785982842016
0.006994657982351079
-0.029475873013274083
-0.03032447899428713
0.03208212402708543
0.03398787366409252
-0.04062189012396333
0.04780916850153258
-0.004734219653492279
-0.0013134744578333002
0.021157397982126472
0.006779915131286758
-0.0018204305000055821
-0.009668636868484395
0.08730198856303711
0.02632039752782694
-0.0474786896386642
0.00822542116653944
-0.017134658141310075
-0.043605646179265385
0.007306937249669181
0.030884738399739053
0.01382756646160366
-0.02423295513159134
-0.006657761547134186
-0.029892955614201144
-0.010673981881577392
-0.12865600029642163
-0.04161878866423135
0.013358834479425536
-0.05491055719112979
0.03691875175517906
0.018761999970584087
0.002348814199114255
-0.018797511440968053
0.019451306925040966
-0.03879740375574914
-0.03907874119110493
0.011469289476572749
-0.04410799595470402
0.02088908018973845
0.014980316648148287
0.00883486734021382
-0.012922226007605786
0.0021352682091540817
-0.026943815128653688
-0.01844049643123561
-0.01811336508982295
0.028641040830895664
0.061403790685662415
-0.02268559454340169
-0.008887004453851193
0.025789574969654703
0.030944539047457118
0.00912416360966956
0.0059336934364038795
-0.06791994089025741
0.039080366117368426
0.027049645333188283
-0.014294001108939625
0.05928972104881396
0.019160775088539948
0.008241511298822928
0.1331949336197047
-0.09293110642742361
-0.012644424967763683
-0.00651636022979697
-0.08492876400179264
0.04255609359581881
-0.00012439755140914875
-0.007337500311339676
-0.007866487102714714
-0.006578846656212574
0.011825256555202881
-0.022281817783077536
0.013353317706607687
0.005039944138529192
-0.0008486561037127006
-0.011417461857478415
0.01754636860691757
-0.0033248879999041693
0.0038385191798319535
-0.007392776327761728
0.029421118127701294
-0.018214544439177412
-0.07902422217533518
0.007401522075333609
0.07511720522555859
0.0017865872353366938
-0.007230777473250454
0.0008412140680232255
0.05706712519425224
0.03886235256996262
-0.01868215614548743
-0.0005896874106206297
0.010561681865365158
-0.03941880187952789
-0.01656085311873445
0.01510454901322891
0.05205509075609907
0.011298639992246916
-0.020370178587530884
0.00469156437410945
0.046503110437042694
-0.04783586565650688
0.01798373018606334
0.056850405419084295
-0.0030444639449967556
-0.02151327196815771
0.003900336651217187
0.023398702777108985
0.015517444598331794
-0.2120588452351394
-0.09410124276199101
0.028803337980027263
-0.04580568500493423
0.005117403084546731
-0.042260960168540154
-0.02303089650001393
0.012674721348076616
-0.09883876395813004
-0.051155696048493446
0.02571092482641816
-0.014024595639872958
0.01996587199677625
-0.023201910844021238
0.06499946496458824
0.1378531956515895
0.017713101900015165
0.056548532770594025
-0.025755064779054027
0.07765443498540982
0.0879045011321058
-0.027822855061398
0.013175273566114431
-0.013625558553200353
0.005166056078287092
-0.005129486521444273
-0.014190046411277602
-0.00853010528156036
0.00961744262529199
0.026569604195513616
0.001425676019743354
-0.004940800956283435
-0.048154311282081176
0.005963207541477205
-0.013140395292277283
0.037008570915651955
-0.0193627535580155
0.002932391738984459
-0.014400994547643884
-0.035488220030154484
0.03189889019402791
-0.014689854088447026
-0.0015451937361157957
0.030964752653052
0.02012704133435941
0.010724976630209566
0.010869429140362957
0.012150253860373958
-0.002260394043632248
-0.042067272997134905
0.01575209671428774
-0.015489807574461284
-0.021493929893589166
-0.035124852787096136
-0.012167512212474245
-0.03741375719423225
-0.0035914747631098057
0.0013672311237936969
-0.006771920147391315
0.04231407347466091
0.0020400727972979906
0.004400746296658732
-0.012670118608418802
-0.03426325343647112
-0.001084076556844573
-0.007268407723348897
-0.021476078372551718
-0.012153843071170935
0.0026280302052898367
0.06797193277306304
-0.012956761902563087
-0.038222394436292315
-0.02804838451039249
-0.04255713956804751
0.012192830224174707
-0.0037085771580058604
-0.029900081960671895
0.022966222257509366
0.026901436849222034
-0.010342506713279182
0.03257551877167736
0.0817391170504171
0.05672820065362083
-0.016712328227225386
0.007412865429433384
-0.024601887494326603
0.05256590740290461
0.03626474265687582
-0.015013027445739964
-0.0036124021600241695
-0.02140642110072188
-0.010362143465473116
-0.007749456202406752
0.021822681400819752
-0.01377016678720011
-0.005177234268876408
0.05705068794046973
-0.06956814778422334
0.009548201919123422
0.06226396059999771
0.00845078449177748
-0.01618541755555681
0.014534879480744533
-0.00782798157351571
-0.014098021628072235
-0.06244105021247349
-0.016761940360871357
0.01742888741587354
-0.026677524210454225
-0.019526852618694676
0.04250479705300772
0.13763424197300714
-0.015759784263040644
-0.03625187848776977
-0.031636081391033466
0.019168542212931655
-0.03787632050916113
-0.001583217991692257
0.04261244076685181
0.017833788193214684
0.00382128342258691
-0.010294041183378495
-0.011397418552718402
0.008575046334972233
0.01731775538605703
-0.014286565922980663
0.0011272704692753363
0.04694123233448663
-0.008996919287904024
-0.07180750401256564
-0.041383443627424056
-0.021769581818494536
0.02850881254421443
-0.04344444774947895
-0.03578876543542865
-0.01363880706894657
-0.0055881356064050106
-0.005182664302074893
0.02945914290238679
-0.010923375501641484
-0.02451328832539605
0.015029403357810627
0.013892361960422456
-0.027796459958313858
-0.005525882454800447
-0.028616120955530233
0.011457399448260925
0.03413472371737784
0.0020965535072190226
0.02335997097380428
-0.016621870405568888
-0.0261366616191502
-0.014560993394052528
0.0025808424938176043
-0.07669478321031198
-0.01984626603790453
0.02199053019068463
-0.02343537187138471
-0.04675764241711312
-0.032891913512633944
0.11644523454079148
-0.009784927971428211
-0.03527474289660781
0.05692552525116136
-0.019959767015796246
-0.010459372736491803
0.008664890118524319
0.05708684261941426
0.025047768090172954
0.039336092993128256
-0.025898165203418002
0.038812827518121144
0.08530620807056453
-0.028170687351460288
-0.03704031629522251
0.005046688917092199
-0.008521891164796267
-0.031459267331987
-0.03713618761635162
0.01668871290545645
-0.03156924111735086
0.12617764560062264
0.07251709615793858
-0.0170515970540472
0.03769597153254954
-0.0015470453350897176
-0.010568290891181817
-0.01529961041045508
0.021399489679317606
-0.01695100018602272
-0.008136122532279862
0.013987343995118312
0.1049270210655777
0.016244693320787228
-0.024148396664566075
0.025005712712562068
0.013232690871962677
0.014136379647733252
-0.008174451410824927
0.0006733871617425564
-0.013663278697379209
-0.010073110556359309
-0.0970924660755301
-0.0911239333094713
0.0184344268615078
-0.0654476837552149
-0.0351019054977689
-0.026439364153145663
0.015753791071009687
0.0031993478107263658
0.002765807518267087
0.02012621445336962
0.005433679212867541
0.013225300310584219
-7.240179001693025e-05
0.0013969622015894546
-0.010654190043320647
0.02958058699675625
0.04039338277293639
-0.012693676719392328
-0.0017906522519255904
0.029503548884112277
0.002764726131617107
0.04280365165556402
-0.049895792392116195
-0.14751119620898914
0.06090923142955515
0.023311253109623883
0.02202402373458768
0.02317234666874188
-0.0017281105112190067
0.04464220238021684
0.0013436557855278047
-0.0037297130588620723
-0.005078952217649069
0.011742928493092764
-0.025424109093397495
-0.06378765452735242
0.01940966151531096
-0.0005187749582723809
0.02230349095806303
0.036365731066981336
0.016418319135947237
0.04847983364074572
0.04202410401226865
0.007481564887763684
-0.08744074133633027
-0.05533134179877015
-0.04332947063017561
-0.13141240062614187
0.04063731200091171
-0.038456854069864876
0.024790656496521696
-0.014580872537455878
-0.03480738440261084
0.0018004035994179934
0.0038751109042511824
-0.019598910303580092
0.00991216282487753
0.06976453529400953
0.035408805237464494
-0.04257770767441578
-0.012266876140166355
-0.03869113099735926
0.014532607804616321
-0.02112052869227292
-0.026367025241671747
-0.11986830875081926
0.017912094686823733
-0.014630952965474099
0.03423092372702031
0.009554599441912372
-0.0069559727112253455
0.044843373353348266
0.03655061764849744
0.003135085139089331
-0.010692446742945078
0.012629004551154144
-0.0246668332282276
0.018764481097134814
-0.017876575339907406
0.0001627885079713183
0.1424334044636548
0.05742109625482989
0.026382336184071015
0.0004140863956889007
0.0007315580686853028
0.03448686343482136
0.004830411789348731
0.03322766124835478
0.017400977935553126
-0.05376150382452869
0.05464569467063713
-0.003367606347850133
0.0294992875122109
0.031122539432493018
-0.009287270420126512
-0.0020816766836277635
-0.004056107236283124
-0.03824375173038846
-0.022477689397013934
-0.05023422992740875
-0.006861899985004314
0.002568025964059931
0.08015425058780518
0.036877042495819905
-0.0038148333934112594
-0.0076527076281536575
0.000961988843991774
-0.011498624405958563
0.044484103348135816
0.06791161397691378
-0.01886496446174215
-0.00561814251935164
-0.022371213721286032
0.026990063677504835
-0.016242096102404062
-0.018218624419353565
0.0021692045877236134
0.026598391036872747
-0.10430044082830048
-0.06567548679619006
-0.16260110766244218
-0.037909415742054725
9.064208229076696e-05
0.007758322744392063
-0.08005586950548131
-0.07617760261479427
0.01792649715338427
0.0071218756035863855
0.015056857834740393
0.033621175595115585
-0.033153438708025285
0.12481649983042015
0.03676624715355069
-0.018047423986206044
0.060099797745676295
-0.010359736945183174
-0.006965087648617248
0.04489882316904247
-0.07547825035780535
0.04092076623073502
-0.011810953783079102
-0.03746411735963573
-0.009801010389561124
-0.002213988547406119
0.012978154132047667
0.0035119119117767257
0.01927463214406308
0.03916015802438511
0.03438254478845849
0.024998858378956736
-0.010956533725028212
-0.044794415808153645
0.053734946198034636
0.025608351061634664
0.01738462622483729
0.026829470072037644
-0.022810320771791136
0.02108587308533391
-0.01211338489596448
-0.00633782973423631
-0.05275819955249726
-0.11492818429173005
-0.03604681302440523
0.060710198160841014
0.006375701814796594
-0.004439537675631257
-0.015416557188594596
-0.0031070166169490706
-0.057291675331675555
0.006672788685651904
0.14365820301308443
0.0014857409962443756
-0.02235882363593918
-0.047317852946383604
-0.028156931855153774
0.04873575627785298
0.12471006084154868
0.01589121914633025
-0.030903958429560088
-0.02747190056715835
0.021156057538528898
-0.029706952830112075
-0.01827821136756589
0.015942343685329045
-0.004929892779521568
0.04910287873835615
-0.010531673885938729
-0.01294974002736583
0.014629364081723457
0.04679713873432665
-0.007267757383003046
-0.004622242924787647
-0.0008096371134568617
0.019654672943066394
-0.026453356764965536
-0.023116577428672628
-0.041600670212543815
0.015731265203282444
0.010610588910101982
0.005361432988064115
0.04151485960842501
0.07311869443134753
0.023177242323213856
-0.00929363073313654
-0.1100315394719596
-0.11476460573748988
0.010775840106190662
-0.0065991233071301635
-0.02087331837137109
0.0045048374440134495
-0.06358669034568105
-0.034728992366275115
0.049919690130711944
-0.0011286144137355428
0.05322786762290862
0.020760037977902206
0.0009638510571574088
-0.0029866474195153585
-0.05595376401534707
-0.02523494028177164
-0.008338504646919735
0.00485141762662523
-0.002166460661544933
0.01018817563362239
-0.008203968841492203
0.054855722518227804
0.14023198002742038
0.016126809335314546
0.00804035419623248
-0.021059453361786412
0.03930319089126879
-0.005557557103083641
-0.016562774357586803
0.007111068735093786
-0.0035963608030491704
-0.015210554781414655
-0.03824422449012311
-0.020478388520724086
0.009167169184100706
-0.0012596493137855696
0.0011434015836239316
-0.01041247880056373
-0.019370708039212804
-0.12846611930151436
-0.043731996480970634
0.022171686080930512
0.05068072000945264
0.024972656651868808
-0.011790987456455584
-0.015604000689030879
0.034371218906421426
-0.00017937528715075658
0.02238705299323095
0.03551913958062071
-0.013247813333634154
-0.013154336104264782
0.04351523350391878
0.026301648487377607
-0.014252973392262606
-0.0015025687420891253
-0.0011305596383312103
-0.008956893807441803
-0.006873641355426003
0.015787234166113714
-0.006585420769693609
-0.030093624527820325
-0.029032356112675437
-0.0019221084810249808
0.07960273825352061
-0.07652109509694095
-0.012202025007899407
0.032298031921267685
0.029938856740442877
0.023532676361060403
-0.03768580216695478
-0.08811241425505795
-0.03577815404930663
-0.045483427916090516
0.018991188089963085
0.028990207119945394
-0.0252400618200379
0.06568995425261101
0.07599296382029326
-0.017125874806522463
0.009903695826971412
0.018375083271180224
0.01727353498000537
0.00716947946315396
0.0047815169111899425
-0.0207234023113941
0.0030540819276089976
-0.0058236734157492516
-0.005631184794743521
0.00121858175643484
0.04646508627083945
-0.017338056389779345
-0.017601508206356545
0.034202527998126814
-0.004909916843864346
-0.032214329563487167
0.028288718497715894
0.0019217006156359588
-0.03357673961597885
-0.000492306790073786
-0.016689812887501515
-0.006156585649907315
0.0037749094003792427
0.012919802055069922
-0.0340914022366948
-0.01730995162687682
0.033277315420293795
-0.0741742412135294
0.01252342579389528
0.0245920378361069
-0.043790840974548946
0.054434751478658165
0.05328687084118726
-0.007377905174606914
-0.007985959251462449
0.0027664763933017197
0.05468441190742324
-0.007887068994134673
0.016940111936528
-0.029373878898375522
-0.0033800559985672214
0.006124269844849035
-0.008340558177443658
0.0316714738401154
-0.0015812762114255955
-0.012386634214403157
0.027716831762743862
-0.011323668212460196
-0.03719597977087447
-0.04981120195582655
-0.034351176801320285
0.0004625891135473221
-0.009021210658942373
0.010408821085284856
0.04798808366733941
0.0022014754947563622
-0.0024724337992141805
0.026942953713054246
0.027149209220870996
-0.008895057947395627
-0.0067775561195138456
0.00034370491592006425
0.0031633922075296156
-0.004742338253052252
0.006502073685178937
-0.024313709364921676
0.0009713665452190253
-0.02895475762487347
0.007292864616088004
0.0165725156188905
0.015417784677690068
0.0175211213076164
0.07566992692587035
-0.05627597449003117
-0.06196337887800916
-0.021989134868000006
-0.03418669178181196
0.007804957684841249
0.003971874135085417
-0.04990227684230453
-0.018842567969136154
0.02776679052963184
0.002055519869441812
0.02830259476039819
0.017738620331224125
-0.014005272249195464
-0.03077251407378408
-0.018092944325288858
0.025446872582318213
-0.016849203491393967
0.009908154446226966
-0.009496622816997216
-0.0126063745737013
-0.013055978598470337
0.06344471573064255
-0.03284783222015184
0.008587395096925583
-0.0017837689235921477
-0.06520670439582091
-0.01841131884927365
0.03932850360624268
0.1899125732722699
0.006025325347762644
0.03225098088828715
-0.008913512170010459
-0.03734331845483889
-0.05812706101298714
0.09018762283827134
0.04038462458841382
-0.01145198555876179
-0.006163617418197222
-0.025146972039482088
-0.029625499988486327
-0.04971722474110055
0.03866581342904098
-0.042350691612875926
-0.06333222246548041
0.045474197789821466
0.04520730947804645
0.04483144248106008
0.07690874684910343
0.03625804357282802
-0.029083236459988865
-0.038877478316978256
-0.09075569606565902
0.06946230745233935
-0.054895230679537534
-0.15242836341715515
-0.04982605984614862
-0.10877339846332525
0.009991759805021025
0.15937716979428362
0.04999487704550409
-0.021292591928624875
0.03643770783229342
0.035735125009953864
0.015096762780627358
-0.01160422759911762
0.03273256739459261
-0.01864559965606632
0.0032247502130382157
-0.03298032965664364
0.008772050441304052
0.00926658681484992
-0.04058578726593043
0.027528794361132963
0.02957600422026844
0.029450498054476217
0.0269828407497691
-0.024895101469987503
-0.0003695799532555914
0.0009994286460137318
-0.016311592138048964
0.021334534907291588
-0.006027430418787682
-0.03227595928549794
0.004358295385061793
-0.01579058336497239
0.03251065922950774
-0.02176854695407787
0.04073443347638875
0.030457483500953515
0.0059363166832291595
0.03320111531035991
-0.0019685990853107113
0.010863560019103654
0.016675966132531108
-0.01786051304716097
-0.016066370545369496
-0.03399122316298271
0.034131174145057536
-0.08095783739192129
-0.10392499308365839
0.039791141468665935
-0.07925186904200694
-0.031133427949247675
0.012026426642795109
-0.006040874325866004
0.01024971023561217
0.06356856696245937
0.021719869770965173
-0.015334745411001788
-0.046337032850319204
0.0020657103430248786
-0.014460756835280565
0.027181090541421815
0.012450012700164527
0.006732601899304859
-0.037895839913276295
0.008734930068563601
0.031613615630122605
-0.018634685194594932
0.06322878040552245
0.04077448086398935
-0.02691335436205888
0.040211881384120435
0.036436828194296625
0.04392356136671334
-0.009841141785077955
0.0005436635475260768
-0.014834047762532927
-0.12903465810751344
0.005627838754647505
0.055664087944870426
-0.025150944637128962
0.01261555641640116
-0.04586529102206595
-0.02065065028879248
0.03409481064550199
-0.02320360027621509
-0.03232155192094767
-0.020732454685228736
-0.12167285637746626
-0.027622581917141877
0.028827901850130257
-0.0032664615080005657
0.005856278044518469
-0.013470709439193798
0.06239163862543009
0.08565638385046138
-0.029733473122534368
-0.018448537902976476
-0.004652953625136561
0.027739298082372504
0.08551327717686782
-0.022285266776005397
-0.028790496461652212
-0.0048578106752283695
0.039690619620652935
0.0634091494096778
0.021888282307526014
0.07688460644243177
-0.0397310906452659
-0.08381479318004412
-0.008030057823372048
0.007012937531262365
-0.005480473385890802
-0.028014436478492753
0.015000163411944123
-0.028554315945721467
0.005593378777827525
0.0024972607055720212
-0.034866291867209694
-0.011611206939752363
0.012620736547434046
-0.0019031929686160018
0.012267278770775367
0.07365323543672078
-0.001732169753693572
-0.016072789116525925
-0.03577243741458387
0.06371248205437355
0.016997334968200155
-0.025470490392932643
0.02551989527142856
0.0013503344265291867
-0.019233992574841385
-0.009631436677742486
-0.020420785743910024
0.01823370739362381
-0.005836009156755151
-0.007453269773806352
-0.0018598371664182312
0.044440877209119704
0.12273787665663782
-0.007760456083466367
0.04216495469499563
0.02348946321208819
-0.015873308567132555
0.006707503387374665
-0.08028772776685565
-0.03607149544341457
0.011791667978748475
-0.060322533817609006
-0.05703896030657284
0.015060922896529822
-0.0074182434145216814
-0.004267870229532985
-0.016782375861728226
0.02423884249111809
0.009137381595121964
-0.004070313320442783
-0.006196180091846765
-0.05648498745934113
-0.02638159460183003
-0.0027326051694501127
-0.028067112934996422
-0.015862102936043405
0.04105431295100983
0.041125262856765946
-0.011153080620745947
-4.813928064269023e-05
0.026868938437300604
0.004161050752991202
0.008760601371832414
0.027848079257822594
-0.04003178213635177
0.0178754557189785
-0.0034360460352218843
0.029718972215987984
0.050299642189576936
-0.008546013479952782
0.007053641869171896
0.005565524797381834
0.018380548686908103
-0.043360485718391246
-0.08594463736090659
-0.0009395445890449506
-0.015693171920915024
0.006384223937554082
-0.0043734793292591854
0.02826732747981536
-0.021914727830949214
-0.023328999436696075
-0.010691649609919182
-0.01581351918465759
-0.022529006569167884
0.05280792273969741
-0.05576632692943829
-0.007731215398912436
0.025412932632544107
-0.012811782529831702
-0.013852103279088222
0.008421212316945903
0.09426730589300765
0.03952999024039891
-0.0031229412258310992
-0.035756955868158226
0.008581190493160255
0.018586744376297266
0.01537407360548513
0.009275582872791956
0.031744449781504154
0.03537426738318004
-0.022453841670253764
-0.008244810500283282
0.021154542790006257
0.00805256313234235
-0.01521309255690868
0.02338951480561599
-0.11364543661816737
-0.037626105465078344
-0.03326280935567134
-0.05124427117438311
0.028985932168646342
0.023307614559551038
-0.011467506386860067
-0.025364038777467787
-0.03352585565291227
-0.003715407854803589
0.016679956113203397
0.0034292582349905554
-0.039608945426874445
0.15492772333103016
0.04169372904128944
-0.02071543023211422
0.07343637976386583
0.057349039292389326
0.009819580125978666
-0.0029904956608826044
-0.016602171405803626
0.07145271459989062
0.05712756156476565
-0.06619769694158822
-0.03172954604280353
-0.11054333412331556
-0.015773637832135035
-0.013134404818533571
-0.0299760787012107
0.008736696577091639
-0.019848658647978128
-0.040102462998370225
0.009399556370760878
-0.016636466549350887
0.044276116332825695
0.045152144318702854
0.009810724325667344
-0.0024607117208404004
-0.06827903915884805
-0.10625526762053931
0.07759096239921419
0.20723560908441008
-0.020949755279097558
0.008987856876555247
-0.03057852392126384
0.02456723328724835
-0.042149131700474816
-0.021284829904187383
0.013170782945035452
0.04205300892737064
0.018371951238877766
0.00885786078621399
-0.012632637312935461
0.00012212604920049244
0.004516174599976226
-0.013547904648456304
-0.01397458894437672
0.02351702245187536
0.007039536510041265
-0.051586923017797846
-0.025574676391066982
0.0007071656132743987
-0.03035595038300505
0.03674721514316046
-0.020805949327154568
-0.05265173196840659
0.004678989285711338
-0.023428534485883747
-0.03866564775088204
-0.04270740797209976
-0.165866177941887
-0.021105389061993947
0.03723964655920492
0.056547143070060445
0.026961929683410848
-0.009865343233937217
-0.004955443688885732
0.0010410313829685891
-0.002825353084074203
0.037592202790496645
0.07611384228492421
-0.0037948744638004474
-0.034676321140945716
-0.034386600820150194
0.039791174721944864
0.023741232670985147
-0.03084712160341524
0.012737670719165003
-0.009934037377706238
0.03166632648007524
0.013459757037892074
-0.012424806523342982
0.0085834072965929
-0.019899457699932566
-0.005141095568444388
-0.007550797850125649
-0.01983837395947822
0.03295090479138722
0.02887130929989612
-0.020661431246762868
-0.030775186150646762
0.006819434657337473
0.020078428862600473
0.12521965260551232
0.10792275613312771
-0.039735252349066226
0.0596520558510047
0.026263562946537623
-0.03227576385456748
0.0077133930337762524
0.01920006990726263
-0.028324200115740137
-0.010211282811421816
-0.024030679914897813
0.07874546436563334
0.050897291952169174
-0.027749705219653444
0.013397526977639867
0.015284146590622605
0.006072046177852655
-0.12207950321666707
-0.07049891014345373
-0.01334439308936307
0.006589348863517356
0.055986872165113784
-0.014138914024195311
-0.027493504095270745
-0.12674132756968343
-0.022826663581540757
-0.0078112790359472495
-0.04280704907488049
0.08522474713784872
0.02681745037383523
-0.026021907293800245
-0.008405986878496103
0.013898929217730309
-0.08363022607950894
-0.010594689696544705
0.0029666563828794766
-0.013326906845528851
-0.05939910008961401
-0.0360595454614312
0.041635995835483365
0.007210723787798947
0.12430826571734006
-0.003032388913170327
0.10704336489658385
0.08065956820628775
0.01692177198385309
0.03676890922967766
-0.0071627252369512355
0.025869178254903286
0.002269378701988823
-0.02603551963016628
-0.006523483619621426
-0.05441011133650103
-0.1322999354722595
0.005162312756560002
0.046670432160544874
0.03477009334222624
-0.025716389133548147
0.060617979087747
0.03823408991356933
0.007207783582493388
-0.11023577083437258
-0.03832528698259622
-0.020561100798433648
0.0035645312967758145
-0.05059753758200082
-0.01702310385195567
-0.023898041652919148
0.0007391336130920522
-0.0006846386268591042
-0.021071164348629115
-0.0073373559635911455
0.010722391626742248
0.03504217825297386
-0.011964338884460461
0.05076655948916585
0.01651168333127791
-0.01745138823276999
-0.01810000210706683
-0.0032278464016597844
0.03235204636034454
0.05732682429549638
0.008632962664511887
-0.0056458366938104895
0.020206183179610114
-0.006255358807197323
-0.015469342139710192
0.0015275003565225595
-0.007350888736318492
-0.031559657149803994
0.0004411965276366428
0.01307233715632598
-0.03126724283870034
-0.04638361521011267
0.04447126173958283
0.01155143880143336
-0.020193372443900966
-0.015581258811904563
0.002712369350412928
-0.030936461791003414
-0.06156114678423632
0.014617508619803262
0.17324383958359899
0.07741631730989809
-0.043114109542041965
0.037163750058803485
0.009916954960153332
-0.012615559773111257
0.026701172987923585
0.03357821083046781
0.013437437956790066
0.07075376625494824
0.06789594719638732
-0.0019325722882327417
-0.16135928613658282
-0.008699614031923191
-0.0439850800299842
-0.006213432286392087
0.03267096949033849
0.0020484431632373018
-0.04377033356934973
0.046437413542976806
-0.02286396087648575
-0.024858937591799087
-0.06308607039419452
-0.05804551353978862
0.0513218410798256
0.05096814957402321
0.013448178771503548
0.03910818840356793
0.024657026891986056
-0.011312118349779009
0.0460571399244025
-0.17002296479629997
-0.15536781917577636
0.03817476648024218
0.02867908034491912
0.013740824081172892
0.018808532451929816
0.02660658485316489
-0.009040827120675358
0.018278177757348676
-0.023413061501906085
-0.008300843522776574
-0.016380666793451095
0.0023535950865903833
-0.012056748375662734
-0.010762380848060887
-0.019221165204088345
-0.04589494221849443
0.023760515486115803
0.04052453645764009
-0.010356366301399444
0.01836818958813204
-0.04691104435859375
-0.023914642571702577
0.01360455830236743
-0.020668815409921625
0.024163164573962594
0.06048123965229582
-0.025499316265459784
-0.0005295594953195007
-0.007402864211838376
0.05234724932696119
0.02742296493591415
0.01680282951671375
0.054008041996812736
-0.014581145075386274
0.0077538056865689275
-0.007539326995701723
-0.03719205093782641
-0.0036980597713435074
-0.028839102242467288
0.002328631058231947
0.004526030663069202
-0.013368909396285742
0.049848747188681194
0.011399412107736463
0.022645987742711024
0.013174653424856287
0.0012581503034304164
-0.0024094364690738566
-0.025800981975876748
-0.04494588410535847
-0.026445418786947443
0.015235495260232879
0.04337007263276028
0.021181706558081215
0.016358455498922758
-0.008015411081071424
-0.030205726796922242
0.027927282924840608
-0.008394526957051923
0.02251197318290204
0.06332157471558321
-0.0652632638768715
-0.020343696714479345
0.014955003130917573
-0.012414765999560465
-0.02257765247728883
-0.0025092072927804334
-0.003859709721213895
-0.042170942507825104
0.09463531860816109
0.057848016894739965
-0.04046973033331884
-0.005064793986974
-0.0008346608518108495
0.04264318809310782
-0.011461485265052003
0.0034406912359309116
-0.019624641525125646
-0.06519685537723009
-0.03846664414733818
0.0031614170552708098
0.0001255250814816127
-0.0031320853556748825
-0.02541779542571901
-0.018196949916311576
-0.011678388054429013
-0.01979335873825334
-0.023227222193664104
-0.012455941427370961
-0.02096405948351019
0.0384063186462111
0.08181358929058041
0.018375508127294275
0.0070479149333625025
-0.031158226093322097
0.03293750945425643
0.007570205357274644
-0.02455112411380554
-0.0029578605070065614
0.13742496902758994
-0.05449834142924764
-0.03780503764922309
-0.007338409919943229
-0.003639994346745371
0.011670649226832575
-0.036308866624922116
0.014601319059737626
0.017049042089867145
-0.017208603796766465
0.024997772626729114
0.04574504651732659
-0.04589958749419734
-0.04032266058220032
4.0365070700912055e-05
-0.01567559737467305
-0.0009823116936699813
0.0115419428827883
-0.04103725761766869
-0.07220704463249729
-0.01792362412435057
0.1185949884659961
0.11622593927959829
-0.027099903625255443
0.07487284513890917
0.015166359643599919
-0.006035025064727917
-0.02974855464292926
-0.0005879009602819094
-0.015779989872253902
0.018603445603385456
-0.008930015419751306
-0.009651091196724327
0.011604566837238183
0.05237809283982421
-0.06318788217667073
-0.04067454179178721
-0.026175691554099115
-0.02546821928566257
0.023155385592851307
0.010624708848263728
-0.015267491510500789
-0.005491502036312936
-0.03746695282408806
0.01328444645489691
-0.0009930407512121
0.022227268221440073
-0.09140106762355904
-0.10905309206280266
-0.005565613896397103
0.010936963230942644
0.04812448615270364
-0.012487649819107875
0.03464627117555091
0.011246190656172095
0.01461586759602329
0.002989664855660554
-0.026234415284103647
0.06540347605642217
0.18153462480324467
-0.06120725117002506
-0.030331159674552233
-0.005835214034270733
-0.006763231728390068
0.018281884029469883
-0.00933499732052343
0.08414126700396825
0.00978214729507166
-0.0338757451389142
0.02275426972766105
0.0030577904724904408
0.005894800959905426
-0.016972480683330505
0.033257069380895024
-0.04440517530585275
-0.05683445625326489
-0.019476852689683834
-0.0002162391448601084
-0.014447510382630499
-0.11972009006331921
-0.021142728898030972
-0.003440413395921032
-0.005463660155581228
-0.03853122844908303
0.0038121094528504175
-0.03288646809616591
-0.029535299116662587
0.0010835125623449469
-0.026231525385388352
0.03205487702544131
0.03520488703328164
0.047361693860264016
0.132837574621748
-0.0008860271352365823
-0.009521839620926602
0.05570056366781709
-0.005845876607461394
0.015224666457614803
0.03388831963147484
0.02594718505037892
0.0008219114372123353
0.025114927808628916
-0.021752361579829255
-0.05230240864178417
-0.04719012632904388
0.12011352846338123
0.06139974590443883
-0.04319437669043105
0.007848275994451922
0.00923955106214372
0.015494055459040776
-0.03504133880592971
-0.0060827742247270096
0.02381903582561026
0.03156285255096056
-0.017366803513834666
0.031236390145033634
-0.158121703709833
-0.0824378664386492
0.019665514641905902
-0.03011357009406516
0.003654917432679178
0.011603027865571216
-0.007925882645307518
0.035327424050036096
0.006218763164890557
-0.0038361462899036
-0.00791570215934764
0.013401044220239754
-0.01699240184094714
-0.03571068015247312
-0.1004267315800872
-0.0014178212965932063
0.053074002084616934
-0.02969016626174382
