0
-0.01606368286462434
0.0019138084159240985
0.04784425814911296
0.029502420344898767
-0.046794737505045904
-0.05003223219033803
0.0423442752709032
0.03102502268950752
-0.00010366812595843511
-0.024290722522720798
0.015526079994090803
0.0036722284206792627
0.05410300793483631
0.03997330168976494
-0.014447160303829485
-0.007593028170650362
-0.012628324734879874
0.03269366144722802
-0.02443236464362354
-0.010436773553452725
0.013449443047336536
0.016314724074224407
0.011904397502855043
-0.014208038552310788
0.00065074475033496
0.07344445922216691
-0.0178315725296073
-0.03634283265271969
0.002548321203160967
0.03036138523476994
0.01551229812206924
0.010956940922903865
-0.028128954470585752
0.05407861565378784
-0.04375118805856442
0.0044880336031387245
-0.04015276475615641
-0.013802292569351659
0.023550071395890087
-0.00478391402687833
0.020770613087749547
-0.005952066102925554
-0.011269707316057012
-0.023166656732736563
0.01929134633176469
0.0021444814373601313
-0.011214246790301715
-0.05860790741755915
-0.006193567592872434
-0.0358935523211264
0.07260324694566772
-0.04793792003414057
-0.058794197114128026
-0.010736391530900008
0.008839034985065374
0.009929680495916778
0.006028464135100329
-0.02655476692192606
-0.011604812432779246
-0.0091169425724308
0.12027123051256663
-0.06520718904183538
-0.11484206158101018
0.023546323737646337
-0.004852310518354865
-0.0010882622959863155
0.000529432644338053
-0.003704734585946575
-0.020155685809856987
-0.010318909659006238
-0.027183025000833007
0.0041632348454989235
-0.0011737741355398565
0.0063016012044735835
-0.010620352443198334
-0.03326464225276528
0.10300517963111408
0.04923371081884176
-0.01713770546904438
0.047627790921332715
0.008408316897743974
-0.015074676318514932
-0.015172246166313609
0.042176088655985995
0.016975978506935805
0.00350446213540912
0.02432805503952072
-0.026617086550663187
0.012792790264501192
0.043514084737188354
0.06409044734217308
0.0717946740426388
-0.017551599037434574
0.00894252445928161
-0.027590347649679058
-0.016369127826560192
-0.024922957807029224
0.03975672355513833
0.05896568950135561
-0.04288227321208728
-0.013467025570243596
0.021151492359138272
-0.003218906024933048
-0.007081042392118648
-0.004699795398522463
-0.015939851680770195
0.02780469694134019
0.037338832644489145
-0.002164808114000137
0.010901036814535742
-0.07463134589754561
-0.14082028983096637
0.05059603242090876
0.060843143548962926
0.00140837067920331
-0.015290658500391003
0.022957900700126238
-0.04684298506455222
-0.06202987329689514
-0.010084486207989221
-0.029499490313616105
0.039953838508656844
-0.024654852217598798
0.0283351624563711
-0.0004860988137533858
0.031183292896985834
0.0020210204689673425
-0.10851717223178961
-0.15768678314715087
-0.057006695640786545
-0.012422893961079023
-0.016600643642744634
-0.05695044769356251
0.08835095775807271
0.1169687732641393
-0.028189441625913067
0.05801826181938786
0.021082835373407265
0.009221099565984676
0.010673679133548416
0.026512486697808316
-0.0011815036600177505
0.015316443974243475
-0.03917591771197831
-0.03853689955819693
-0.023763145939008544
0.03758496015718089
0.02647128177227311
0.005094882939846973
0.005461536844217551
-0.0002108404340037259
-0.09282135041299457
0.07300714983264546
0.08593505763189282
-0.030752716510172712
0.05364678925086865
-0.002201547776836794
0.01714256214406765
-0.07540360782611683
0.08927315440561666
0.05502199805635255
-0.047834410669178345
-0.0015824985266854983
-0.017796181091061868
0.00982840178610937
0.04672021687863207
-0.014508922356644596
-0.06549724842315581
-0.08729719969240371
0.05631285632155619
0.05385524983701016
-0.014499808587013432
0.03547240015572984
0.06948131398742871
-0.015970956631483398
-0.035495439219273256
0.00485668443747601
0.015609049224733175
0.035826044389458175
0.035730739175005306
0.015410600059595965
0.013729781009475252
-0.019069272191221415
-0.021069305072106848
-0.07083950749164862
-0.034706307881748694
0.0005956024766107261
-0.022154202027742823
-0.037375934685169816
-0.02806562190981437
0.0166681884448372
-0.025129673438623882
0.0036142663229727996
0.04265744145491326
-0.004660614291631531
0.011870622375452642
0.03018101885648844
-0.00516600888068573
-0.03130002447823489
-0.035726451044075985
0.01778156240716232
0.016700187004540557
-0.02685833052680202
-0.056370863439419334
0.011788128614987434
-0.03341106591319671
0.08640346693919468
0.07753894483772777
-0.016245033210702566
-0.00521953117090572
0.002725198883737697
0.01902021158542794
-0.07612046679445704
-0.06690878820264731
0.01029204376583452
0.036697970944775365
0.0018911141386842487
-0.0204455378457747
-0.0034405415013265012
0.019769784820262485
0.006031955730711036
0.005134480634912875
-0.009188889797976014
0.011444236165645206
-0.0013592943988779303
0.019952454737405916
0.024288302046522794
-0.014610761054639126
0.031080801577357715
0.014093633334935749
0.002262776356342163
-0.051305720392024176
0.023896026828329225
0.0027228582083665
-0.02120675425062011
0.0008044113265432369
0.026575543581631014
0.06171429508852332
0.012528799869511307
-0.010670505547401258
-0.002084881330057122
0.024842236102685204
-0.02984913775147052
-0.021025379600104206
-0.0028974057186643147
0.001446823395435125
-0.006222954897153741
0.02494558521968596
-0.10225955426859266
-0.0797756497363216
0.00763882931179673
-0.009662536368994229
0.05493575932884038
-0.030608592454888377
-0.017438429356410417
0.02404076042651771
0.06695142835833454
-0.0057166826849094545
0.01308059299423144
-0.0031515597808122716
-0.006763873180034031
0.011552651886800913
-0.050837721901808366
-0.004458799061132008
0.03272367767529119
0.02215774572613384
-0.009330253008542308
-0.047760695948456756
-0.014556864493051852
-0.007868980744862506
-0.00011888606458398749
0.024270029686335924
0.03432540946953015
0.016402183857252842
-0.02433637347449816
-0.013021705594604804
0.007132952435604407
0.014805937270637665
-0.0017860844366885784
0.009184830792361964
0.018602457003227192
0.016830244558913535
-0.014280946873176503
0.013024698051830753
-0.06647402138164805
-0.01189213869305513
0.09954894214932966
0.10547181499186492
-0.006724591963082894
-0.03433257029286532
-0.003111838735805305
-0.022557920982347584
0.004502297008047288
-0.002021626231993988
-0.042056633861809196
0.004944138750162631
-0.008455350461743127
-0.024671185458020103
-0.026398162724699584
0.02244345175832433
0.006605271887100493
-0.0341341735392891
-0.008730946925283041
-0.014057554564134447
0.03927533343200674
-0.013793325351568266
-0.02107259246593989
0.009710486373161582
-0.018038103926563676
-0.012578135734841124
-0.009129739434891062
0.004208473377036163
-0.07501863828604476
-0.039966180524918835
0.07074223703264032
0.04694850557132754
0.008501068246904638
0.0220472464360306
-0.002233222510603203
0.008609980304447647
-0.008116408490589139
-0.0022351334740928685
-0.017014264980061037
-0.018529979124120997
-0.0827791511248666
0.013884690473980978
0.0985881931601125
-0.010020640871489947
-0.0010100016214421386
-0.0050978244788302506
0.040965197688368406
0.014208257725424119
0.03720979506236719
-0.013919587397246243
-0.0038299469254819292
-0.006181130682234693
0.036018442529418424
0.04616046975849202
0.039867563041564864
-0.04396022363770767
-0.00595844608892005
0.07363172696472767
0.012669548726840816
0.0051810117309580815
-0.01065665613627846
0.010659763505097978
0.010493603642417066
-0.050857808771127846
-0.03529876866896518
0.034895697766997615
0.00876838627826599
-0.0018353606153722506
-0.0922077945518739
-0.017299336534908918
-0.004425331069352113
-0.00312268485964023
0.003794194851833277
0.07278333552932792
-0.1525596291624864
-0.0983297534324402
-0.0047320122695840685
0.0034873176884389055
0.028648655396493892
-0.01422923860896742
0.06389734682266622
0.05191000082964485
-0.012597323607218294
0.0037513712474947563
-0.051921533709020425
0.049674378305878654
0.023481155559710875
-0.0406945670335065
-0.04091175825295811
0.011970558359230674
-0.025255136838903035
0.0016543828866970394
0.011765446682528281
0.04854045741282554
0.024610540807474525
-0.0034123929867187356
-0.00920540581695409
-0.02597507613071736
0.037301767974947844
0.0030605900484740357
0.0003529327601943198
0.03048201345451937
-0.03235132794975498
0.031124464533053862
0.06277441439472999
0.0043595796445155864
-0.020882823000567576
-0.03292883351015568
0.018598940884462883
-0.007252574524532212
-0.027496662929056524
-0.02538596383482424
-0.021785395031375315
-0.0750155120699645
0.03372074162639661
0.005123861670252664
-0.029787202561563354
-0.03646297135169256
-0.01313818342829786
-0.019369497399387068
-0.0262481340022755
-0.027819316348385553
-0.027208370191526922
0.004798176637454758
0.07878926580781823
0.12115593288246213
-0.0007174268820740655
-0.0048417076585587585
0.06443303561365199
0.007915564963436492
-0.050325162348192044
0.011648929223533841
-0.008219098755465027
0.0353209481303928
-0.00476512871767099
0.05162265908434769
0.15527880671050398
-0.005414998707537345
-0.019961727787130377
-0.031147052455496708
-0.07500346673028001
-0.030105884834982104
0.02399353755536206
0.016466094265908275
-0.024437604604445568
0.009099922437656371
0.011192213425456923
-0.011829339454867239
0.00773610083500224
-0.004261318972845074
0.02498241454632108
-0.027295804660671847
-0.02654067555942523
-0.0172387809440383
0.02559933051511243
-0.002480019876615379
-0.08154448782879532
0.013584520335433326
0.03153808375367525
-0.02761221760219878
0.04370385858380397
-0.009342212921230232
0.015873012094707012
0.02770987927808235
-0.057676788196819345
-0.04963393423824639
-0.048799677622044686
-0.010230853185467579
-0.010274791922854689
0.004520139008078282
0.08227784270312177
0.0051304492192429585
0.0468289212841764
-0.004374196770482486
-0.024688493107505267
-0.013006461365559684
0.00010474764361495019
0.011928903171590014
-0.0036927481245972523
-0.03663016692140542
0.029123779597873687
0.01694868058081445
-0.030511333026688656
-0.012456973359392711
-0.00410554748853771
-0.04583664017331227
0.006388148976223153
0.023856735683726222
-0.04174526566606527
0.013756811746216055
0.018987488548601716
0.009476886353615837
0.07374880118262317
0.030486783248922834
-0.009644810063553192
-0.05742824427214265
-0.011669555195350132
0.018529163597517165
-0.0055036806645386285
-0.006804488127493663
0.027033991403406312
-0.025624645863194396
0.017785038584773132
0.006986030996228414
0.027530977542256568
-0.0005281571243420562
-0.02834109877496642
0.03798642216327366
0.009632795084763855
-0.013701989687122204
-0.014213961281339782
0.04648733216051137
0.015584688966923941
-0.014985187559571246
-0.04138240949391102
-0.02706451957094003
-0.03366897187686878
-0.013769575528951701
0.005965315747238395
-0.00023222433216867766
0.02185782999465212
0.022225855768501678
0.01950291859343644
0.028644610499450805
-0.010286621380187317
-0.011139558410187511
0.016896796895403365
-0.0013182866998439943
-0.005795750350918745
-0.003938943523206232
-0.004371503428296989
-0.0001989738772831243
-0.0200701881747624
-2.0875251358464505e-05
0.022937563905291534
0.01103710574079204
0.013027433252558354
-0.004658516219279293
-0.006758813952009834
-0.03299862437873356
-0.014605429323930703
-0.014640934756064787
-0.005082448383809281
-0.06330440295299074
-0.02415017296147438
0.02431794206605695
0.03705502949747811
0.027653032896064383
0.003248167610075418
-0.00491382786056394
0.019296707790813942
0.03050736597156587
-0.04273047991653219
-0.0006237314805753862
-0.02375513718893862
0.010773406947906324
0.002724605263963728
-0.010855899449118352
0.010835704820537726
-0.05247818197524565
-0.022424923124388024
-0.014033043324998268
-0.001410059917882641
0.006772190359174705
-0.002336820748784416
-0.005583156868000276
-0.0025198023631602426
0.06095405931570087
0.09094332597820474
0.012810168612956044
-0.07931418593146232
0.0017787564497059715
-0.01691829642516828
-0.040250153583121055
0.0506124476366215
0.04039958148126381
-0.041051648105078525
0.09269692417009291
0.061764474439373815
0.004035639305593912
-0.01520031144089644
-0.028572461573113245
0.004252655319019061
-0.020797604589110095
0.012104761833998778
-0.011380731137850226
0.005148742962218544
-0.0080126574961175
-0.021983276819799103
-0.006242545487083382
0.03257233367000164
0.01969330168586583
-0.011519281784255432
-0.039914444672444156
0.019014833312024092
-0.034317775868715664
-0.050006986381844316
0.0285029532583688
0.016111828998197637
-0.0362211083677914
-0.08919455263924381
-0.04330771853705958
-0.0047364565740527845
-0.021880661803493625
0.029805973011334655
0.022734087676500966
-0.015933011963351104
0.05999919762386658
0.15021797330045986
-0.042338001718947374
-0.03376540521027423
-0.03125664030839763
-0.01889563464379792
-0.004529711886268615
0.02903202015502509
0.02475379040973754
8.46859189657105e-05
-0.027204188605484198
0.003929625197282505
0.08092819468462235
0.014066300950342208
-0.029661709562027985
0.11758519783677847
0.04601253944568051
-0.0006029542538912024
-0.02389719679838898
-0.011485264270237053
-0.03664695011408826
-0.06942444253157619
-0.09142103756636538
-0.044972261451295736
-0.02732670946712663
0.053210698673932466
0.04265722612721668
0.0030580215633803517
-0.016032195381525834
0.05822857784428819
0.11690498631792293
-0.012264267072003295
0.0180185127840611
0.025336227038708276
0.026945653236069938
-0.026746689433921257
-0.04190612609088669
-0.02617177142361089
0.002733132086884194
-0.01586146484912736
-0.04475740792096006
-0.008976868093008017
0.006302756610400533
0.024342709642714393
-0.08181158446205142
-0.035290081805481065
-0.041740162346403674
-0.021401529120215063
0.04546891841844359
0.0038757335574034265
-0.026272567452905064
-0.031983522120506765
0.035723416601081116
0.02402950153956252
0.047180428566005336
-0.006177254328669617
0.012230007783399763
0.020661978269035316
-0.007866762552411278
-0.04277321890558852
0.01399844471455739
-0.008108713542026037
0.020197284131347394
-0.01330817534117243
-0.007991921964460106
0.0027612421128257584
0.002410425659015275
0.005678903417560318
-0.07179079253479273
0.015546469628894988
-0.02915833254241068
-0.01720340406233874
-0.009048993916841701
-0.039703161737870654
0.0043401162427813625
0.0010484389349929809
-0.029416369731760254
-0.01841039390350169
0.052475783730104246
-0.0017540331734460246
0.019645185268749015
0.09699221000035957
0.006152347638115964
0.14417905287944652
0.07840480546758531
-0.028271640338763834
-0.023080295527845313
-0.0017036051380657088
-0.023692683014906717
-0.015199044419018749
-0.015937008647103436
-0.009900204150330735
0.003950340947509117
0.0030380702651207803
-0.020730391439936192
-0.029894319179877234
0.00446292670763007
-0.03407354865319164
-0.027869636624727714
0.046884099569474265
0.025017578898110966
-0.007787587626561891
0.010854270023014603
0.03261960813433654
0.03224423905791676
0.01981068628576549
-0.025961976373386954
-0.03429599467571297
0.0024661178304640746
-0.005071342150877238
0.01491062653830381
-0.02427588035679031
0.00889716729125875
-0.04401541749637792
-0.05801116778964629
0.004100662775529907
-0.007599670124910216
-0.0006016792474002802
0.009514004192412969
-0.014474751902821178
-0.020895149827117692
0.02979630829211941
0.006861378690804517
0.02933167250406476
0.020776929061110224
-0.04340602851582245
-0.01962109549327811
0.021794599422903987
-0.07256199768695927
-0.01616106622254428
0.002464045682008079
-0.027499003525548692
-0.014897260364212241
0.039725321761489775
-0.001563471966749792
-0.01142486815298422
-0.03166113075759968
-0.031466120389330145
0.062245385017313325
-0.01468296046689435
0.007564866091275711
0.02112237408523625
0.06793615094317752
0.03860555301081214
0.013056454377716681
0.03181972957990349
0.003613732111272516
-0.03337994029060795
0.031076150953774376
0.102903224302569
-0.004013236277947266
-0.02201938589348316
-0.03971745474526855
-0.0423132123667399
-0.011024066920669404
0.0024446325012676753
0.06084713239378271
0.03305019340224878
0.005639472563647155
-0.00872953983899391
-0.051517674971245715
0.00047402219213007796
-0.060735570393308055
-0.004620958801360424
-0.01826093073052243
0.04173310122159884
0.03690097493220373
0.01392857454185471
-0.09256750679531973
-0.05197013026017736
0.012107701594017656
-0.02694997803055708
0.08528370576063986
0.0336703489372738
0.013101726992638616
0.023084143426527693
0.016808770782264826
0.09473739784108878
-0.028774059052516038
0.052044007918254004
0.06657151906815444
-0.08342771176890453
0.015113633625995142
-0.012947947459310697
-0.033078504481950474
0.005353990346636582
-0.03422268197762136
-0.07335910216626075
0.008519568902855594
-0.03305188635207145
0.0076293032596944635
0.02550596938106005
-0.0019216718884308504
-0.035223704705802286
-0.010814259223513735
0.00320088229111075
-0.04025333496929888
-0.010099974790616844
0.02174689504162942
-0.07357939615182245
-0.058519767135088004
0.0077554668648881974
-0.09041197804661753
-0.017022968523257364
-0.023359195606180685
-0.004354510228507527
-0.02875958486420946
0.03896128243216943
0.10607243136539078
0.0019225543469256457
0.027124690244571797
-0.0011050729438182064
0.008993586228960786
0.020624185162945487
0.02123852187151211
0.024707882372350914
0.04064921407597386
-0.030771583959738436
0.03880512940148389
0.009179388786551767
-0.01538557680176144
-0.04157147247040438
0.00605727901889598
0.06216678615315215
0.0016143749590860866
0.03526444325247048
0.0198053234991966
0.019169980048665877
0.03145987868905688
-0.005965995639611841
0.03523145796154056
-0.008487287273777688
0.021509847540308526
-0.0015838818688599515
-0.0025526930615299703
0.06055075359259023
-0.04194187122563348
-0.05116414476722471
0.024598171351042607
-0.014639537880150356
0.0037117804670957428
0.03228815082867212
-0.018367715016605005
-0.0009208344567772377
-0.07632096461884583
-0.035630450600047874
-0.013328573785487768
-0.02191176888123944
-0.049318652551742476
-0.033066365821891985
0.024988350936012992
0.01829665899647768
-0.014474749575864598
-0.01384286939916963
0.01204660034370641
-0.02040177093592887
-0.0008459767126552543
-0.0067254111973452805
-0.01038349850283696
-0.01923012427186916
0.005448629394184826
-0.02976587228601326
-0.028735706900765875
-0.008155175818885058
0.006178675495246111
-0.002181437925874797
0.023485362062150468
-0.019086133100896255
-0.015435156417861601
-0.028258458521590875
0.0722600944692573
0.05015771531161007
-0.0808335062311863
0.013632365988182705
0.007812807110108337
-0.011026602897898133
0.02611426458433934
0.05113464640318406
0.04839306673883199
0.0078607637509647
0.0011308990469831237
0.043810836841682174
0.030211142557953142
-0.07043536539682727
-0.0494931017728527
0.06014912848068454
0.022125080266578046
-0.01827554017596794
0.025261246519239677
0.019602485041988454
-0.01557169509608367
-0.02398280325029909
0.026973651408147142
0.007914346793779822
0.019562180970218005
0.04545705778863068
0.020263540702453856
-0.005097065101279555
-0.027248884776438987
-0.04163718903956034
-0.027303801777615225
-0.017801379973144134
0.013727258252493267
-0.05454789780343249
-0.03214242591333219
0.02161950879749617
0.0007107793066314391
0.017974186131240768
-0.0022548288890525364
-0.004459084521574162
-0.01972188015111084
0.04121699431222819
0.014566545318240772
-0.009343824440097155
0.017853790822563817
-0.004041109652130913
0.009300189575000527
0.008304153168105222
0.03244212705999517
0.04406025072753716
-0.015986627387722146
0.02015481814537298
0.05907702789243391
-0.038071401713052906
0.0031386534111719567
-0.15789421176968726
-0.08511606515209279
0.005101659316852664
-0.052306160948415885
0.05419358088369416
0.09548485193423958
-0.030208393535772118
0.004990127018231144
0.025129312012637923
0.04275534469454064
0.026125166240979596
-0.018549840364310247
-0.014442336478199721
-0.010922808978122736
0.007908412622194641
0.01934062344611684
-0.010847271321224681
0.033191927281824525
-0.009284808739215309
0.05751018033728016
0.04253553644795147
-0.04074635026038424
0.024215517624529448
-0.011325289373676288
-0.0049430820183607865
0.020875987341021758
0.007734812991152872
0.010775348579279594
-0.017982556789920563
-0.0384941107888278
0.004117340932719185
-0.010149592076318124
-0.05820896324890775
0.018058396788592657
0.048444953920081926
0.010758023049024904
-0.13911599662322546
-0.04086426991802221
-0.05303386603229574
-0.05681392440076975
0.021454015718050303
-0.05033468049668969
0.015779757862760768
-0.025578778845915553
-0.001783425519100736
0.02183065605028244
0.027575993699588942
-0.011934468877057163
0.05543209517605356
-0.09674941707294372
0.07277862937473235
0.10200576850113248
-0.005888995955315616
-0.007720545947355341
-0.0076753717735420154
-0.0029146167266215594
0.005759812921453995
-0.0014148339832488726
-0.01800512462271888
0.02256620518355966
0.03585378415180898
0.010429080357776364
0.011105966534614662
0.006234080498073388
0.005278889050364346
-0.010007620698622054
-0.01565744667075247
0.010816218230514
-0.0052521485542874015
0.026788473085274635
0.04724310391364875
-0.039521905511917366
0.02734129399726576
0.0001868832887281187
-0.005210906600755164
-0.031114338576452585
-0.03461449378491089
-0.018639070206054625
0.008645354579558171
-0.01791807206320236
-0.0009655144735982146
0.007337611514514155
0.02031948449929297
0.05237058148948731
-0.006446577907002389
-0.012471242592540423
0.02319463302737903
-0.005817069779386836
0.04416412073317799
0.07920418378546078
-0.04460784186145521
-0.01307624754235792
0.03492048957092741
0.01879472268011038
0.0061697327711360194
-0.015016104180991958
-0.01143282908454636
-0.14678035105851897
-0.16665461860075814
-0.0062108829788596435
0.027625343803182035
0.00821048024384374
0.0021941924614233945
-0.018862242313458597
0.07919313506862535
0.1132295222129852
-0.06352654694466243
-0.013025619108665655
-0.015125742903978013
0.13535355302574728
-0.06086692883869725
-0.020755437261102072
0.021002857944617818
-0.007981102613783726
0.01774987325219084
0.04420278083035737
0.00046342933630576764
-0.11506332882117445
0.07246011864661854
-0.010809869471221412
-0.04753061979331658
0.009443985426890197
-0.0320100981318134
0.06385221151522284
0.06408589061892514
-0.0068543119164
0.008957437282149398
0.0021264931278675977
0.017348551582152254
-0.016919273042877613
-0.03736824602126698
-0.02055707872980582
-0.023174594554194388
0.0034690782220479013
-0.016063247433771393
-0.015108723975568575
-0.03387482217209663
-0.04502160038439134
-0.047711344172304194
0.019918044322770525
0.0015636359746313876
-0.023871624687227158
-0.029252216138148792
-0.003532973540009544
0.020670295313728403
0.05489948114575037
0.008191550176400367
0.006663248948245871
0.0010740872699984052
0.05632888946605226
0.005500378140315015
-0.04710369527486563
-0.022433533008703793
0.015668267402572357
0.037375829358688654
0.022190823768433277
0.14540113024293316
0.03411750940605237
0.011053755627315563
0.03956440610563224
-0.047295200188371835
0.005749874839140665
0.03994224362644901
-0.010843042766475523
0.0003749293776945146
0.01187752070078299
-0.03465328004362321
-0.010540943281963599
-0.04820907937769768
-0.1702937155819312
-0.044886724702445785
0.06722530402746432
0.0627642293512672
-0.013362346573672737
-0.005255375007502264
-0.003912723954010741
-0.0161235619233545
0.02307067149898106
0.03181216333096084
0.005343190046786549
0.013870630929579028
0.0193146012269302
0.016074858819396756
-0.01577927934229312
-0.02118200708410716
0.005230708691100291
0.016396008109346962
-0.023433097319901317
-0.024950333941036996
-0.030283129702213963
-0.04035752397177326
-0.030292329286219
-0.010853698179745958
0.059855569451290204
-0.0023710012684756846
0.023449842234788503
0.014837367509410285
0.011019904429523868
-0.01429390849877898
0.008061289132484904
-0.018698748730238524
-0.009566550230107522
-0.024499408893313722
-0.009718712367619753
8.291195130414648e-05
-0.007911884987553455
-0.002906638556190648
-0.01740751663445059
-0.015104078307579745
0.011372429479246939
0.005788180341214306
0.026210989256054952
0.04894502448041707
-0.020878477556650798
0.02155596290534224
0.03898151276137092
-0.008446051653945677
-0.0075191985109085676
0.007811165251963307
-0.017543412297270924
-0.023037629147614595
0.004576542136757545
0.0038466314595486852
-0.0038180804029616902
0.06834381426471102
-0.0008804896342865297
-0.04476264077772776
0.024572813017539684
0.028713042512246715
0.010772640801840557
-0.04382253173062695
0.011016320662081603
0.04750152946539349
-0.035444929537513596
0.017906330405960773
0.06699705680663742
0.00821678688008168
-0.035103932073756894
0.04269702306800118
0.014577492131521944
-0.026558397201341493
-0.06509754653009822
-0.044394469036761815
-0.003379443237284958
-0.012119927110024369
-0.00465797122058385
-0.0026022246983018527
0.015714730078370598
0.0012565179253176426
-0.01288902579934845
0.01435900473934078
0.013641499163060766
0.021155528730391043
0.027001261403513256
-0.008439276920318239
-0.20213565354672286
-0.05690294364411865
0.03900336755019824
0.0067712639088156265
-0.020427788284599537
-0.04572410468655351
-0.0016439203698829959
0.013394563991836054
0.006135140408732723
-0.014210074765143773
-0.0063060933058822575
-0.025570050524956953
0.05239292979234511
0.006492299177301037
-0.06043565188869835
0.026401448298938444
0.02200774670800113
0.0064899476838990635
0.04986702211484334
0.11505385126811662
0.05397279082601033
-0.008728906681620806
-0.041232629173673895
-0.07053547579944186
0.049662356467770424
-0.026379616995116262
0.010706476712372397
-0.017928206423643307
-0.00415588229646084
-0.021568901116155035
0.03097810409560944
0.02445469926855296
-0.009456807494252931
0.00509440006400827
0.041242858611089936
0.01604775045853944
0.00839764744630301
0.009914417861567023
-0.01315610341022219
-0.020733444217539646
0.00700341148312288
0.012816256857691328
-0.010929022704257501
-0.062010224927780896
0.020551445350974012
0.05308676840241994
-0.02226305997255917
0.01474320822206032
0.03401776812515586
0.04424868320767164
-0.04342078822834989
-0.00939791408996383
-0.009993187152537233
0.004279591187709163
0.0004897314569687351
0.03768346720810777
-0.023594660653336763
-0.004632063677517008
-0.011855860222182598
-0.0013517069953429574
0.029450793331390026
-0.023875305300056042
0.010527710650663533
0.001384864750725429
-0.0255660272609088
-0.009140118729068957
0.008392450348437717
0.00912501062402723
0.04727442878585329
0.014022370322426689
-0.010383668893427447
-0.006021977869088891
-0.029194861605879002
-0.00815089895312254
-0.014687799141922944
-0.024367031729905436
-0.0023445645666044968
-0.021758656292407783
0.016515816065903167
0.004163152585153163
0.045032186643832274
0.00030765846565313697
-0.00442445783868235
-0.01855315163405976
-0.02571756327116115
-0.029232547557966653
-0.05994978979675186
-0.020915698193939077
0.05012301267957584
0.14033824927525018
-0.0035829116741729825
-0.0040399962684074826
0.10540295743624285
-0.024125025726995427
-0.11547131252009867
-0.003966116322510982
-0.06419763298391472
0.014166358909743309
0.018443177403260583
0.024941814500116323
0.06837350477813514
-0.048301121472560604
-0.03915047796752372
-0.04158793872251883
0.010504045845245889
0.007130969830395147
0.024494090559014154
-0.00404849324243508
0.06512242950046529
0.019440081534475993
-0.010546660452058614
-0.09396308735117065
-0.10599493405451917
-0.007354674727343062
-0.04267952555461412
-0.011885225536029507
0.013460723918757914
0.01858339083997038
-0.006161807789916834
0.003378143199710135
0.025584748575692828
0.058468252134070746
0.01700038753895996
-0.012869050530928365
0.006243241332831561
-0.01954749266740967
0.006752455652493058
0.01858519916651768
0.0029366979363406017
-0.03396026097409915
-0.026062770320215055
-0.0020323494952645795
-0.005317178448076056
-0.029493661088081113
-0.009179875050764076
-0.008191405956708064
0.014246060770264012
0.014400418384258377
-0.0030753523138518624
-0.015541633458482921
0.012536300635067932
0.00902036840992932
0.008086767540413754
-0.015106397792881022
0.0851426549621755
0.020536364019019513
0.04701948446427116
0.14171052952475485
-0.008193589829706062
0.01406816304927866
0.0055737422872660205
-0.028490408983333163
-0.028236182676624283
0.012579662068637422
0.02953220458094908
0.032276123545039115
-0.0026113311097753717
-0.012137314766868528
-0.00518211150843967
-0.0030659569677128243
-0.00798622380147867
-0.06905957749937865
-0.06050616506942234
0.011545493112722544
0.035227005376150845
-0.02066468955292377
0.010553174971639968
-0.02556021300523496
-0.03802115024489016
-0.026065828672694785
0.00962502610783657
0.0072285939728467235
0.00847107773176398
0.0062974664666881576
-0.009017197290292666
-0.028713487519870576
-0.02713081110157381
-0.001492658962028074
0.005229492899379301
0.018304563220612104
0.003617773867748575
-0.018895128318764325
-0.02245850781853517
0.17940703070146719
0.012910842770737757
-0.008238944618933952
-0.004703790223743144
-0.024212307062514808
-0.005511326252531951
-0.02318317829057711
0.01724784849535231
-0.024034006806365554
-0.004691263561647145
-0.012160248169332376
0.0003924683573217282
-0.027573559329891105
0.003777272325823846
0.009019467707220678
-0.11033925104719944
-0.022699753119282882
0.021176680774324493
-0.03892579052905074
0.02785661622931736
-0.004262712433738165
0.005723016914722352
0.08072861416609921
0.015725369795382062
-0.052596091371487325
0.0038137723040170264
0.015294100225208001
0.01375823141536836
0.02378519512275792
0.013587232506339406
-0.014496806593807919
-0.03396454283721006
-0.020717150326639844
-0.014316944963039776
0.006974393105655224
0.022826311527180346
0.036738454703002715
0.03131644941393968
-0.008115617378564758
-0.03810089272608993
-0.0486345831010731
0.003881298736156885
0.0829181056898514
0.09341824019048954
0.040629043760315814
-0.06939135841522363
-0.02393892741786643
0.012290875086111548
0.012633731824394659
-0.026882694582932534
-0.021454754527896025
0.004852080736667257
-0.010723182664046873
-0.031429410863850184
-0.0019039194852798337
-0.033492270719549744
-0.013772824334762656
-0.009993480545100185
-0.07190384642194386
-0.005570996868729593
0.043541191291868314
0.03726361448580231
-0.004752980575924915
0.04768239284268096
0.017084980434057276
-0.005031976945729507
0.037015100356422095
0.01816194784122321
0.024843500707655314
-0.015584242662332224
-0.040137070314152444
-0.01624906533692196
0.010454729030149854
-7.466020575916648e-05
-0.0022638802283159462
0.026898528581629638
0.008964587885479802
-0.013012132863101088
0.030461730974077495
-0.024915432688441774
-0.0036695800971341805
-0.0038942707105358325
-0.034992518257530615
0.01084355895439802
-0.021420513401751173
0.00733664687041107
-0.003997510605031414
-0.040921890829692956
-0.003465040548412282
-0.006819218266947151
0.032498871260061096
-0.016683392401384455
-0.015946296412162556
-0.005477629255640846
0.010322633630998054
-0.03858800741073388
-0.023459409551846788
-0.04837163237399804
0.02710646293931036
0.17219945682385945
0.05833076758003523
-0.006296041457598245
0.046363927252037494
-0.020034589906778904
-0.10213481767463004
0.04607387406903357
-0.043397948014800965
-0.007337788102840806
-0.008167373379580432
0.035090664091626714
0.03756581274141915
-0.0031920433292125347
0.023589574632698576
-0.014740719707747884
-0.004048774084246814
-0.0036835792697364677
-0.01660065147644886
-0.04289092281155885
-0.009683923969260756
0.005246765416159711
0.0029932715465069318
0.01003963447540172
-0.012032918021431195
-0.016230340876288423
0.014701492349016815
0.01829333069336826
-0.03357857573160101
0.0066873295485071595
0.03193084855934189
0.009538041082183948
-0.00118784189146459
-0.021812769913083292
-0.018111953400247068
-0.03080333069617534
-0.0025540600267817135
0.0008111590223182882
-0.01520442604224354
0.0012780903306443213
-0.022842277366361362
0.01088475451117781
0.024916866545117124
-0.050066585449380675
-0.0030865242728864324
0.013104998768563986
0.027475947832977965
-0.0015317071861820056
