0
-0.018675072674890155
-0.06005971028000681
-0.05042782036029899
0.008732457577960942
-0.03427873438544027
-0.07354439635124915
-0.02953967501523939
-0.024639906649690537
0.037034858683001645
-0.006128144362070164
-0.02182974583329552
-0.015100677358560643
-0.02057421540695335
-0.040264330114700236
0.016355677939782716
0.014488332699314568
-0.027563183293369795
0.004995839684892208
-0.02935808569284214
-0.04375283906947873
-0.20313668943733276
-0.0328315501648197
-0.0035566845941890674
-0.015288001699584792
-0.018680006405492708
-0.01964506142990594
-0.07111124738765305
-0.033396891403129764
-0.02890002881481788
0.0635261304415475
0.031617808110500537
-0.024268786469796636
0.011624723135359573
0.07796327629210172
0.010054224517952058
0.018736516439422365
-0.019236664894469034
0.0016369241719677867
0.017585635547895207
-0.06168576306683766
-0.04704658579757225
-0.01580453123552621
0.03500406752751097
-0.058506038554450975
-0.0751606675168204
0.06679847120522679
-0.033516262195843895
-0.02258545395722322
-0.04419841185367588
0.06712394524093898
0.09434663735334901
0.04145214542166621
-0.019523715061432873
-0.04606556555859103
-0.005967428191436874
-0.051536003168046816
0.05686706870435846
0.04851486679697567
0.042481664528198605
0.02360686141235264
-0.017931182524487468
0.044324663887725387
0.03119008931845214
-0.023598368789943334
0.016749090741831528
0.028107252179843965
-0.00949755044677984
-0.00926843252671147
0.01950060490010481
0.011679654427706083
-0.0290334612342874
0.0016591470425666081
-0.003285308392673219
-0.0334764688303522
-0.016354444130244408
-0.031210593085690946
-0.057507183266629826
-0.0008139826146657501
0.08901986081543867
-0.0023312876464601133
-0.01271692478654623
-0.009282250113899588
-0.009859905827257105
0.035279094178200486
0.047060117302373985
0.008889983830038363
0.0170828510154041
-0.0038479662585316136
0.0037463946818337163
-0.03312544723375612
-0.02237901312860749
-0.010470711884520752
0.01155770292781957
-0.024220087141698054
0.0077067370789868994
0.10416307292250118
0.022229868280679504
-0.008323609115654064
-0.015620360884916704
-0.05903853536915721
-0.033289295993801454
-0.02019783116977025
0.02116705924084889
-0.0012864414147914578
-0.015768130969948668
-0.10955368439070241
-0.043426336875624146
0.02849146061517692
-0.05478529419538917
-0.1823031309516795
-0.15760100014628947
0.02333348161001677
-0.0016521361906069135
0.13338071448384073
0.05513351164471903
-0.022058639035910134
0.028212163610739215
-0.008107931035068672
-0.03217753075641919
0.009747783082539412
0.04061681968510299
0.0037829242353566587
-0.042907085247182244
0.07283388092536865
0.00561522420169136
0.062366671725647735
0.0646017360542939
-0.0018486804566087102
0.0007134507719751401
-0.04482436651297886
0.04251862490883454
0.18115847176461142
-0.0013233188486458543
0.005565436111484566
0.17827331680947758
0.07887692099836963
-0.02112428099889295
0.020234497460335996
-0.010885207818772556
-0.04484855228654559
-0.013273329780708939
0.0023640398900502397
-0.01818074370581286
-0.054209531375294474
-0.013780336977781785
-0.02932995307546971
-0.037008951741042885
-0.0057540954614905705
0.017851208430772918
-0.02305426519500682
-0.014871877433816471
-0.022466039130273473
-0.023725623858674067
-0.04754376548911038
-0.045756444994928674
0.01376282594787645
-0.012544992497310092
-0.022709735047700078
-0.019896321979864944
0.0030740933330935436
-0.05828601196839462
0.06031810307918968
0.07167400355054732
-0.06634046798330052
-0.029397581401844626
0.013755465974100383
0.007142989857737914
-0.05227698900554692
0.0785694312271363
0.05283119502380396
0.03803337329068621
-0.003798475669688474
-0.003827536950545068
0.04759635575402366
0.0007449639636257584
0.00048658918555094044
0.024587880731009832
-0.09096694587923988
0.039971843488207405
0.015578160777702839
-0.019327099942474925
-0.011971277970171255
0.014429968323472465
-0.014550974737212053
-0.008037315166662728
-0.020083876069538435
0.03292175551208675
-0.04301277371153742
-0.022262821094631402
0.0011335250537855021
0.10062630663325657
0.04955317132200255
-0.04170539498852579
-0.0626047276519835
-0.010642552699725012
-0.009419941512702278
-0.008124912188518746
-0.007232227804991315
-0.04744842226851182
-0.025793250878472344
0.006046633447387822
-0.00041230200741471736
-0.017510803844115772
0.0183837354826517
-0.003672995435176336
0.03478630309320864
-0.029137605934268094
-0.06105484348238325
0.014962783103186474
0.048759518736719604
0.06475081026736156
0.08064803232798122
-0.09472615752621488
0.010819987126478537
-0.012921781891155993
-0.004806197215591004
-0.04568049075831988
-0.002864084980838385
-0.026881412364015558
-0.016406491079571976
-0.0340980827623506
-0.003046136110880123
-0.051299747434548626
0.1651592422761712
0.23445517667064084
0.03802748347259521
-0.004252894614493154
-0.009169123153664102
-0.004612630584607904
-0.009403837510263462
-0.035244845009339214
-0.03062270908760465
-0.027583744564108763
0.002268597633105562
-0.017494346275624583
0.04311795308912007
0.028280950519825574
-0.015568736693944858
0.0020792879808424663
0.03181437000389091
0.04423959243387228
-0.004248424288017739
-0.016652844363466934
-0.04370438429846873
-0.02446551230506801
-0.001699830591099791
-0.007034795795118002
-0.01245057737649918
-0.007254345138196536
0.0375515381063321
-0.008050281764007456
0.035383330568223396
-0.16513742393656167
-0.20188429483175827
-0.01873538446117144
-0.03644112529701331
-0.0061751771337477624
-0.0027376650157922536
0.19788422813480142
-0.021785607845685697
-0.09762039084323045
0.062332380156315016
0.10026083016649352
0.02529684854155747
-0.23613839825687458
0.08994043564308193
0.11230204271230775
-0.03984632575497224
-0.0490379592022654
0.04607488003790692
0.11541983649340827
-0.059348547206011903
-0.010040331043270833
-0.029540324658376773
-0.05656261310616074
-0.024463478631370227
0.10548868360336908
0.08486932810507329
0.0072617500837583145
0.08112541008799805
-0.01319996195193261
-0.0068749109791340236
-0.03238183331843264
-0.012668260316013154
-0.003374009942959635
0.04593240499306657
-0.11859135136942743
-0.0869187072979206
0.060924125850823636
0.06928058771209486
-0.00909542231190771
-0.054523320666492535
0.0034147882997416046
-0.010138699395556316
-0.022873444956615262
-0.004824676837634617
0.02276738922723466
-0.03140651321600555
0.11062768962432702
0.05039018456037492
-0.08474715597888373
-0.04241384216998265
0.016231148376403496
0.07464414052362411
0.05586033998079995
-0.0010155734824763704
-0.003750481830971581
-0.04737465401883854
-0.06913056482245712
0.014394282276595836
0.02496107409538517
-0.01630175399515137
0.0018400568690867328
-0.019357730933067956
0.06784156674746268
0.012445657508699087
-0.051579485467054376
-0.01912935354756935
0.016207015654918906
0.0060338011096786595
-0.00015036215335572942
-0.00048605383849748945
-0.02717288424411481
0.02435067745522649
0.02038019334773957
-0.09535322095253344
-0.02285461126994368
0.004072284165303039
-0.00618215626530792
-0.0023510815756406507
0.012254415839418886
-0.0113506814029454
-0.017774474517453724
-0.0029716979920464998
-0.005713542169559859
0.021440721918030505
-0.00803651053008542
0.012926546248408806
0.013217839980107154
-0.02665906520673443
-0.01089153979774088
-0.024137276819417956
0.015194599953805637
0.046149381902012836
-0.0010669016601592227
-0.007824234065022551
0.003148252109255555
-0.028562051567275093
0.02555953488240484
-0.012300525925837316
-0.016539577557069137
-0.0038531273616431326
0.0024996961463486264
-0.023033916229911872
0.15864071697195256
0.0979480841327926
-0.07769748491587221
-0.03323056232133389
0.0021503091680184615
-0.010039630592365699
0.03791723474761543
0.08108969611229384
-0.028010079898179566
-0.0022728779061416053
-0.02815103762767912
0.02044601617553958
0.007393701111509664
-0.0009603974421398123
-0.0015622459710689155
-0.01609280739852727
-0.04818933158715971
0.020550792110559584
-0.010729694491477072
0.028136362952393735
0.105711110769973
-0.019453855071138917
-0.01580066554735374
0.02331489581645537
0.000739012909780001
-0.02533530208350014
0.011606500934809635
-0.006405656584193319
-0.00016390951310666843
-0.05019579932200963
-0.03718319126404762
0.025386705811378456
0.034785628580825276
0.002185399761765153
-0.008210988753249937
-0.0032416639683227394
0.02177652953553754
-0.017672551624577156
-0.029686506352770082
-0.01533422780532911
0.009673958876199004
-0.0007980571126981697
0.007531358658535332
0.01901529727494857
0.013168317370445388
-0.046307282707257945
-0.024767935889354963
0.016369307344325547
-0.04635976704251993
0.007635845683265299
0.03034515236916128
-0.020735376624548295
-0.0018617080093806114
-0.02157028413337935
-0.09053643162721454
-0.03334759822053054
-0.0015212012331118528
0.006695454249310978
-0.011840332974006489
0.003612081123599614
0.0278295644420856
-0.029958932800226035
0.0056256659415115234
0.03320743980230014
0.036602087935455135
0.017122421193441623
-0.02681639767804091
0.015343063523698564
0.015286746117986878
0.009522266080782167
-0.0022047667190417267
-0.014860516810283891
0.0033571136423504564
-0.01852138600731858
-0.0006606448024024446
-0.004468631156466039
0.016920701601931615
-0.050040402410680515
-0.12270911625089763
0.1117999371164131
0.026023767240005703
0.01716380063465777
0.031204418702700663
-0.06555795493146914
0.0019949429189088856
-0.02523967856114971
-0.007784911332023251
-0.02573852498735389
-0.011067685350030101
-0.016477877782434727
0.153723137533814
0.05950133944206155
-0.026865514052083282
0.017173435306988245
-0.022125731289770547
0.01110164716011354
0.052747611533095456
-0.012393380506737914
-0.1103110658825303
-0.035620905070879595
0.03709698396551151
0.030059436621626003
-0.10509756029839552
-0.004899441347563185
0.047365266985132486
0.01965441772067714
0.08752697928768802
0.02060397241507117
0.045988824389970415
-0.003044327696477695
0.06716603327084653
0.04800182150727578
-0.052328134723969015
-0.024213034706963614
-0.0300786429444061
-0.007768272915266652
-0.043372231462173415
-0.018485055856887516
-0.036146592859012255
-0.01990803319459928
-0.013197997935215432
0.03664231092343432
-0.08310142259308907
-0.12134795093901495
0.04094001177905685
-0.002016169921898659
-0.03600755458370382
0.04356799759121614
0.159332199686321
-0.03427038872706164
-0.027461842830543353
-0.012364322947144993
0.035170416332578266
-0.02104077750508483
-0.02512196064830536
-0.020047047010126322
0.06862086568811532
0.028263032909695833
0.0014211175330621404
-0.045482426668381905
-0.041414148021961285
-0.027190120652660292
0.011168634120364066
0.0015567496478339853
0.04423625766474682
-0.055969002137580465
0.2028827386373256
0.1453690472163101
-0.049842586809382215
0.013843419206187958
0.044433758030019664
-0.020783741842304845
0.0070786556510905605
0.03052690991362724
-0.044669799167272255
0.014021105966144597
-0.009040354531180407
-0.11726133577329559
0.008291779063211371
-0.0040905588876393485
0.006152986453374236
0.0031728702976039384
0.028715346844677803
0.0021118581263690774
-0.03094710756341153
-0.0023571620670295224
0.025555209646329666
-0.011354789079617615
0.013300358046866531
-0.02524954870527328
-0.01226971733315415
-0.0034576719468056983
-0.01898044737493264
-0.03532390603318475
-0.04139822247319043
0.02143112135398224
-0.014371253292013296
0.02031541952412822
-0.0037819927608735773
-0.004913760017885213
0.005416369493281199
0.033824999201481534
-0.05562182837790114
-0.0302131765856658
-0.04551074312954171
-0.03808292216876973
0.007605871700958057
0.004377818419245988
0.04144752128326306
0.008490471855559498
-0.005874459887041683
-0.03557985455096404
-0.002536408703293269
0.015152845029673045
-0.028934648502548527
0.05463734176741675
0.10006636282056236
-0.02407430825463987
-0.00161465998218216
0.011962350247810396
0.013598181649726431
0.01689458459292977
0.004022688792948438
0.010061020678663882
-0.0092295690592806
-0.07063506414411606
-0.012719900489099762
0.00586514233517183
0.03692339087098827
-0.0030635608841710483
0.006316471274850925
0.001869574529994303
-0.004035246289915284
0.010527152267545059
0.005316360710809885
-0.14100678351669357
-0.02763677505822077
0.0002519440148548254
0.01967115225330094
-0.014767328654940877
0.019542715161972583
0.012536428235906007
0.015723911458784393
-0.06675141655175339
-0.03608389268508453
0.022349236223768987
-0.0313386344350963
0.12405329903707459
0.05136474781868187
-0.04920972276378945
0.009038641739203197
0.008362199043401528
-0.0030939562964979743
0.002847431349255676
0.026440210711204497
-0.017261712815936223
0.008417195371898152
-0.0410602207591879
0.002876099445825713
0.03692716050601079
0.012654067361212596
0.02264992958354164
0.02206863285126669
-0.011230958764442241
0.0471368644619133
0.036075644488928055
-0.009965435796346933
-0.029641077246653894
-0.024942628614800125
-0.007959740762366023
0.05559412252396836
0.010806708711557568
0.001143861500404063
0.010363643308599325
0.01938904090748545
-0.007027257165703869
-0.0436554747911586
-0.0798995603152828
0.028603106427827797
0.011346752177437622
-0.014048669339201788
-0.010983898333295257
0.0015887421234532918
-0.02193099629644272
-0.01164911885540573
0.04015587183017472
0.023324206098343223
-0.011000987943025564
0.02679675586037921
0.01708677058424529
-0.011275701904203047
0.05929433393874955
0.009108899506930309
-0.019271196742052337
0.030648882428968707
-0.006922383381273118
-0.029629616998922838
-0.01599133020267091
-0.005480015408241292
0.002852433048103549
-0.05864931733618019
-0.0022308326114144263
0.012754506380521113
-0.03364492841862712
-0.036176958059213504
-0.022361853577705402
0.009422773651779182
-0.04199950973105054
-0.03028564367382639
-0.017537121371131663
-0.024400250916178007
0.025541841679362534
0.035123777582822764
0.0020409214201804267
-0.018063560785083133
0.0036244921556682435
0.010456420983276473
-0.01269761478248635
-0.016973099388757178
-0.026301942528273416
0.003650441942480646
0.019964492361937765
-0.006582689420939589
-0.053017939561344325
0.06940775359518192
0.10404496227416461
-0.01534447390399518
-0.002174534901307761
-0.0026575696662512597
-0.012917003812290193
-0.005408523950318104
-0.04241346599555408
-0.04266134990116984
0.009771895473103137
0.03387530625529224
-0.05118013310882902
0.05543397037277054
0.19003439252294607
0.014065778067386996
-0.010438882803754632
0.018594717972117772
0.036941738817274326
-0.021593540749557813
-0.012318647096578327
0.08797203836046302
0.03003964145051006
-0.03682972569708994
-0.011936484066913498
0.01771423958409042
0.010681773894947488
0.007177194032924851
-0.06972106735930174
-0.04408288369637022
0.04180436719283914
-0.015386722647959258
-0.036086681813413346
-0.08146595605227357
0.06116074698845026
0.027623450191850994
-0.05344034582962421
-0.02491849485504432
-0.004854109382232464
-0.028775264172255562
0.011669810572303851
0.0019611703112973173
0.03648058825790509
0.022232202471899404
-0.07582266426190085
-0.05575112596234946
-0.011847603491261427
-0.06294610643801668
-0.0027535621677842966
0.016092123714414628
-0.015450233956357187
-0.07715220254644939
0.021825057249353935
0.006503339288851697
-0.0005071519440760012
-0.017472937452226164
-0.04377061855385408
0.004301424761613563
-0.003934013643614466
0.1025507742081966
0.1969614382086148
0.021936784383580224
-0.03284977795676326
-0.06356359658016472
-0.018966268935122495
0.008567359657298991
-0.0013871886255639977
-0.003195602860599768
0.02944242167814008
0.004100581225343832
-0.005064826771238813
0.02065822792845406
0.02194456203825073
-0.026431715980747894
-0.012180525832852604
-0.02250950425726634
0.006985626912734024
-0.03682719845076609
-0.06584067774882976
-0.0010413490648439468
0.006722336420721332
0.10952188520846512
0.10945887515769825
-0.036704020010353125
-0.016393720200426495
-0.02911418111785667
-0.020974210640343133
0.0071100272587260645
0.12073585236031487
0.02562771308818896
0.004283424416202126
0.005894616512419275
0.02299122654149377
0.009724328457990766
0.020695167098253794
-0.04304836144268663
-0.004983712424063042
0.010144101407641099
-0.014611903056143195
-0.026443447314097025
-0.0095848173765102
-0.046280563368070966
-0.03313045694434027
-0.003303730918083365
-0.012387880967790532
-0.015114714281660177
0.01374714044108399
-0.014497456636372304
-0.018760236063727124
-0.05250114267601079
0.025585021022038315
0.13861520727936494
0.04785637079192231
-0.0025655034172452117
0.006106681958247296
-0.06950288085486049
-0.015073233078140598
-0.03734727531695137
-0.012712539915167874
0.0040597940086923145
0.042351708685322675
0.001165735145755142
-0.005114749920094987
0.04572918345721395
-0.048925480629709715
-0.0758966865389236
0.011789308450354028
0.007000479808050741
0.00584484838218656
-0.020962929168197565
0.031239997037359725
-0.09873169473541116
-0.11157920388078475
0.019918178664291897
-0.012092242701747902
0.0024831206501518713
-0.034633364179498125
0.0021488703969087045
-0.0076168329617220375
0.027304406130827096
0.0018653665996628621
-0.005080458381700899
0.003678751750557342
0.013403742335673076
0.019517712125892612
0.07572234683841064
-0.049461670324327196
0.002813591097564018
0.04525152780427373
-0.006968583369757949
0.02113210152995566
-0.0015563909631919773
0.019968517432116854
0.04396799366492662
-0.038460650738743225
-0.0026489700392073796
0.011428860655156442
0.015841390502805464
0.04305561170180384
0.031635533480771666
0.012379813774834004
0.010850343841892176
-0.017108656823664286
0.057048317369298746
0.0019004747398504904
0.007006805553231168
-0.02543886210515355
-0.009065446850851897
0.008528838152321519
0.038800647528532635
0.02595154452049358
-0.07267446564768927
-0.034675627928820396
-0.022170531384764037
0.0005847715633689214
-0.039864056484688506
-0.031228861232703575
0.01195140477690229
-0.03548943246659064
-0.02043817980975603
-0.03867052738151218
-0.026478988451624517
0.015895961929071382
-0.004851592500607942
0.015955625260659433
0.0075356086949376145
0.04519013214700723
0.12845954783025124
0.019033352831967946
-0.012922228338775653
-0.015357195560415347
-0.0225819747756944
-0.007536839657236099
-0.04017579592708511
-0.01367435617628335
-0.017851501923684426
-0.0067636952483696045
-0.0050329767031321955
-0.021134577880748052
-0.023324823999075855
0.08501727278353607
0.07276649896722248
-0.03509308341993324
0.0015157780725897371
-0.0048770903989773995
0.00618742862676844
-0.027183055813150725
-0.028444627754978493
0.028183525258057802
0.055599880432051364
-0.04083002920225421
-0.05221810348785037
-0.0697143199843022
-0.008062076208330373
0.014436661993528223
0.015508242628009873
0.029471082343345938
0.006639250172210696
-0.008962378191897984
-0.048971788019173096
0.0241800139365156
0.011522057954617524
0.036679479875370014
0.09656537463941543
0.044319423114808944
-0.01854637028573114
-0.0032194577504060136
-0.05488201098646706
0.031232484578726818
0.10330371039450734
-0.016648970803004846
0.021856734693420202
-0.04036337527808179
-0.037633261214748075
0.04242543994218745
-0.012011450755295566
-0.06634526996975065
-0.0256539291566769
-0.018009377195469103
-0.01213538534821261
-0.05180539956721777
0.05307888536280214
0.0011971597872920446
0.008162109564929089
-0.006369740674967775
0.008187124516938933
-0.0066689925415003536
0.0803460045230283
0.07300304808324863
-0.0312991790483332
-0.037322674153639976
-0.03871786420610337
-0.004507127358440467
0.0017438186482142905
0.014160995705480869
-0.024735870252538594
-0.01916291393922054
-0.0208624670062457
-0.019251707666715846
-0.06306375638263012
-0.05647518501483923
0.015795860936043793
0.011690307998342087
0.05746057476440233
-0.004628642454447882
-0.004583079692976309
0.09038130520616762
0.0015518521024466716
-0.009333695290998888
0.016847177869690855
0.00407330688408553
-0.00969439756814033
-0.0020803138913109047
0.006539419979982096
-0.03032172934189753
0.017403062000618533
-0.007795156400098656
0.0005451450961595378
-0.0022301807090318077
0.032496744821427545
-0.03358858477179897
-0.05799168099612963
0.0011819136689176827
0.007762110747562815
0.00973704955954591
-0.001371014954846926
-0.009675316748726008
-0.04239498148773522
0.042308697073467655
0.14046291465433283
0.03398502986682089
-0.02863837194494713
-0.034170808858328384
0.029606063013440667
-0.03272745039634305
0.04615217743507629
0.0789522429869348
0.027921832344531633
-0.0005132697921781246
0.04083250983919806
0.00879252706743694
0.027577919821328796
-0.13323932082541193
0.02180564196185248
-0.13660462735253212
-0.14131415940839967
0.0561584347501211
-0.0101976980982237
0.03437819328391329
-0.031839703821341214
0.021296021956481583
-0.00031723364707626826
0.017799222113784617
0.012443971010024127
0.01615171273632602
-0.013442217627450593
-0.08855423918099749
-0.0015482029113484438
-0.06443945304218696
-0.0775512066059081
0.021641084631007244
0.003335883566186938
0.03444919674955565
0.08209375575452582
0.06329878965392982
-0.2335239163088055
0.011940968345711598
0.1357917956786515
-0.05045624813692154
0.03780430370563253
0.03583166013419473
0.006451267315666631
0.0009817209829701766
0.034941073078399255
-0.015626240384021755
0.02172158304312851
0.013276208597325534
0.026283585742420398
-0.005712553482331642
0.0384336768987828
0.037826662850002926
0.046259063715095604
-0.00101983574749803
-0.054629872453774174
0.034192723300743307
0.024287092379814492
0.0195808555133502
-0.03587529659362689
0.021516885491331832
-0.028565702300339394
-0.036995907644677924
-0.001313126677444403
-0.0071390097227668845
0.08666812221684732
0.005062943793442733
0.03748600714882402
0.013525344839281592
0.025983156506387377
0.03249308254455432
0.0430047074783324
-0.009336726053634545
0.012777694699740992
-0.005672136321333677
-0.14397553077955133
-0.018450892748498753
0.02342402318474851
0.016347580962531135
0.025891677721667415
-0.0015167359629876056
0.018073442477973625
0.010017955901765815
0.0006827333934054674
0.025007450146122517
-0.015676818253097937
0.022969384777307277
0.03265338996242419
-0.028790016237847257
0.029332428198475122
-0.07733344458220906
-0.015273167687165284
-0.07620571992654908
0.029169415181842826
-0.1982097535941014
-0.16538281719869194
0.037549983344985625
-0.005994647491725125
-0.02303207235698043
-0.0520187452109408
-0.02192705428993381
-0.035335331566419347
-0.03129256468947887
-0.05247373907410613
5.864954735395127e-05
-0.01697836920712662
-0.044637577305574334
-0.020697698669837696
-0.03486806540092385
0.046284708554071755
-0.22133644504587854
-0.12766329637000245
-0.017668657544269037
-0.060453622198960395
-0.08004327076122582
-0.03744407014554243
-0.055691181507862814
-0.08449994032869766
-0.04538421178101377
-0.11512177672992506
-0.08623070017426407
-0.0921929658744556
-0.0863391654774984
-0.08827754537081987
-0.06762303622717582
-0.08834173212405987
-0.05811784889615988
-0.10631742933698876
-0.11020916305809522
-0.094784100000184
-0.06968667302371818
-0.07759818663769114
-0.09800929796507896
-0.09771659602013281
-0.06350847386127081
-0.08007272221027453
-0.04864504376055872
-0.15505462764781805
-0.22920076137646964
-0.037603152414435556
-0.0764638034683631
-0.09510327760896937
-0.03149674441275143
-0.014639650420741506
-0.004667271548089832
-0.00822364314511575
0.06019042442333372
0.20214042736795057
0.04511079107721581
0.06260629433705318
0.05823510727445696
0.13845517053433434
0.09764261349179834
0.10977109873506231
0.1327017989021287
0.17843180205854745
0.1901703426913838
0.20309430269684844
0.2532011466770181
0.2928721024322497
0.3062748765203262
0.45925569938109867
0.44166062251139365
0.4345433217100764
0.5116702365121074
0.5306605068449938
0.57226855611772
0.593770980858151
0.6550867482929237
0.7034039822579947
0.8153972116460424
0.8649511408246264
0.8176702198199868
0.9260244884947254
1.1121797900595498
1.0189597852820167
1.008789479793273
1.0690676943037554
1.178112879340171
1.283306320645103
1.3128639222967267
1.3683321320418091
1.4143188001808675
1.4686360862771066
1.5136144602479116
1.5860152492481339
1.673494084554257
1.7301742950865124
1.784539692693502
1.8408071549560294
1.9154257694992742
1.8006416166489123
1.8096626491109324
1.9177725403646335
1.8935721489615782
1.9894000527669067
1.9609061650815522
1.9489472454170982
1.9294454852661358
1.894030984538128
1.8825764334717316
1.8297184453372715
1.7313737042190167
1.6631722283019508
1.6322093322561217
1.5628435043518185
1.4430552598390438
1.2665944979650121
1.1169189358312233
1.0349199555054167
0.8806918075322372
0.6811520026464176
0.3746219340167397
0.10113734473362168
-0.15594812664827756
-0.47084506105474483
-0.7617814343650068
-1.0541895459319461
-1.4569421502841229
-1.8474746092044299
-2.288494021441714
-2.750015950643058
-3.236840549017594
-3.7172397020385666
-4.305802720704672
-4.8691139285218465
-5.592949296909005
-6.183768525041436
-6.884330759471364
-7.589570793079149
-8.374136688463276
-9.104822184831892
-10.022377687464276
-10.871486609258156
-11.744899807331423
-12.765413330064444
-13.60458852953961
-14.713932901236811
-15.680772999751117
-16.672301097294273
-17.769760469949908
-18.69455120996708
-20.00091185877543
-21.078003691862097
-22.24198736117062
-23.430700354271377
-24.78838942861156
-25.439177574341382
-12.136139437766008
14.93342847319782
26.45896433848115
24.38093218895943
23.403773496388997
22.169454604382718
21.070272022356612
19.846584267853636
18.756240881322068
17.674705492202293
16.604563862134224
15.564969566277616
14.627245329244692
13.670169992257984
12.68424698919707
11.636417747792487
10.809297208859848
9.835927315512983
9.087370102265135
8.284789663504641
7.579287368960041
6.831367992892426
6.138593987344758
5.374867747646362
4.836260465233727
4.2443894669782525
3.726175244988611
3.1580475309667935
2.652274289219429
2.2219578727407345
1.8412232476739419
1.3349719761641559
1.0414561065156513
0.7052552307597357
0.14984926284288877
-0.15317591239861603
-0.30240063709682197
-0.5930898348804918
-0.7389256564723345
-0.8434764707663547
-1.1374714361600258
-1.3224986070689377
-1.4597205378541136
-1.6881300809618238
-1.7828009254305996
-1.880149356203927
-2.1129746233517728
-2.056389151092896
-2.134098673308944
-2.1761022667566214
-2.2534031118922804
-2.3233336577297363
-2.3272385381644907
-2.3909229221345685
-2.397527159230417
-2.387825876590128
-2.3684040471391468
-2.3432909157586432
-2.4432119514698174
-2.400666505691722
-2.337241931654697
-2.2425314709732906
-2.3106231855476618
-2.266199840348626
-2.3165049914450453
-2.2421799628261514
-2.2184961410428063
-2.212714211228813
-2.0860954473494013
-2.140336974064195
-2.077306164416861
-2.110495218207187
-1.997967901588852
-1.9516377124689697
-1.8784069135917998
-1.8526365660648683
-1.7652487850947005
-1.765123262298935
-1.7735522742650662
-1.6908714084506642
-1.5418070442910712
-1.4801889917561184
-1.3678246141654493
-1.445071793315923
-1.3036464849169316
-1.12077311121373
-1.0857020400736894
-0.8675184163085068
-0.820287048406082
-0.8422124162656544
-0.645260938623298
-0.5106006152611147
-0.42411704700564135
-0.3270501598438511
-0.10190304110332198
-0.04811833227369244
0.292005682636593
0.4154058913382712
0.6277418942608484
0.9687153425820563
1.0105930596360688
1.2863919436158486
1.5040279360166005
1.7069841082940242
2.003679752607692
2.343913388134632
2.654473761382044
2.866086145987097
3.1576746082269564
3.457912563100667
3.840437515581364
4.19926872980199
4.717906330587168
5.179850259786517
5.237693003879228
5.7179285072769
6.091511825262802
5.61459291537579
4.502303496558071
3.6088530333074895
2.5217136654634915
2.2525221553958494
1.7183649832415697
1.2178767394029886
0.7780147858884237
0.4063659571766657
0.04859841175282679
-0.19013123895797535
-0.5081798912948757
-0.6955455719891136
-0.8528487602428192
-1.0276317036154143
-1.219159973506512
-1.274688953801448
-1.3508868273855985
-1.430842774033563
-1.5255660607842003
-1.5868855978377794
-1.600154287968842
-1.625333027805854
-1.6807278257599958
-1.7251941875586425
-1.708315588671591
-1.6702679606200261
-1.6692948759219197
-1.5649474952013807
-1.5952943069566357
-1.6395484669456963
-1.6172719018105308
-1.53789852537641
-1.4722526299163958
-1.405610157288724
-1.4119921492803118
-1.3717276366394417
-1.3296059823360036
-1.2912511935579556
-1.2391438659692398
-1.1358103474576409
-1.1760785652225183
-1.0963691951001335
-1.047014649291125
-0.9715542942924021
-0.8344498312517615
-0.9194918670168195
-0.9117912950376157
-0.7708496955413926
-0.777514743028155
-0.6949732977829901
-0.7943393387176928
-0.7821381396297789
-0.569581421478144
-0.6252455777444064
-0.5242499969850059
-0.4567096725082809
-0.4390700533781853
-0.4082339889010743
-0.3530797222430456
-0.3255972784453372
-0.2800763686574144
-0.2706427794718889
-0.2511417071715956
-0.1955110433280847
-0.15355225623503876
-0.26446149842358657
-0.12397659072661578
-0.1326654219035038
-0.10044679388841303
-0.09780501433700985
-0.040000572167704966
-0.03134275631095468
-0.024824376486848876
0.06844689579048363
0.0658302839430625
0.05730825660080953
0.05343099515461663
0.07839113510751385
0.19447316631345224
0.11198070828586665
0.10118761716849953
0.17058292068441905
0.10578270096210567
0.15902910397276288
0.15195497343698813
0.16659714272947895
0.12471405698797795
0.13190734407172483
0.16308406418007498
0.1969580391413973
0.1439557485196404
0.3159145133338788
0.40162799527248594
0.13713853533830786
0.1751826592021776
0.17440835200778662
0.1608445847117453
0.14430766937218695
0.16796125438527532
0.185671980703234
0.17231459057340437
0.1772290933862123
0.1417580427897334
0.17243405635009376
0.1214334773367337
0.13465636230752684
0.15615309726018514
0.11657781192185972
0.13975232003129137
0.12004085573570392
0.13568154768947482
0.07191317470192839
0.1652951540167853
0.10288495706420597
0.045400742895551384
0.06126984707000338
0.05915010877013265
0.2087792746189992
0.10653122551665588
0.014920779781234584
0.00011776227825155552
0.040881097005345375
0.005411177934121655
0.08830303938237027
0.030783056631964126
0.0669037197577408
0.05300994786205614
0.07050261961822607
0.1189469614131043
0.08335636911282564
0.0325025805520277
0.041857837644250315
0.06033534195588786
0.11267999346316812
0.03475476214461978
0.08721735229578503
0.10380293033334198
0.047048472978986684
0.050793959337010704
0.08658066990135657
0.05513813161002579
-0.039165103909171356
0.017735576208807332
0.046156053992378286
-0.024153154780415943
0.00533953575975613
-0.13071129347644314
-0.07536231988421009
-0.03766845560159481
0.11170807442479255
0.2193275973274394
0.019116043035160922
0.013628284983664175
-0.008272071315320853
0.03306231504824763
0.00704132016711993
-0.19244441202019386
-0.03670844029597655
0.024393697048930754
-0.03272063482576661
-0.0490094745514922
-0.007274372137308458
0.022948723817501626
0.0209334489746231
-0.05016588546123614
0.04428081985841612
0.0906253579371459
0.02114625936684576
-0.03479640914103674
-0.13320630593443042
0.079168892559935
0.01514108093696702
0.000782086969295772
0.04311607085328146
0.27196735249325044
0.04478393130839525
-0.006254283600512376
0.023523010540706716
0.0036499062046424177
-0.05096408478117945
-0.03093128344802968
0.11425802913878672
0.032626993523395306
0.007013838159671975
-0.010238831294539265
0.0509785394133863
0.062404567722934776
-0.06267849898015922
0.0047444831883023415
