0
0.039190233565734374
-0.018618393471994833
-0.013313094767724465
-0.0006831205910598602
0.003304190502482969
-0.029928844591650787
-0.045078313645957074
-0.011039908061050837
0.022100657234948536
0.0742174628773144
-0.003931925580466567
0.039203915646877634
0.026261978194720852
0.014630533799357148
-0.019858906187212203
-0.005023868863384475
0.02979237719082219
-0.0061492950738368515
0.011184045959642473
0.01734649271422438
-0.0172546557856553
0.003167425652870002
0.006880952468401602
0.0072461826244910165
0.005585743602415876
0.013326006881985422
-0.01762149226636705
-0.0018199816032331984
-0.015220397250752353
0.015288917272069193
-0.02961652861301841
-0.0011138147519677846
0.03894856291739399
-0.04256141867825028
-0.04604387879162067
0.06414958735840368
0.001191076597751941
0.03283134534215899
0.019335069205766893
0.010886254310424658
0.023054144212055407
-0.02517062339488226
-0.04972775247706643
0.02089217127831198
-0.02117354299051101
0.10397615165501645
0.01795640280513963
-0.006526565769278275
-0.009849137425335105
-0.010102235214554733
-0.029559414860402367
-0.022714724317807244
-0.14207127183178464
-0.014205136970248852
-0.12755939050464468
-0.14016667140781347
0.005589477277818727
-0.014815105581827977
0.01751455744853906
0.031108079528679704
-0.015423106456010827
-0.02375784013114348
0.03449646982907273
0.0007226635237835654
0.027102701725836262
-0.028380376629311498
-0.04459221836664097
0.004709736443100841
-0.01664342472619144
0.0008825655782724323
-0.015319052426809528
0.0768928336086943
0.07835932240366611
-0.01176154066285594
-0.03307448205297195
-0.01545388844999373
-0.036261450999734435
0.1463667376793888
0.22827630616211453
0.052399699520147294
0.0480633895546216
-0.036820194185451696
-0.005929408155218889
0.01801101055366094
0.03365079787978547
-0.018792241192416577
0.01709672649120538
-0.03576825314322571
0.007851337682104402
-0.030673413838733486
0.006419435597395902
-0.037911758650891414
-0.021813809888520698
-0.015058728019202685
0.04382108478925119
0.02017317077377436
0.001122020856014336
-0.005374047928410389
-0.016887392889703746
-0.013322860936034301
-0.0024467760546233435
0.0046343997239135445
0.000674462592986704
-0.007126040723632106
0.010983085354229965
0.0005279688818561367
0.007627607553231922
-0.09855363970666005
-0.07315845243007914
-0.04056272385704568
-0.003756007168736656
0.007966732018745827
0.07570912466333851
0.07965081460968489
-0.031019024249462797
0.026285871539707545
-0.009771586841604417
-0.014497066147916168
0.006713578224744266
0.02901290581788132
0.06214035967031235
-0.018574049528571918
-0.01665995340639929
0.017954236274417966
0.0069882310813589536
-0.05112490507164161
-0.020151907189510224
0.04488705163261839
0.0032799092109466435
0.03619860049159727
-0.020316599228785513
-0.11565709476559476
-0.026891362347612736
0.008150603928104289
-0.03215439272056946
0.13731991143526656
0.14385427839436005
-0.051388696441858665
0.037508327851077716
-0.13757940804376
-0.1076687501512323
0.06728181924820884
-0.01467129313043646
0.021587572330342752
-0.01869471043001744
0.010389810951666752
-0.010014156808609634
-0.015453975777334598
-0.017977782091310925
0.026340672529368454
-0.0075519312362745976
0.039473977664136885
-0.0062721489210352975
-0.013540863089827875
-0.09215186280731083
-0.02201015224386737
-0.01746991978706932
0.027355160959302557
-0.00981084506956904
0.01936497186878402
-0.0035610730111499235
0.000854909063463588
-0.017714269313986168
-0.002610030184574316
-0.023885271850024217
0.09789033277304031
0.026460646007942002
-0.033634402247764636
-0.03011179885732087
0.02381890609255847
-0.01745453424833377
-0.010143457714510843
-0.07905816008494615
-0.1206877699549496
-0.06409194833775796
-0.036142220199134024
-0.00030062434411288525
0.007349027458824199
-0.015277200138456409
0.049594675462108856
0.06820031101140504
-0.03726919753344958
-0.0257471853018292
-0.011685187396131292
-0.03304965804811434
0.09206816053415282
0.05741016745504992
0.20844800477044054
0.0879550599055967
-0.0625084676197479
0.00567786469913556
-0.008408663199593122
-0.050344456586955716
0.0878417996210047
0.06663717183299858
-0.04719017001087759
-0.03295465078123533
-0.0634626417027714
-0.01604651652379653
0.019979418819891903
0.015468239365291365
0.04309801962474917
0.07434670188685875
-0.05219761452975421
-0.014609468481175848
-0.04780467130909857
0.0019344832971631564
-0.026012748111497994
-0.0022713430889597865
-0.04849489391303909
-0.058759899978426726
0.2909034388734901
0.11187624725688683
-0.07151561520450636
0.002591892941503521
-0.047761800801554996
0.007610238838218557
-0.01822007991151374
0.0569847987089826
0.07224016396097406
-0.0008385607043011485
-0.03178721992113362
-0.08584694700773945
0.03987068399529524
0.003831941400103273
-0.033781333359195684
-0.03310136968545238
0.018999080885107312
-0.008171504778227746
0.00559495386913335
-0.027985374989556198
-0.03813463745381973
0.005956465824738952
0.00432482805300562
-0.036480275184921925
0.007160771380542594
0.004118816713495751
-0.06005352430377573
0.05161754445685796
-0.005189240994231028
-0.008448093622070461
0.003394824808918151
-0.11515533627506117
-0.19573591373349253
0.1448215443838001
0.13090752340931316
-0.026363016743634907
0.002925122498783706
0.005204119600729979
-0.003713438333280038
-0.00040016796793886105
-0.01972101601623661
0.025980712534351125
-0.02305516970953756
-0.0318805961617984
0.009234629089580436
0.007627422640793709
-0.00015290711221926806
0.015710080143729935
0.002099933267062489
-0.03569839293796432
0.0031529786722729394
-0.06765854204120776
0.018937161821635688
-0.005616735538285284
-0.010118994045212066
0.019032961445809026
0.0013452021554048287
0.011499209647489633
0.05543381610792787
0.04078257429252761
-0.0601872721180375
-0.023145855285096453
0.012908744912062915
0.033860273650709566
-0.025248228791685482
0.009985816571627207
-0.015030670892803698
0.017043528349105608
-0.004314364661339715
0.011375441952082831
-0.02672734204032431
-0.013868028719796028
-0.00818798993956528
0.0172639397558824
0.0064884994258212715
-0.014580525750824065
0.06587407711499187
0.027912316492868412
0.014325606612521758
0.03334821185750595
-0.020179905781701434
-0.05057864106140857
-0.01761131754998041
0.028778419382686868
-0.016523929009134426
-0.020764282214585088
0.0010317482030326153
0.010997161408530354
-0.03521228711653024
-0.042205911987770774
-0.006804991039198286
0.0027856834745587635
0.03988053934959417
0.033485214178845035
-0.05748533478077657
-0.011762458722785302
0.020434126267225978
-0.01833540110150444
0.0018824005943858042
-0.0010463523545656945
0.005818130499317385
0.04899015241901978
0.05801452719069996
0.02907720800942938
-0.028927523040825652
0.009222741300541857
0.018683215979448924
0.03570169251941142
-0.010614265394628676
0.06502174958479325
0.08438062799744324
-0.014330399753999098
0.020977285129626395
0.021290074359114192
0.01043943958679347
-0.0252430202575275
0.023219846254105107
0.03686853538474558
0.02914091063655798
-0.0833931566081258
-0.013881174230112604
-0.1146901575652845
-0.2590616252488512
0.029588312810387894
-0.004884769109188818
0.012564098554399784
0.0005930800647022119
0.03509390925490586
0.024949738454424913
-0.008749112719071578
-0.009911048420575792
-0.018111428540415406
-0.020519813786766147
0.00825887461640851
0.0017941615284496788
-0.00026229556717017065
0.017866442160685038
0.013661205616903984
-0.024036949422848813
0.012947059723196711
0.007684532729505599
0.008398219684268654
-0.006865632101703697
0.012330538160285686
-0.0028715994683115864
0.026498314947777855
-0.08585193496344092
0.017675094535989637
-0.02117094207436494
-0.05264558903788744
0.011542115957070541
0.06769367677905545
0.045062904343197915
0.015525204666565935
0.0008563130304448637
0.011622903933207087
0.040002065590784695
-0.008504358431244948
0.006788097184287386
0.043045537681250585
-0.05784351183753617
-0.030079257785891184
0.007894514848874417
0.02059702252485945
-0.01682670109979226
-0.03368625694038516
-0.024649308175971964
-0.02697213717916557
-0.005139444229914133
0.007281388989486756
-0.004511655939122626
0.0027799515026640416
-0.008697225588266414
-0.02491401487794395
0.015553174772986513
-0.009996692709126459
0.03090271677326132
0.07616844316804577
0.027949272913631928
0.03301742533372354
-0.0029412304774736036
0.07661486630974802
0.057577474005742015
-0.021517718723450815
-0.035684838864858716
-0.003906925715544531
0.0011489225766253904
-0.017517962914605605
-0.02868819423832893
0.031030570325923407
0.01350841770411375
-0.010686069939027609
-0.0011885422282199537
0.017347302976579985
-0.011261933204984535
0.0003091642010682417
-0.010247551303876477
0.016920818216808128
0.020619927422432714
-0.021671999342243845
-0.01646243768091351
-0.006342677600291338
-0.01305915249201213
-0.03394862932005565
-0.0021013529659558903
-0.0054637100964291105
0.02914592316137741
-0.113379410531756
-0.02904065193754357
0.017278784850881614
-0.04754934160416036
0.03659478548627849
-0.014307580522066736
-0.03505050760137567
0.007244067179607985
0.03243656849693377
0.01821776333172297
0.010311608789019952
-0.020105111884875376
-0.013845261467585517
0.011209784463689846
0.025861485124250183
-0.07912866205326761
-0.028250137298029585
0.019912155594435786
0.020597239400564345
0.025372579472583565
-0.004387712128527224
0.040089408099735296
0.0002449165228759042
-0.046738863481041074
-0.0196246839013736
-0.0017763011770315514
0.025682967499253855
-0.051200613760038954
-0.0725262154772223
-0.0048666758604727
0.022634959412938558
-0.02047503232607527
0.14685639674841924
0.05642124624612376
-0.049369847262080685
-0.039802708363121775
-0.08716240532675609
0.08576841482918886
0.17484605849472054
0.03099617260885897
0.018096475227704027
0.02275303744801565
-0.03955030474268709
-0.0029667519097468483
-0.021501150196337183
-0.009794100140753883
-0.006752160484511356
0.060259308832261396
0.016542204817454536
-0.003950113441797958
0.019814883761544402
0.005835905445597977
-0.019749994209024097
-0.02177289534368864
0.024070720476363452
0.008664900977030961
-0.0005089463179852834
-0.0019208103049078965
0.04346607855226728
0.01019879500765946
0.013758460707868209
0.04178422140467946
-0.11686397933380355
-0.039786564105592816
0.009950654571378803
-0.022615678945431567
0.01862541507134892
0.037772908773025894
-0.006015695492125599
-0.076353468556612
0.01126433426818798
-0.013617029778107003
-0.09727625457946863
-0.020282454478447523
-0.011791255241560253
-0.03037153311947851
0.024499227535278938
0.0078067765538745474
-0.005272262275332144
0.007143840863304766
-0.0016200148213686774
-0.009328223442587479
0.014166065667208023
0.037093502144346154
-0.01987257748119273
-0.012827980905850668
0.01443169295604902
-0.020593808544650392
-0.020216794589309205
0.02106271678415412
0.029014964941881445
0.023121148396763335
0.004377115980417823
0.006416248050222686
-0.029431968896085795
-0.011213902743485056
-0.00029105196793540676
-0.0003331148787774083
-0.021439081416143178
0.013992732814860792
-0.027287180558918284
-0.011673188520172718
0.012255299096807417
0.05414717995566581
-0.009648181153693283
0.11413514226430493
0.06809169263780117
-0.050672747751426786
0.00782407478998842
-0.02868604152681059
-0.011665395128006099
0.007266590382218331
0.04296602684523649
-0.025314688137579457
0.019478126295805125
-0.006637446955288032
0.01854939414254723
0.016564161227497112
0.034447958428821195
-0.019829151715504277
-0.24841673018632818
-0.006174618257063136
0.017789307758255452
-0.0354937545677602
-0.02237403464358762
-0.005304199972080664
0.0013721284016832422
0.01636375378741182
0.02959208472372904
-0.01092800295293134
-0.01143971042897688
0.011705949450319823
0.030246320373026055
-0.006053965766673217
0.00631720914960583
0.017803915158978136
0.029672946253045257
-0.04076268285517684
0.03238636589452684
0.036805603220897085
-0.009737549902276106
-0.015266131814721019
-0.015026620263093532
0.012227679173964931
0.05616808005004179
-0.009325809112559265
0.023808464928286817
-0.05196470446964927
0.003726379589092059
-0.04092118575719587
0.0035030012599793986
0.004056613278100616
-0.012308969887025182
-0.027417939141159916
0.053516196713086224
-0.012327955914241132
0.0634160412600089
-0.05441338721098446
0.1021118452249151
0.1221777962667466
-0.24668539439276835
0.007938593620785788
-0.04708864151216006
-0.059785868469500125
-0.0576078313986313
0.03227959756147975
0.12028378961504925
-0.0442724499546655
-0.05340180625403702
-0.05928002814242878
0.20168792422386772
0.10149120886652492
-0.04448192733840583
-0.038744026351971446
0.03177481194989099
0.02299514934272019
0.03809256832973239
-0.005206406957443856
-0.03719815849096124
-0.02871729583752952
0.022620701797392537
0.07669087995787448
-0.05154057437028207
-0.006219151119996909
-0.04553163123332818
0.035434870580925606
0.013845572627425362
-0.0298054461483869
-0.015130755659883451
-0.02718618818780311
-0.04032270492071765
-0.049671132127250765
-0.0036144626669274813
0.0065124611194487085
3.38741403842679e-05
0.17448725676224527
0.0040021326940134225
-0.010528478688705906
-0.02468407269213135
-0.007604994728013879
-0.030572530141680522
0.016925575704421224
-0.012204745844599837
-0.03649270377909269
-0.023869393333426928
0.009920676945977069
-0.003810838269081195
0.03370134478026777
-0.027810591950984256
-0.011053411873528287
-0.04292421634889858
0.014809995763245067
-0.041033407809095486
0.2243662886103195
0.11413186227041743
-0.051806107452049326
0.03515547742060809
-0.033002908868004915
0.01928717918694425
-0.02318163936784456
-0.07047704876863711
0.0044062848513092565
0.010745398189890532
0.0047645917513610405
0.027309459809444322
0.019559500391773448
-0.05051752017030413
0.0017178049827855123
0.04889742260681125
0.06635580212230252
-0.10629092276961062
-0.24536476530273005
0.023049370590773836
-0.005650569833484143
0.006477742668729904
-0.007078375304654815
0.01970186957191927
0.03010576009152222
0.013644427257821785
-0.025504605605215495
-0.011882402281132293
-0.0369732539494646
-0.01799565057091446
0.017334075471165042
0.02157803110908948
0.006067456522302291
0.0219194998538116
0.014810637628938842
0.018411293535452594
-0.04440685156581053
0.018430325791675736
-0.00011493161542315544
-0.016925237747439762
0.020495886350617876
0.03319619530446448
-0.02889517472370768
-0.07933324632249647
0.018854200941277075
0.11163414359914405
0.03949327083560529
0.015975453752533935
0.0119048014739513
-0.023586601459005953
-0.10627518626734246
-0.013379104733197382
-0.06711451587233759
-0.014347585869119689
0.03296702490159187
-0.005617815100143768
-0.016101481597424083
0.029847129715885632
0.011116697436872729
0.022428175377387578
-0.008582496550234719
0.09757534185135341
0.057569406763837705
0.01473960149471194
0.08232755650254593
-0.016812413994184504
0.04692827183268087
-0.03848014189434385
-0.06855895879165257
-0.0042834083811877114
-0.21890391082981128
-0.04757561563900227
0.06894498887979539
0.02980300714953281
0.10531841320994381
-0.004976002764521675
-0.008376008000324344
0.018844004605387685
-0.018480200879737143
-0.04066697185801479
-0.03508078739734081
-0.031486142295251915
0.02994058590271358
0.002057203434136985
0.005570867732256895
0.03359536704482
0.023833012746770018
0.01230102154118679
-0.008151535773389161
-0.013236914143575276
0.09955666591961258
0.023519142761129007
-0.03586743740811354
-0.013830205262424006
-0.047463052361385615
0.00821301136084648
-0.006326675149808045
-0.02689205176535415
-0.005949940202545609
-0.012904844921406436
0.022743573869467865
-0.012485976397499692
-0.01802857947392624
-0.01907992516219452
-0.01093898824527922
0.044366535044319845
0.016336926585766846
0.01222505019226358
0.037024382454870254
0.014976490641740534
0.02471549663565405
-0.01972469274532304
-0.05932050494767792
0.01227246043327109
0.01893584090306531
-0.03819651254987834
0.17764389300517588
0.06288044473907263
-0.03038528391475234
-0.01722971384537812
-0.11310220423132378
0.010408357677904342
-0.027761545629189307
-0.02374523797465771
-0.04005262223173583
0.025179682850141907
0.03827563986963325
0.009470594864546943
-0.02519562362609814
-0.055301911878341305
-0.01249988524867224
0.017917476037578494
0.02705570685427152
0.028403267508227317
-0.026650057316679316
-0.029056337586406345
0.007363079535442867
-0.010038716211580657
-0.003526925004784272
-0.1457458367163958
-0.07536630415632344
0.06834629376012352
-0.03223045689824827
-0.007310848792359846
-0.008097882269417794
0.021621490513779682
-0.00013440769217503416
-0.029507185545764404
-0.04705723906808089
0.007641384785197259
0.005268011431052735
-0.04241785985287402
0.0019363072254370418
0.1473291631893718
0.25618650174392266
0.000580531484597375
-0.004194410528422881
0.0005406104629057632
-0.12034339808760791
-0.04052330355010301
0.019777163210423915
-0.003329660542667921
0.03670116735839167
-0.014267586669822158
0.00968715692834075
-0.019638938759533677
0.009423091514513275
0.08132968459137252
-0.0235197066290316
0.011317418126959662
-0.020185992103476828
-0.049845030526390464
0.027774063114270837
0.05034582259482596
-0.005558523499785406
0.03722652075939577
-0.012751438861925804
-0.01812824048646245
-0.03832242125495193
-0.010721830609429512
-0.004561055744127728
0.03535342638969782
-0.02571374300195047
-0.023325950513016384
-0.00528252197663073
-0.010379207216878943
-0.027799384380327172
0.12214313927891045
0.1184898494617041
-0.07156386695686516
-0.016076632467847688
-0.033482406034537046
-0.014329270302673093
-0.006766970675193052
-0.032506092866057226
-0.003770246607365501
0.014840611825419767
-0.0030314830339009456
-0.008295330793293596
0.013269645506038628
0.007667881287765366
-0.004262159708655964
0.02587223146101767
0.007868285601527119
-0.015893552377113037
-0.02107927358364768
-0.0034020057502554533
0.011362542789454918
0.018492143616764087
0.010387169678478837
0.03626534057000288
-0.05929489862372565
-0.01202416239122069
0.013567131010895704
-0.010926356196001902
0.0012255917750570431
-0.02383438252374671
0.02298642526844865
-0.0029704536804137636
0.010877782359829452
-0.051883502252672055
-0.0013837702221403422
-0.0036343590566298694
-0.0481765483952187
0.00032569858885452154
-0.004763660896749544
0.014352564960222693
-0.019265246890636516
0.04730546736938912
0.0426550191987328
0.00018677672174533758
-0.013139835736324913
-0.025612411015204062
-0.007111816128200003
-0.014929577049631392
-0.02772915785275437
0.013701557648115833
-0.04371034494296474
-0.011350868951403624
0.021905843318059174
0.030751896614902356
0.03033154186690461
-0.026770561068186843
-0.01249182521172554
-0.010817537101336375
-0.0598771085416908
-0.026823652570045774
-0.007558849196171986
0.007172189737403901
0.03261024352566305
0.11590886173900661
0.046794814333979015
-0.015210835139292956
0.016780454797816192
0.04231167344745536
0.06915822582902997
-0.05942172196235865
0.001879602345715803
0.02048373802619984
0.024990869203278327
-0.10904393613350197
-0.030385806525148003
0.009644797782105051
-0.00259936271313142
0.009242798105765787
-0.011285175750829272
-0.005432304560000616
-0.02012732368646807
-0.04247483217338752
-0.004562123910452638
-0.004949732998397539
0.1545342009924228
0.054317333765703
-0.035893192898921955
-0.1326923982350938
-0.022276668638032036
0.03195831041756395
-0.05135576457681627
-0.024053224696172295
0.016119490498579723
-0.022357606494387543
0.020394517618954493
0.19297165389047988
-0.011417882322531363
-0.023894278341658567
-0.016932381335397515
-0.01699838808742787
0.02962084569492255
-0.0032595338140821483
0.01408218317165754
-0.01857171816240618
-0.03421626587186997
-0.008407695014848475
-0.062065808021394005
0.015764879113252982
0.0027627758530022924
0.016817550728141326
-0.015469089147763546
0.022592364910220673
-0.05023948485845103
0.020680948807743862
0.08469717087497819
-0.0039177945919739955
-0.006009410080736482
0.09174213133991141
0.027224096711044015
-0.010468420250758687
-0.0034168446187558673
0.004658309629334709
-0.0387027652069937
-0.18488927877028963
0.012832370664807571
0.00874799423857707
0.02086157255904201
0.027928138889996283
0.0018772630189422001
0.010438850974847855
-0.01829395038375872
-0.02648593313474227
0.010945688780746591
0.02000246108841813
-0.009382267585680754
0.03567368149032266
-0.010090449012761295
0.015245385053602841
0.018071313287394763
-0.03519913264671565
-0.0076912055818898735
0.01246601128246895
0.013185897364806546
0.012678867253795734
0.006750869255070768
0.004229504551476212
-0.12127919098625138
-8.096593367107318e-05
-0.015846243353134448
0.12833766518922493
0.07062105817827662
-0.00905685179489247
-0.03417777493967908
-0.020534365708505854
0.0005122581353536953
-0.03553950932878345
-0.032265574525912485
0.05069387349957379
0.026341831703818226
-0.007107327411710423
0.009521197351283926
-0.02578187059181688
-0.02721343333596464
-0.0366064897594113
-0.01445278370243136
-0.0075473514349678975
0.023295852874795908
-0.006170417321472772
-0.17376535083741354
-0.058409281511390417
-0.007492634168375223
-0.009261920798978312
0.07573214866602636
-0.046436266374126484
0.1349827082454599
-0.005970894469419059
-0.051688349130307926
0.005134416979604
-0.011858861610477861
0.010804779229819147
-0.01816467274045877
-0.03452324257630947
0.03624802065454923
0.14346113412961312
0.007590193398265491
0.0018654463480757763
-0.0009929833667477656
-0.05316661930852345
0.050209567845387194
0.09089018899822061
-0.030358068111211223
0.05807037917296329
0.21631013928976345
-0.04420422746604119
-0.015422025677290594
-0.02138606252055868
-0.03691150008634474
-0.011433999583018929
-0.017887194800068024
0.01632928265749691
0.03747190060864694
-0.03571957724866561
-0.030342291577379922
-0.01576887365836173
-0.020643282239304245
0.03970294618633365
0.053393637706901635
-0.02580517612245122
-0.02733224287874527
-0.04981898674541687
-0.0031895423461813753
-0.025727158514140664
-0.03588005602312423
-0.06339895377088453
-0.013960527743880033
-0.038204830810196475
0.008257545228982702
-0.0056983274574244815
-0.011127427916537508
-0.011153172360563953
0.010560673328705852
-0.000708081342805816
0.01156819603702835
0.053413018795221284
0.00195899686609159
-0.02736480058403807
-0.04256448303089546
-0.015478542072877468
0.12909431411534736
0.0897774324843276
-0.03340173044989095
0.0015032576464457468
-0.018864718493674694
-0.0423110011010719
-0.019490868464933694
-0.01686126810273501
-0.0010199869903507073
-0.013809604321212534
-0.024731905077496213
-0.01669381446869963
0.01925836331567824
0.02539814147350881
-0.018134086239308355
0.03813318828257254
0.067352219950042
-0.007448871795476472
-0.009429611067171427
-0.018825246446609576
0.03475890828389872
0.04611506852212771
0.02588534657056136
-0.024424423663040432
0.029479207499444972
-0.1594309292622312
-0.12754634415214958
0.06910301092886299
-0.041669455499506694
0.1356614730116356
0.11549767302231853
-0.04732079912752786
-0.023784521628496823
-0.03553209857112568
-0.014607726188071412
-0.014636683358973763
-0.046600133634801304
-0.00803587106055545
0.045920437604358065
0.0064641298139217675
-0.0041322681587191235
-0.014904229077353549
-0.05693983277438725
0.07181156714577171
0.08172170655594263
-0.025956828347370092
0.014725292209116838
-0.07316699742252665
0.003148132181296374
-0.006855143177604077
0.016537380020061877
0.015046405757174247
0.005628909228302229
0.002076583765657211
-0.011193532148383672
-0.01638417422092682
-0.0006143158703326092
-0.033208915922618806
0.02006268195351461
0.06160070479081977
-0.020829813030550703
-0.025429912739333267
0.03874968602123998
0.058132023184525386
0.019702399434543362
-0.07125135604286595
-0.00908811113879337
0.04243621130957948
0.004955707874607964
-0.009281546671784926
-0.004863822002998099
-0.025432261915196215
-0.019237119638924695
0.018667833113217853
0.019351013641312385
0.02309548648447671
-0.024195592054114125
-0.007110014193314934
0.008608956603920068
0.020302610009132586
0.03541715835405719
-0.02284952762578707
-0.01119196713201907
-0.001547366067417379
-0.031002924694204168
0.01160495779225313
0.009492547055371904
-0.036795577113771565
0.03538799344058558
0.07524216012940034
0.014245680117887634
-0.05181565981370893
-0.02187364309034063
0.017394413674115653
-0.022006992724595234
-0.23962073094455463
-0.06283772782107842
0.0833914149178877
0.06195534834147805
-0.017107808824065457
0.031041836118429485
-0.11169726547867916
0.04397361063076262
0.07761295612945984
-0.026986833108970768
-0.034317125856008025
-0.11506910729223148
0.019082568661386693
0.004998352764082573
0.007941081976338865
-0.04683770731237312
0.039151686448003924
-0.05417940289007537
0.09205208664015956
0.19294809512569014
0.0223396509161483
-0.017583962462517134
0.029799188750725136
0.04346634115059235
0.01368463207813296
0.13627157570293952
0.008203299811497608
-0.030288495046951476
0.017681367122421503
-0.024232960859673688
0.03763886815715187
-0.05936221833896392
-0.12109995726945534
-0.008529545746570048
-0.03411475293372314
0.012094672450604332
-0.013506050690946386
0.022536692939766945
0.02607802943599581
-0.03497886265811967
0.0118502419280898
0.0028929021843352885
-0.02752180812869423
-0.02853048228986922
-0.020423712741515013
-0.002341979863293452
-0.02333656106722079
-0.005437820601080467
-0.03332308731550608
-0.0031782929311937992
0.0021381620251081507
0.02920495829013419
0.02532241003940226
0.017802483041350747
0.0300721454833577
0.02998943331582737
-0.011178050512331597
0.010570525330763041
-0.0018203726771350876
0.00926685322233427
-0.03836186821831847
-0.04324759725502131
-0.00014955107527103988
0.012300241227941718
-0.055795077995862356
-0.004368249694695887
0.03419051000060253
0.029085147393424774
0.024298599511464347
0.010964368613157761
0.025527268604128572
0.02486314650545664
0.003301322567686976
0.04207782171188049
0.012621774855009045
-0.015612963965343405
-0.03200776495926065
0.013861268721354781
0.04119083156361539
0.023130127784390667
0.020478504712948938
0.028362560624548804
0.012794131851029315
-0.01645876017856323
0.0025208964456948555
0.03475296903500081
0.032244509713766745
0.048758064240419056
0.005378903599883268
-0.0075836926950560305
-0.0421099182539906
-0.0913726376902303
0.04901109262351102
0.042652168482659084
-0.17219576929421657
-0.19858296155355692
-0.04910240345382025
-0.017599746628296158
-0.06280802579392698
0.019108855218556216
0.04649109834748175
0.00018036616344510836
0.01887878765182978
-0.01694819330439686
-0.015883882033663792
-0.05986608499745617
-0.10038216796107174
0.056244412542310246
-0.013389238417087087
0.048310680161745986
0.009165828438192965
-0.07592324257935956
-0.044656412064217575
0.09168594873851808
0.042192170156086076
0.0344093181764474
0.02616106973095759
0.0036351846342188156
0.024630669645720703
0.009039082270943105
0.027161373572560182
-0.0029105550782167534
0.011666105669985008
0.0004781903887557323
0.002902178503664439
0.0004433154702428131
0.13417601738385684
0.1438584750918928
-0.029689252803827986
0.035243580406887756
-0.02787720851415544
-0.0219151801777848
-0.013136276076005923
-0.06225793240520688
-0.0716639073828367
0.017166064657945103
-0.008582720555483024
0.015408969250585948
0.013499100224428521
-0.0298676985505494
-0.007005482277147544
-0.025480036550856625
-0.00820052805122214
0.009664783633844187
0.03621676235214963
0.044249957284131995
-0.05096505890651898
-0.02527280919950279
0.010607593740857946
-0.005433214556220722
0.013967485809021131
0.028335477304155247
-0.018638591582918775
-0.007555204518219844
-0.022312081772841504
-0.0035995107538084616
-0.020658923166478296
-0.0018490121499643401
-0.013854626841367804
-0.047720906727655964
-0.007511001886355962
-0.012731709444499806
-0.04799276744102232
-0.01896809615018526
-0.04482452616288343
0.009483178172993744
-0.036036188542809815
0.10780594608522305
0.19410003018891928
-0.03349879170489745
0.01076571115257361
-0.008095624670124818
0.016893523721155858
0.001355147017218003
0.03380742261210605
-0.03017464060940004
0.01950399630094817
0.14198234154849093
0.09826088860127144
0.038106634900128014
-0.025605279910613427
-0.04314872887964247
-0.035498275225767366
-0.04639049944399107
0.006152732194700759
-0.08728573267982935
-0.008450553943646074
0.00899360361148122
-0.0334882774438008
-0.021494529596022226
-0.005842640200787808
0.031120787417429185
-0.018444423933315277
0.1011599867724173
0.11241613363990834
-0.022139307655928912
0.07269553120444855
-0.09658825035629989
-0.1849975789019725
0.0545982072730703
-0.03920221875343159
-0.03739106362831863
0.010215984292269744
-0.012517133027661815
0.0783162392388511
0.04431130015876219
-0.10978722805259679
-0.09972487212930747
0.03743322511379793
-0.0026013157727487243
-0.016800373592451744
-0.025234288506297785
0.013664456294647428
0.03597163324497394
-0.006495727578420635
-0.02896488340571002
0.03960401959928296
-0.012060608114245613
-0.01042908352452943
-0.030034904379715125
0.0086922049288315
-0.003861995685328123
-0.016880697263106686
0.008463007619587284
-0.01558494555947422
-0.13752055852197
-0.03452179461167837
0.0008352823576518239
0.03336665439952979
0.029890404800831
-0.003952993522231822
-0.01640166906904493
-0.016602298933828866
0.01160352538178098
0.019680363280243533
0.1254116836878784
0.001653044378902489
0.04334460980348185
0.01445296400090734
0.09731060518762491
0.2163748786821641
-0.011938060719111602
0.02076757648716829
-0.022951702541813303
0.017118364941601374
-0.03993660864639946
-0.21900173058126474
-0.0664608082893558
0.02088797495958945
0.006405696635254315
0.045228681467981764
-0.01241903042689523
0.03377571204636693
-0.00011356502576126378
-0.03930788934596849
-0.10397270158408593
-0.10811127467535157
0.032144988840057176
-0.0490063074406261
0.11266018070247755
0.04419790309046926
0.00872574875262223
0.006625304397222513
-0.04858032579277337
0.01703526575916368
0.09168942483381197
0.031617140337626776
-0.02627888833349282
0.011493322561589739
0.03832002158156991
0.03797789434249284
-0.04820989013753254
0.0006334123008738444
-0.01303469477007759
-0.0008691225616063863
-0.0005959767125636338
0.009966766989229412
0.032151159772970825
0.011401586997738956
0.005422109348821058
0.02039684099052055
-0.014421946277854899
0.005550889451591196
0.004175984386761778
-0.014700137541414308
-7.954038842201577e-05
-0.001807298239022422
-0.004540739073874216
-0.018022832216770257
0.012629875309038642
0.015760919642496228
0.006330190345832514
0.01934350565219704
0.03937367991468836
-0.027496328305411648
-0.09360858910349855
-0.005006944052544941
0.0017008008179854766
0.007113937253637709
0.037583204367741575
0.04813828107502814
-0.023968923192078672
-0.12812340741108452
-0.06486266932758193
-0.08886148342296725
0.03862562250738534
-0.031206792075571532
0.0018525322408460849
0.009666870655440285
0.07297675191706562
0.0466653047923561
0.03097954945350712
-0.010496968102133538
0.02403479468057053
-0.016461876653141694
0.10253079518462095
0.005214372022674641
-0.06355250480170822
0.02030789414349219
0.054631010840203886
-0.26280443761852673
-0.08620163495466833
0.06957547061395619
-0.013554314851448429
-0.018885456037893444
0.15559571504307165
0.031587102586802925
-0.12476541140323175
0.05838595405321571
-0.03981179220583677
0.024953705744234705
0.015454349262380596
-0.0018966510178732292
-0.044077331906072464
0.036827152705609593
0.0519313659536356
0.025129085212525347
0.004020551150170131
0.03563184163946898
0.01585836534990618
-0.01351485911336193
-0.0041423516767953895
0.01612218255919376
-0.02714973708159698
-0.14431382492626404
-0.029759741746238903
0.03581951798464762
0.008073130715585849
0.034903995947192325
0.0360252849697904
-0.016649493933209768
-0.030034450721385546
-0.007042365752681759
0.009060735458333573
0.01887049919484964
0.00043294686922016077
0.019473468292448757
0.014828340807863806
0.02524055004604574
