0
0.05543926717685465
0.03212628950026226
-0.08282405162538711
-0.006598278936531981
0.01281380444882829
0.061194390651207395
0.04836485725944582
-0.03522792344630989
0.000817621777374921
0.0048578165396501735
-0.015321029038625186
0.03645008141261647
0.016927714168087478
0.0100008264789768
0.047324253388824906
-0.1329546508604746
-0.09193407746757652
-0.02022885503702878
-0.031391680782317875
-0.0045477011145862705
-0.019440949697625602
-0.011845023484950744
0.02641573202113606
-0.0059252553636684295
-0.04825690152406906
-0.04712473343595409
-0.16461177860810833
-0.006276205076845566
0.019110503352696564
-0.01607689291341007
0.03599936888051204
0.04496545462903336
-0.045752435118722075
-0.00340239115976931
-0.05274874995688855
-0.021277009022636066
0.0369603556880538
-0.0020430070945599856
0.11127486754282132
0.1038128330358411
-0.01961648959238155
0.05812770128811487
-2.0673017600157077e-05
-0.01114768771536607
0.005667451316328371
0.023943770135876244
-0.043720847947533927
0.06163253775552559
0.1329007722649385
-0.01881649322521447
-0.008483103259436327
-0.018613910494814725
-0.017003090380104106
0.00019586503741676186
0.022659121665582302
-0.005687726217190075
-0.002781301158173413
0.04730027396932252
0.01206332919697543
-0.009486929595933401
0.025496658602125608
0.0068130800028395775
-0.010639856689444739
-0.005189504598988806
-0.07616699997129449
-0.00872227723733269
0.023038762708803884
-0.07763707484237882
-0.018499493416526246
0.006499982105471205
-0.022708002644805107
0.012734394361156448
-0.04201657475397492
-0.09970962309402644
-0.02558784531936443
0.015458517251041422
-0.011101870140572767
-0.0618697487561604
0.05944139242526143
0.029182129574673126
0.019185966415770136
0.009515482211819477
-0.007068736676819698
-0.007440542201661865
0.05005739914249092
0.13332799361709802
0.030214328021225218
-0.0001730474719853272
0.0083096032646564
0.02578780950980513
-0.0060979567914624675
0.03334661014476201
0.01899035926453793
-0.004924812419426324
0.005218988867491299
-0.08231110834017523
-0.06586173239097187
-0.009614879967717998
-0.009711016592828732
-0.02256910880906266
-0.013935117095685854
-0.0007483212481107468
0.02746682655857861
0.016412761640341385
0.0114387158011574
0.05824159235092398
-0.02538727644006238
0.004043857550240069
-0.003004736458332131
0.020099656349996328
-0.021268952655261894
-0.004106444591846081
0.011824792509912495
0.002624198254809911
-0.029807603060442365
-0.02411468651830186
-0.02696348516095666
0.03517843263951534
-0.034163522194199616
-0.030604743104229268
-0.03359919991743924
-0.09460012732067524
0.004107044882795084
-0.012311154823475206
0.008474300407726341
-0.014901924491127691
-0.020026999768137425
-0.027084056243744114
0.11358190404328321
0.02365368129400958
-0.01976914734355311
0.07959691611472056
0.03866915081966273
-0.016056895815266897
-0.03985256823588759
-0.008550763871513952
0.10763529581583511
0.06674268694850391
0.014421232357820331
-0.05573648576986124
-0.08902743299609847
0.03390561469462988
-0.011634735780493123
-0.0616990170471889
0.008650262601165297
0.018057726503444116
-0.006359915958307806
-0.005689085858974251
-0.002479867409444256
0.14543092144187394
0.02107891778088004
-0.05879195830130734
0.02394549469920713
-0.014333088089684658
0.034945383264970105
0.005007843560864762
-0.07669438718373559
-0.0018347424617044022
-0.015147060226621996
-0.010702211765147539
0.020129019982460736
0.05615989133994439
0.01128807289545132
-0.02089704362871636
-0.0424406031046046
0.038389429749135506
0.022752575328260628
-0.029708201255127197
-0.03511321571477807
0.055065738231233355
0.08648060699506947
-0.03684450402143552
0.01835979481040698
0.05701184236481853
0.059727567550422675
-0.010156927264357905
0.05292637097250224
-0.1303131024494032
-0.1394601796108364
0.018032002263832912
0.03346928729962579
0.005420132517831733
-0.11043234756845692
0.009076247919675082
-0.05934867697030501
-0.14410757697593263
-0.02933735911988407
0.06493570725023007
0.011058835607459523
0.004864829917848864
0.02967295168917622
0.03162985169854222
-0.04638656287113143
0.030336481768554496
0.059952849411154585
0.00490114454977982
0.01256811583716425
0.0004565758824273974
0.024125582976147083
-0.007104851257838564
0.01961830315009348
0.005546757675384678
0.01685174722513618
-0.019329017197681042
-0.05338361749740287
-0.018799610215068666
0.029525846166502966
-0.05658479593319219
-0.06585319551265238
0.03405531869978468
0.006693104402560556
0.003118808798554226
0.0159998626328945
-0.04691349838014579
-0.01744592059837904
0.05648859405231744
-0.03430444263031514
0.05079248781839406
0.015314771693326422
0.03335582361023698
-0.026964772582263652
0.04614859368545492
0.09550561259471331
-0.03265398159651664
-0.022849233258481007
0.03362197311914811
0.022087072409891953
0.03175469587879316
-0.03550985283129627
-0.05229476698956979
-0.014894283647272143
0.008291700559485199
-0.0372297356670953
-0.028756943821784026
0.026073319466876004
0.007813358713622327
0.006406545912578484
-0.0010330937389292844
0.024834489941720102
0.0158614979798494
0.018933003031957205
0.06299147948648003
0.006993954599471133
0.021224828708838548
-0.013485417327761675
0.013061065601428171
-0.00584492185278072
0.03517049640250603
-0.02555874900149006
-0.012587983203038455
0.028114402995356603
-0.023119093322063525
-0.003406870593208491
-0.03621329724971813
-0.20652056183077702
0.009724050007239053
-0.0014666161806198086
0.03119931507484718
-0.0026430108018704983
0.028521655440507644
0.03435991509407677
0.012549630495490755
-0.017894945292088276
0.025946911905939174
-0.027884939739136486
0.006134349126516117
-0.00938117276535623
0.04837982498459833
0.019478684529489514
-0.0031354519646166873
-0.043536332282838826
0.004612053881429987
0.01036593446141866
0.0188212433498339
-0.026839692198432175
-0.06532590818232993
0.01745069472410142
-0.0009712893983617637
-0.016272447338704605
-0.001268383372619896
0.01812085572553387
0.03960666896520963
0.052949234761755164
0.026368643440487515
-0.003313913373025356
-0.037949527312588015
-0.012090231226113175
-0.013863134519820363
0.018915688395428065
0.00294390554561127
0.0373451671058617
-0.05977811256217491
-0.10484882776845987
0.05085205879573118
0.01460792010498226
0.00412348123266775
0.0271016574698205
0.0338130202320405
0.000500377981766982
0.017975394019860553
0.016365683603420313
0.05445207170648763
-0.0004833029643262954
-0.007661767813831487
-0.019348678775490163
-0.0024296787899355647
0.033022568545188355
0.031980773224492075
-0.017368539620509098
-0.0332419319844999
0.025047497534063424
0.01719811227753306
0.01838875984858236
0.017157054538046702
-0.13793795571119227
-0.03248641245054143
0.029080040238483113
-0.011034712683767215
0.024425097086370556
-0.06377118144987799
-0.031215744367726363
-0.09389203381626042
0.015978807346534396
0.08525828808940313
0.0015842582278081255
-0.017173348094703424
-0.03853948265961618
0.056305012448879845
0.008142668459048217
-0.016817685888353254
-0.00537986831535103
0.025237864359345774
0.008906956564663853
0.04862049872375331
-0.0011268764333177306
0.01337913137978735
0.027394757644106715
-0.0535248046727703
-0.20732180887924684
-0.05240124634721422
0.042080466625706886
-0.016082013400297513
-0.02169773104163102
-0.02456957313452608
0.07112522178964494
0.008513619735236155
0.0009351141639512072
0.005539464530407474
-0.010617490079397737
0.018743592895522153
0.034420957729346405
0.0799159032586211
0.07324405446706038
-0.039839442879128564
0.00397707382275238
-0.021399416809611584
-0.0036076638503042234
-0.005202892088724328
0.01079983717455373
-0.02596389864036077
-0.11559594622176879
-0.023431941255328263
0.05264498175800776
0.08156976991274491
0.00863573016182908
0.09649496652307932
0.08819481780398394
-0.07255752342506225
0.010020601573933835
-0.03380680591300201
-0.010678217765455767
-0.0012407882161945025
-0.025513901326705824
-0.015081677311488172
-0.010241169266325007
0.0013488480075478512
0.022474828279117592
-0.0025826471374595233
0.00963347654078407
-0.05070344643663203
0.046485259244202236
0.011419444573947854
0.0027397285261129114
0.08717161302935732
0.05861457850447725
0.0021950312755661845
-0.016837800601863677
-0.01716521308868315
-0.0009150310737145998
-0.0006855936991123907
-0.004814708780614398
-0.027480003154753532
0.020868214751461136
-0.00914442875478312
-0.03305768251754774
-0.016134128847811166
0.041111229324799325
0.03651439207200537
-0.000821047457530608
-0.0002087823467649675
0.01243294351786778
0.03215166319609243
0.01877604435350843
0.04194870058658917
-0.09747643179076525
-0.04111359118695534
0.022124317776936853
0.01465468117506971
-0.004650102643259041
-0.03179291748342305
-0.04739428262030175
0.06322815262489218
0.02994703490582296
-0.02642042711704956
-0.0024095439625302804
-0.01984051976721315
-0.056605488249089134
-0.04340100907216333
0.025982696116767567
-0.011362651012212224
-0.06845074763142418
0.015237465400375502
0.02304984969328521
-0.0005406659043113645
0.0173020441612581
-0.06902997168643198
-0.03115233198902858
0.05553473031161445
0.01885965305504285
-0.024714049341983665
-0.013185491049953904
0.013289885565446828
-0.0671122307576516
0.05178216582176505
-0.06256157464727741
-0.05640721526302955
0.012110002683793475
0.0170644166460761
0.026573253509978342
-0.03049579068169744
0.031227332525147814
-0.012633760267867876
0.05735323131140933
0.035689930908885434
-0.18629415022126697
0.07015615220622534
-0.059983105451660995
-0.05582684505885919
0.1438015917105724
-0.016129310402769752
-0.021926881566606
-0.026375458162000178
-0.01171302554095263
-0.017201980132267453
0.0262278317086046
0.09209036348578652
-0.027888113399473724
-0.017674345068363986
-0.05397355041572159
0.08450649987455743
0.04161437712333945
-0.0471832477060715
0.10019330221597403
0.19082695372407038
-0.021016970167928594
0.014064270261056205
0.056826413522768064
0.006862041361171243
-0.016024864827458515
-0.005104247490153129
-0.019710068256201106
-0.00807180642494788
0.011863002721261819
0.04238964691118855
-0.009576001431156153
-0.02296083645052057
-0.045882715753493564
0.000780679203773502
-0.015445845586209013
0.0003284675698843869
0.004440890996484797
-0.014488408861765074
-0.011881092061358102
-0.01124087424241062
-0.005562086209482068
-0.007427021857446657
-0.02136336768734126
-0.015901039477127534
-0.006320872856024752
0.024552196591642962
-0.013213162743720466
-0.02760322524950868
0.0007978897737202158
0.02941089480601282
-0.0007676989686062174
-0.005231255178167645
-0.04211807378644863
-0.009862222146128714
0.00019490200602333187
-0.007423169473044966
0.03792109676692587
-0.016060032064648018
-0.08263722026981897
-0.01853462314445466
0.0509413292833879
0.017264578240739927
-0.005613973278370575
0.013140304839521808
0.0048531889185659425
-0.02516937063091508
-0.02878369922756308
-0.003362724725016676
-0.004848302757182671
-0.02072211740099245
0.023329612327173406
-0.02943789718705292
-0.0009323300027842494
-0.03474776276428677
0.022136112956078226
0.02356103759829828
-0.009640040577210497
0.04857805208315254
0.02209840792687706
-0.017932486716966362
-0.046515816356216856
-0.042114336461976584
0.017928652803611972
0.042096334987081645
0.0046985834590228285
-0.03874577474231711
-0.04558780320761226
0.20515430086518258
0.1261966719605168
-0.038014752514903646
-0.0614885724934222
-0.016923140748143953
0.018835487642492918
0.01708342290586858
0.08989525209844461
-0.014649696262532675
-0.007896626454874137
-0.029425607593821516
-0.27920191244445464
-0.07529474985224491
0.11217343603739692
0.25993276545633137
0.023154618934084575
-0.005312306229202877
0.040963539387312654
-0.11150634251846228
-0.2131005183298246
-0.015850747996313704
0.061635495505047856
0.09512714647074602
0.020563710947306368
0.03886000555331929
-0.0024002932087157495
0.031451854974256545
-0.022034666346792797
-0.04258076963756642
-0.05456687496656748
-0.09391190644668825
-0.030146773881590917
0.04278970744393076
0.008133748537953695
0.014280629663577479
0.0005367155422564577
0.016342791067640274
-0.00764413281401122
0.032061787724690614
0.00491588847129795
0.05100314868502996
0.05495088331095984
0.0022992547280355586
0.049218938268502606
0.022237469638163396
0.0022435584588821346
0.0077626674239395285
0.0329525217800303
0.005346495749440689
-0.033150906582271766
-0.011264757370418911
0.07624956785788342
0.018368669922609816
-0.033767886595505496
0.024380115153896844
0.03090423715620729
-0.020913070836598557
0.0075036870596982995
-0.2031454249515052
-0.07663561570521535
-0.07156645892054385
-0.09996662111014099
0.03864022472352312
0.018156495663068397
0.053159686639614886
-0.008558655844013706
0.016610666275936697
-0.04659504768771695
-0.027606323043870493
-0.007235092013582571
0.048466227282243986
0.059268485190318305
0.0018572889484301084
0.0038259918567692163
0.037026547004737405
-0.049053835030870525
-0.0004304347613988064
0.034852366206703664
-0.08248176530701593
-0.012525503936941301
-0.16325939120671723
-0.08551489623726588
0.04609506126512056
0.04909898693195379
0.025705284130124722
0.018839195085435273
0.04968026935820424
0.03379874534319006
-0.01826532782601768
-0.01564110616416616
0.051203240564536734
0.10501236042058464
-0.022304487918016012
-0.017389972954847923
0.02211970422120678
0.024784701901022825
-0.009505680416123567
-0.010870030039344846
0.03803335880364994
0.03521775318115666
-0.011403474802301845
0.011096232839847103
-0.012296809939061609
0.003650551380669961
0.011679537710374254
-0.009004654031053227
-0.03519742891361979
0.05354219753991791
0.040761402907942855
-0.035446002502002416
-0.004641689764026507
-0.006546998416084461
0.04372309407884045
0.022355965385002903
-0.05326478807118591
0.012731420744925954
-0.011391230183459304
-0.06050574977377651
-0.012070932164681698
0.018581768405360508
0.0038568350321816977
-0.010456231495524451
-0.015412671978445975
-0.016341843307512982
-0.010973759312662663
-0.004011722214471106
0.010443092256130571
-0.02503371493931415
0.004142785649553741
-0.0063296274243919495
-0.0477550708954348
-0.053304444623935986
0.06899172935133065
0.00765735200061754
0.0832012724405754
0.08952695164723642
-0.01079240241445394
-0.007292240118389303
-0.032782213560589184
-0.0046086147664073035
-0.04471252717612069
0.07134568787202279
0.06765284622199949
-0.022805186199042066
-0.054590358540550325
-0.06033717746782951
0.01973918876430344
-0.06148872492236513
-0.008392564910291273
-0.007303669406007799
0.008825226845431378
-0.03939784241829704
0.113793334390214
0.10885875344819575
-0.020119876898247627
-0.020982707225076683
0.004233777179050616
-0.031964872717167706
-0.04487266286047117
-0.03560602320077178
-0.03184618258105168
-0.01625689854422237
-0.0036499358560329116
0.04633199509313619
0.005501960153911625
-0.001824924957806941
-0.04983152127952119
-0.05695534296444084
-0.023235343261360147
-0.06321475539885611
-0.010737538115789341
0.01645860902186854
0.005318135333271815
-0.017750821947729038
-0.002736556803239299
0.042779496402742846
0.15406609045985234
0.08360498546010979
-0.01716009005122669
0.10961782079029346
0.012652795378122311
0.0016215372307419413
0.050987858261002335
-0.01583403970172296
-0.02477305661797034
0.024245890432769146
-0.007010347361207361
0.013473654706652854
-0.019654029550107525
-0.015956449840331524
-0.015962896685350402
-0.08388393245736611
0.017282416889568407
0.014276625543801337
0.009737089959470306
-0.01072136798908778
-0.0167954265403159
-0.014096597982097307
0.0037815765270884805
0.011069418333640443
-0.03001919819586433
-0.03178407855359079
0.059639343380570906
0.01738537054660823
-0.013307208931820386
-0.025042913863908934
-0.03780219132640913
-0.03954293787957176
0.015128303201390681
-0.026951660278731603
-0.03637484944049556
-0.018779414713971584
-0.00383971372591476
-0.008387426295561572
0.004302151634575631
0.008206086648562027
0.015502671076746539
-0.062139369160744036
-0.016894374303951215
-0.03921292211167254
0.0637735319635473
0.09828484790526147
0.010543975077016002
0.04121362824083502
-0.007166763347294261
-0.013542973994523947
0.011608018979217434
-0.03366860682827288
0.013171902615560331
0.1179655632893912
-0.007253879363122716
0.02808440570286567
-0.026880738154808043
0.02823272350571811
-0.013955323586423879
-0.13428845445919296
-0.029383861063081093
0.01646124557260769
-0.018662925107249533
-0.000969455854083177
0.06658365743144957
0.003906731884282753
-0.008018485559615405
-0.02218771980095019
-0.045970811900037274
0.02054941253651033
-0.009145374182741531
0.019837881159081774
0.0011238294361845958
-0.01779236536347747
-0.050545754542005515
0.00951233992058509
-0.07220481101060648
0.11339465371711174
0.08593884814989998
0.008550186291573744
0.029581723268589065
-0.0017031288041635408
0.0066847916720186975
-0.008539832778725564
0.01580261295216942
0.024564764873232996
0.019497325591472995
-0.04263049878158815
-0.23548765984958284
-0.03425755557939182
0.028516591373420566
0.021332510804153455
-0.00530770800666975
-0.00032831960067619063
0.002142650656044427
0.031134967188978256
0.016115731672099946
0.008382764527241633
-0.03281409630364819
-0.00014713025487362785
0.02441173926281371
0.0033077762954887005
0.026527934341109893
-0.0383123827779079
0.018652250155793654
-0.022838396583181528
-0.030397285532210713
-0.010264545317660993
-0.012134096012475287
-0.019997051347144988
0.00369117337567064
0.016545425265311248
0.05764060419242319
0.026201690758326436
0.0878225691268047
0.009282880995719348
0.018653628865615113
0.025633589504963278
0.03076086421544883
0.06327562664086041
0.002569989185335906
0.033562086508755286
-0.007731333218863651
-0.01710155212859664
-0.022430551601611018
-0.012054746419439339
-0.02191014378443792
-0.0236321947627718
-0.014205915015744402
-0.01333305300327001
-0.00012258337841019364
-0.013174886254037007
-0.07270841348321412
0.0004200200516371446
-0.009204159449938418
-0.03362260902472591
-0.0030560178640140065
0.005577889702233212
0.011031405271733512
0.017042412503030065
-0.03593920901532196
-0.019704966902719754
-0.013151572836022463
-0.022283161986402258
-0.025110193326817465
-0.027294082472227022
0.00439745333925136
-0.011977982800137068
-0.007561007848251769
0.00241090883192501
0.02128248235277113
0.03254989708116926
0.0018986900368494401
-0.0016268968836008321
0.014033436219444022
0.011917298461404316
0.009649775760158694
0.054172771078926533
0.007927940907898475
-0.007794522271255924
0.1559896178099772
0.006146654745894763
-0.0249870875172431
-0.015251134366552472
-0.014497056482849267
-0.012118708935374615
-0.00976477859604388
0.018856557340269604
0.013270571798489509
0.018105751110140917
-0.015566360127332951
0.009099500676054646
-0.010571339886848172
0.015820428119291782
-0.004465790772497317
-0.013789186788494811
0.026083095696441978
0.0444559337307715
-0.015178381066703743
-0.01548214705294165
-0.023350311386932745
0.0035588748638788457
-0.009726617839437726
-0.0014220095664809987
-0.016066364042597387
0.012037189900880974
-0.003861881778397203
-0.03293128854221876
-0.03247149055407398
0.029519273310339756
0.009135676646650133
0.022130252444079176
0.027803268176437794
0.029702116917454655
-0.013288118676828449
-0.009779604549374836
-0.00525423068684229
0.031601306321678395
-0.2787078918196628
-0.11151566319924912
0.015139534110430283
0.0013972896691994891
0.024783054281362408
0.07870533729535338
0.031389588663898384
-0.0006048258528041054
-0.01511243403670552
-0.06313217624937861
-0.01157184241011271
0.07464627913708059
0.015285945939203642
0.01590539439539359
0.12619425989486388
-0.020709876831433983
0.022344996968044845
-0.02959404460881633
-0.0172692679346606
0.0075231689486898795
-0.06317231381038999
-0.05173760222865477
0.014239804710211544
-0.020649642808379002
0.0003234786967120667
0.009740456900105391
-0.019116766009487553
-0.011805257006107071
-0.022363444723715802
-0.007048640617536512
-0.006919299368976253
-0.016543838143889003
-0.00485301133227904
-0.010288524117233988
-0.023776613600632355
0.016679410317524356
-0.010946771765102205
0.07728140383286462
0.22010041218390264
0.02648337175773828
-0.0034082550801992732
0.015009692072589391
-0.07171539874630194
-0.04635982190189153
0.033152868672372174
0.011037755003136026
0.005388051385103496
-0.05682586384613966
-0.009592258621894795
0.08741402220956264
-0.002898868209541801
-0.009531238821255233
-0.01325464907981086
-0.04256375571669307
0.03962039309389043
0.018932959424519048
0.012043709543576095
-0.0068046396331491715
-0.03365984934845337
-0.0038336183124542495
-0.048611044022485776
-0.059313899808318866
0.2049681800738606
0.15257075992935226
-0.034692442080046224
-0.004671179556607011
0.010110093259888719
0.02493089576750146
0.0007304255499145005
-0.05279652724260048
0.003902371435689486
0.002136490516697243
-0.03184261879580714
-0.008728642994347412
0.008246103446828565
0.026409655888147383
-0.021728639849148846
-0.10364564075075484
0.0011378592883173704
-0.026432678924956
-0.16418238688410544
-0.047177487287268866
0.11840357798692006
0.07189667231705525
-0.03464538902119493
0.003796099838127423
-0.019629485040158125
-0.10501730402580597
-0.02644484711214154
0.0038044969020153505
-0.0026112927102898394
-0.04297719531020216
-0.014776190256413465
-0.0034164997062126837
-0.015714254195264326
0.017362297637579294
0.010762231984369305
0.029416428413046425
0.009333506784469143
-0.0046057281655369755
-0.019861039564484265
0.03142765545794665
-0.008191037814491051
0.0016828265795242729
0.053236847561282635
-0.0011897780874123793
0.02124696759759957
0.03200666271306854
0.0075272122933966595
0.01480764089304572
-0.00910621809994942
-0.06462835125182408
-0.04550635326080753
0.049707528379514164
0.14536318974832724
-0.014022905490870274
0.010355804879436123
-0.012954209228336231
-0.0220131092463623
-0.01994365572741033
-0.0038407585219793878
-0.006717997343921584
-0.008890743015132456
0.004261654769496493
0.013172174434974433
-0.029532409796460157
-0.01213016776759068
0.033701824609919794
-0.015408570655790873
0.007142565803844286
0.02857415096128211
0.02089519540559431
0.0029723086384974345
0.03996486790388118
0.016372138465826996
-0.025448905529230403
0.008872742364140422
0.01143705229440828
-0.014740096019831325
0.010990773954710233
-0.01627337027597921
-0.025197176251693633
0.017591142491321158
-0.0067751646580853885
-0.008568019877683315
-0.039641759994130436
-0.05275158984641215
-0.010234840852884659
0.010976235579710858
0.005845156320100646
0.00190848169812836
-0.0012038600906427895
-0.012656286452560445
0.005529973580775843
0.02376504355647572
-0.015610771992904152
0.0066634558255691725
0.006616891874001667
-0.00762907069621658
0.018680898403584268
0.007964202811584989
-0.002814603416722706
-0.023283866355474907
0.015651751903161815
0.02022080610171124
-0.015778982804180334
0.007896198251531554
0.025406816660911328
0.006152242075069083
-0.003968879314014741
-0.009413272693445867
-0.005098910336376794
0.02419250169267052
0.0054818319434121986
0.012101982204591584
0.014712159916632474
0.0041848300163306274
0.00011363783375914488
-0.008535745728303248
-0.007961096340929135
-0.00528904563026355
-0.0032729594616293686
0.015700109430999424
0.015800023988347435
-0.029668995781792048
-0.011797161709727746
-0.03046099354616104
-0.04244313330221299
-0.032528488632555086
0.005877137634585062
0.029796639665253533
0.011342334790940666
0.022602153340786753
0.029012837238591913
-0.07272695883414237
0.05939319552557486
0.05329633333947124
-0.0012605489043155153
0.04210851030170418
-0.09000665188051032
-0.008227567350617478
-0.045566337615602456
0.06447935253488915
0.08352057296135175
0.004635564344377595
-0.048568591169958514
-0.055725227854088025
-0.15341632145452072
-0.02231263116141706
0.02202674769584431
-0.0737358660478819
0.052866896913977286
-0.013169031944008334
-0.05155288511407071
0.007609736984932078
0.016223626790979412
-0.012611443004785321
0.042289733746706436
0.0037600567400355046
0.14544180264785253
0.05577673113999929
-0.056229241311851606
0.030218057251945124
-0.009482451707674219
0.02921127211887696
0.00624014724513722
-0.019114983839237213
-0.03048549491593378
-0.005788094208730338
-0.005961501684084431
0.014851175285775545
0.009206452635855532
0.019803595402043753
0.0045415129243562505
0.013634801312959922
0.01067690476408908
0.02353688733294581
0.015027781927401243
0.02292231385767208
0.0012330662074492523
0.05722912645174956
0.05984591051129968
0.002691493132546736
-0.0137141586833261
-0.06656282877498486
0.02138356751720763
-0.025827028711743586
0.025009865428656294
-0.008284743418434036
-0.050275715781215695
-0.02003221400788398
-0.1488489337071276
0.0608198658077288
0.07980516439775087
0.020034201262096568
0.007191835890083816
0.04367674636605327
-0.22961444288605493
-0.09487727520831646
0.018795853568505716
0.01483517333927738
0.044810817217970055
0.03268688723681774
0.014889266260895817
-0.078893423468124
0.006717401679499944
0.0007063958826915045
0.008790537019101803
0.03275069306175429
-0.03347630164549176
0.002345369006344897
-0.005903047739774523
0.020301940071093236
-0.006022332948130595
0.014322277999744787
0.012663225506031129
0.01875651408361197
0.001066590994964173
-0.00026163015849117776
0.009021244237462998
0.017151404006309396
-0.017428653128445142
-0.010473154998788868
-0.00992083608163779
-0.03434865145922662
-0.019307731073136946
0.016762218933025333
-0.04768725016917444
0.06061051315008396
0.09547449217302516
0.06423020471083644
0.053666325955289466
-0.025664736529232457
-0.06522064010560041
-0.045124648427123076
-0.02357586660321342
-0.02448471257236515
0.004736627145585374
0.023274393513932977
0.09155264914961768
-0.00036403585498577794
0.027100579402555402
0.014700014358704582
0.036063442583006894
0.003052073469089843
0.04493407396847969
-0.02485873470816789
-0.055797604299635345
0.05347469618634978
0.022086832432694714
-0.10853714735150337
-0.04135267613681227
0.009603017788708555
-0.024517761751180814
0.02272606327726633
-0.007716406984720108
-0.03673217900104694
-0.014059384063338957
0.004523811120543008
-0.02973173912888786
-0.0007731344517112918
0.012455495357281401
0.023741681068185756
0.00198796968605017
0.015468964501395495
0.01862335687599042
0.020143856360271165
0.001052833663789858
-0.012568913347749192
-0.0009717934672452508
-0.002134638020619368
0.005227621378522617
0.01430251401108573
0.028785997789058444
0.0005240319446285195
-0.06399525378428794
-0.006555125533161566
-0.01953449975356623
-0.024218242751548266
0.009260363268652937
0.017699267979125875
-0.007362585092091395
-0.008953831171790555
0.02524632549509253
0.038468881636621176
-0.0406895532435451
-0.0693467649169035
-0.08443744070945612
0.01353552736500382
-0.11115168807069242
-0.12546026405459143
-0.006136706445018948
-0.05324883133370744
0.13800909320317212
0.25522939411874657
-0.0679830433954286
0.06938648603421098
0.045862547072644436
-0.020580212639241986
0.0168156889464488
0.013132335810693946
0.0157617416713096
0.04297730873232908
0.022402265285128904
-0.014307947191718613
-0.025852759079585834
0.005247883096091128
-0.013172722987374971
-0.03090705246039378
0.03137636685673486
-0.016165094658364708
0.0307457169236535
-0.056708526036606914
-0.07182300134356599
0.19791129656852444
0.08040288442730127
-0.020987534900393054
-0.012091247069950753
-0.05555468173497687
-0.029193006312423404
-0.022886854231171525
-0.010735173962673823
0.006838948538117949
-0.022453573857063463
-0.007909991087700132
0.00909004460496802
-0.010215459551892426
-0.012445067459194306
0.01168091546136118
-0.03206956060157437
-0.0326897838363954
-0.022091653862883028
-0.047768875503750856
-0.040207150992704783
0.0038331582863153817
-0.050543029197667594
-0.07574865326732179
-0.0013566901839129147
0.0028563658195351876
0.04699120659367225
0.014983226637692153
0.06454123703060062
-0.021522995344691796
-0.00934209592849162
-0.0009931200118023173
0.10608981493599635
0.022807479876394025
-0.009566022568242183
-0.00406642446518118
0.049760382518120816
0.04105036649603326
-0.06560313094331553
-0.013188245650889982
0.21022495354576168
0.13861933235532123
0.0214257093678876
-0.007843489023333552
0.0208941390433507
0.05024947056949405
-0.06580480166939584
-0.13082849285192757
-0.011392893269432044
0.030332611960920696
-0.08614952695626747
-0.06647866478976894
0.0036498154724864816
0.04408335565927878
-0.09906727959376911
-0.028239828850281718
0.08023267062096798
-0.027236870066144437
-0.01630468103891614
-0.09019495379900715
-0.019069859881611917
0.03870853738740421
0.015427348111663203
0.038401698102211335
0.019783495847371397
-0.00043171969263153205
0.011462818301287092
0.023195875881284685
0.024462399787285184
0.016392854698045713
0.029189206627639974
-0.06618063558074873
-0.14632732529549752
-0.02331162121986113
0.02344890072509581
0.006487951525271622
0.04627885629644514
0.005489683110252942
0.016835010649376404
-0.011088287916772802
-0.02441537468165947
-0.021560813825436426
0.032940864236310534
0.01072231986606587
-0.11913091458426339
0.0016383876270381346
0.01678722954973985
0.0011897888471652713
0.014899229746199007
-0.012421635262715466
-0.07349844659794812
-0.15285037196241882
-0.020177139084454534
0.08675117630154236
0.14667740027910503
0.024004756530267575
0.03963072042761155
0.07751567002165688
0.009385165654484167
-0.03553271295131718
-0.014671003893474243
-0.009223418275390373
0.01254408162414777
0.0409077340948595
0.010795781615273876
0.04488127742452026
-0.01731810840578297
0.007120427439308427
-0.0037671732423642827
0.0002898793856240749
-0.014509848818907264
0.005483151448776512
-0.027717088001525447
-0.09889886074812199
-0.007192746517529773
0.01789121444629214
-0.01149864649910888
0.014935717377541303
0.02008234630960889
0.008943690961509883
-0.008267266822473751
0.021106263848367796
0.014718685509889097
0.059711297259259256
-0.02261274529761866
0.024933635435357114
0.028298528615390065
0.030284221992264507
0.12403244869355894
-0.041385405839632135
0.04047140882254434
-0.16641757902553672
-0.13966685636417364
0.08229683501009638
0.018569287536336007
-0.014509076503272126
-0.017185523886937323
0.03399748297588867
-0.062340539298865405
-0.022957468979994632
0.03197603061644703
0.021485911925152222
-0.001308994676773217
-0.023363863907605652
-0.04277734610251902
0.034875006452466516
0.03790039578111112
0.03080239065727986
-0.006332094542182646
0.04429482449538203
0.011463433491709843
0.008226882110766956
-0.04734578445146964
-0.001015887111913051
0.010593320261082026
0.017886576909714184
-0.022520146778788306
0.0030691135503939895
0.12806510645715405
0.056101904264338295
-0.01655492757651304
0.0050282650328776525
-0.032933766676927455
0.046784217379581605
-0.06005793593142961
-0.09747351489986432
-9.545383477117224e-05
-0.0034350159997766157
-0.13895273836768518
-0.03837291723911363
0.021589116842084772
-0.16789924539360812
0.020522593769868425
0.025635499130668805
0.015856802545189314
0.020930498703344298
-0.008120762985742746
0.003146668980522147
0.008499126923595036
-0.00045673603438721195
0.0020514959780090934
0.031174738756623882
0.04485621442256233
0.006503818507190433
-0.0007926168563842835
0.002637395695143674
0.0107433148679778
-0.0065748024059189576
-0.011097012807392224
0.01594658272193583
0.023768493724643302
0.03795616727432451
0.03195465611760701
0.015470557910569737
-0.0009796887837743146
0.001555963225223259
0.03533283526610569
0.025027242832720013
0.0021861677041161245
0.048490858486486016
-0.05597955685502155
-0.005407673079529423
0.03337624001126293
0.0009223272121925843
-0.18094216159950569
-0.03953022166805606
0.029918817931834575
-0.041378492395859494
0.04370261237224373
0.026342817831515423
0.02152436297280981
-0.002630742153546312
0.020115392727544777
0.016170592555830657
0.01167860916444081
0.012121360942133867
0.01207442301409699
-0.021720444485163484
0.03561837936763652
0.054125695151783906
-0.013398688426911142
0.0102830373981775
