0
0.010274145740119658
-0.016491717279270797
-0.02400220347882251
-0.011750872713784465
0.002676070132006793
-0.0024809891000408795
-0.02484754590222357
-0.007646576760673604
-0.007930714681344105
0.0031352967699418087
-0.0068188021818696145
7.400806454455782e-05
0.07728976067268976
-0.07388782003447686
0.005410735879654816
0.04500287813592001
-0.010880296596949607
-0.09125195008026084
-0.01775766246050238
0.03630305211065145
0.030586074757279227
-0.0211425854232939
-0.0041656477764251435
-0.04462726545072696
-0.005544016655632312
-0.005984983060785042
-0.002377586030499393
0.008327955773233149
-0.02158215675189583
-0.019465778163334023
-0.04216824892844521
0.013110316265495406
0.07067145800041105
0.028147777776878557
0.007481215053615219
-0.014694414509567292
-0.013796024706326166
-0.011962102675295775
-0.007676927356101144
-0.0939931274250248
-0.05398193243363185
0.019310998379070993
-0.028228347424533468
0.009062719786884233
-0.007135802038715532
0.0017753341093218634
0.0333198113074071
-0.009920423779191289
0.00025631091883325264
0.005332953761857881
-0.015574290628531636
0.005826686449406101
-0.013184000078836942
-0.03279860019255267
0.007226588356472487
0.05406380176328162
0.03489624533702464
0.027619369675950606
0.005134152041809248
-0.0014809645382579124
-0.005488203147636096
0.014782903580780106
-0.018606027068804223
0.04873749374863033
0.11043106417909697
-0.010698619685781218
0.0015950126807451452
-0.05475248599455436
0.06102679816021714
0.1554305694160542
0.0027423356193793076
0.006729295495830366
0.07534378694876769
0.14142915687917723
-0.20703603904751333
-0.06828572967443866
-0.18107719518461143
-0.03883464652607121
0.023973421232229963
0.06256184456376332
-0.07167255060341865
-0.012898732180955358
0.012895093300345599
0.021720215438374137
0.002144369064163817
0.10989620751661473
-0.05317585222785992
-0.06027220825897336
0.025101992289053836
0.006282162770832749
-0.00540956568684659
-0.010048647599791507
0.030303828666249404
0.02783595334203543
-0.010711563990338015
0.06097642990051346
0.03502607374650024
-0.012933970140982418
-0.1538964737767491
-0.037233658309887376
-0.03671483672551863
-0.01263692200170705
-0.005778160108669205
-0.024945696267735858
-0.007380516277132208
-0.01869093393119293
0.01648893084698609
0.02092210367674602
-0.016951328810565804
-0.019953388280277932
-0.0020763578498497843
-0.007492037317290654
-0.0149851145752103
-0.026492137259822024
-0.008549013179779826
-0.02879400933308317
-0.03316585258620781
-0.007209730369470865
0.15624876130118787
0.03933522651287634
-0.032063423752688745
-0.046890663379147685
0.10120556406612614
0.028784001038695148
0.009198603453724209
0.031197808857673884
-0.0115198719704903
0.001134006799959656
-0.038480633919877834
0.1352759857601709
0.07391944155914507
-0.02459117300034703
0.035575480683427765
-0.023364916036053996
0.06115686485071601
-0.011404014716873537
-0.008374834783599988
-0.03838880615513897
0.010275252662024635
0.06537766367005818
-0.035873046859513126
-0.03015781303773794
-0.017877282187180592
-0.07334073827383991
-0.00984223158948899
0.010975524278848889
-0.00021232419076550673
-0.0037885337197878744
-0.03485870617048044
-0.04553648198239558
-0.011531135852895466
0.04261947764550947
0.005568765405447071
-0.11992879897015901
-0.03356588505281859
0.017237175297861975
0.003973112890192582
0.01912048971110759
0.012988067613772799
-0.024881885884244132
0.01263941552779656
0.01443011231250562
0.023030467801678944
0.031027956677837015
0.00021172981027795434
-0.06705214279413775
-0.033919048705062016
-0.04749537012968645
-0.026185367393220242
0.04823199537490339
0.01552169048904529
-0.009749925747703312
0.02206640271721906
-0.029212031520970388
-0.08786990142829398
0.030908301602730313
0.08564472323057111
0.004988764501532238
0.08747920838835933
0.06348299821059918
9.223848792137315e-05
0.00420008065377213
0.021006639623290014
-0.0626801270042645
0.16650536616608497
0.18843634323842948
-0.06191992188509069
0.03213912678633593
-0.028673280316518137
-0.0181367705409124
0.011868927944575863
0.021978344676107528
-0.030672525987316426
-0.018101634524055422
-0.011959765719832899
0.011856014218253889
-0.033879549090846776
-0.0933360232129677
-0.20706986796178295
-0.18374157367118762
0.017556121160530763
0.02676935864325669
0.08178917833835248
0.013946663235208897
0.012285098302121687
-0.0035098614874458822
0.0018356585012035552
0.07830205584824618
-0.02271531110317989
-0.03025191633903838
-0.026525978006002062
-0.05028178783662924
-0.06495070967992363
0.01785067885316434
0.03153295315726126
-0.006559658051961421
0.0006837431667699709
0.009641590422919314
-0.01294835233968426
0.0037098063735364847
-0.0007007190385639779
-0.015415724383817605
-0.04889745028763186
0.013256324608595453
0.0017144928216051693
0.012848570884241685
0.013794164037529047
-0.01673640678907485
-0.012747118157506118
-0.007230803818521584
0.018561355398350243
0.04910797614543604
0.023970428169493047
-0.019038500016036762
-0.0074494272477394815
-0.020227498832717513
0.10207177454937409
0.036067338976608215
0.07114770350279952
0.03227996098890995
-0.01815470324596082
0.19956525913363382
0.05799004498718672
-0.018270212185017128
0.010993015847627437
-0.03196297487942172
0.0022964844728407766
-0.03770647527932868
-0.05179485849489371
-0.039976569691772955
0.037157632690480294
0.044611993988664105
-0.004860447756397254
-0.049490484264890534
-0.03484643333913848
0.010217153912932979
0.025685350881835767
-0.016228679114021795
0.06457735503305492
-0.0044437054173682156
-0.03744877092702084
-0.06287794978215938
-0.032999251771341866
0.17748063416657256
0.06162354429988815
-0.23479220584506794
-0.21960809836154616
0.0805624502298557
0.012710975052588152
-0.04050668050581031
-0.30154995260518674
0.016633383031786166
0.05161351608007611
0.04337408413174263
0.14773902658116114
0.04587020023106456
-0.025565059928554366
0.021173255681530584
0.04578513846815868
-0.020379054793315345
0.015773765690934045
0.0280129580694359
-0.11682280529853026
0.2673725678018821
0.028493464092316782
-0.003933597898934437
-0.08481175922011235
-0.014894082633296524
-0.003700047717968671
-0.00996245000708118
-0.031639714720642295
-0.014551507521293333
0.014926261959617802
-0.01893065747963615
-0.040970119097861905
0.018464051141418296
0.013809386778528951
0.0011297091903883915
0.014322260111544787
0.036896394387030504
0.007021932222187753
0.004679612835043652
0.0013353137873807553
-0.01885972121725897
-0.04077312282995679
0.08789405343823008
0.04135092035089757
-0.01878730910110908
-0.025789825073224894
0.019110920779010585
0.0009810097643335042
0.021680054479092093
9.703391563133595e-05
-0.024467583591287274
-0.008178978227502838
0.0833805661067839
0.034015456702870664
0.009670951134820385
-0.15446843807088226
-0.14569503114593219
-0.007658848069319664
-0.09429439143982814
-0.05001960686967543
0.004104136090734266
0.012704570871662279
-0.01429903805934802
0.009267783632804685
0.00034022249360883815
0.043036669880484324
0.04366032564319489
-0.005887374256437584
0.017095564996979205
0.028486453834278603
0.011540186440234053
0.06285269781409523
0.0522438108675422
-0.024723681372962873
-0.006278760905318739
-0.03071582081030343
0.029772512059668042
0.011920758417793772
0.08695603167013413
-0.013662352028104528
-0.02453711120288091
0.022714825442253624
-0.028550321545315806
-0.014994658119236472
-0.08071676634553256
-0.0262023424321891
0.07380171422542674
0.11776203739991742
-0.017470633559168995
-0.008511545581379138
0.004189597283595984
0.004818497201015031
-0.025241608055601713
0.04410734588365546
0.03994172230732774
0.07763695626930298
-0.057121377068967784
0.025442596057635953
-0.23533534396521436
-0.09209255255447382
0.05369133093781346
-0.008126291228620287
0.009714645641536889
-0.032330933955577616
0.01587750963404313
0.007263934787542303
0.04234044356468219
0.07971320209652188
-0.020707762773634005
0.0074588256836852496
0.013271267862572572
0.006280532683536782
0.01334075614920146
-0.005859064663845465
-0.19776089497576815
0.030468606399454794
0.009491870801267953
0.02025758533934554
0.021975482929981936
-0.0031607115923394415
-0.06461684384422552
-0.007395113441657832
0.027287462792686644
0.03965986016879662
-0.023558349350631086
-0.05270681604610193
0.009774785094504137
0.03987326881567977
-0.019149484152334226
0.09355379153245323
0.23357334604921037
-0.022585395350828097
0.011293881108049622
0.0030929058471521617
0.01973485989806581
-0.03755773506571449
0.0186619071215232
-0.0382678392337708
-0.06772688334897578
-0.004674231555191312
-0.03836648068064981
-0.01492117664159242
-0.0768879054301725
-0.012182034959305208
-0.021685111380377736
-0.017919047233170865
0.02584371566780807
-0.011011146715169352
0.025756567652570377
0.03711960611506189
0.0031148478651106142
-0.02718384199842292
0.007994463668227052
0.0007080029554560082
-0.017676526884122752
-0.004443664213544752
0.0008035592296019131
-0.003207850297016942
0.024323334624128726
-0.0053876539193724
-0.01434206710210379
-0.01749586370569074
-0.010324799080929202
-0.00364959883883611
0.00329505993124993
-0.022747898547838426
0.11928586986948438
0.09341823375656931
0.007535650118773235
-0.03040405517979743
-0.036094715612450486
0.0012519659347046683
0.002780659895602604
-0.016911941540618085
-0.04130107719204967
-0.10854973241793839
-0.046358194816904716
-0.0054266007777649125
-0.02739754344704389
9.635679597054917e-05
0.02155002658966897
0.03793990260406872
0.02015340563917635
-0.023254480810193833
-0.03796942295696857
0.006071897730762788
0.008898820774929999
0.00696972775941252
-0.0007787318038401588
0.037846495013319006
-0.030998030875783827
0.030449306549926
0.07605811637783995
0.09871738547509915
0.0340978068928779
-0.030165675152910902
0.038610870793476006
0.006551338605382158
-0.0189084601749831
-0.016549380530050204
0.004749811617478825
-0.008996484767686384
-0.009693870806823364
0.003947978992960514
0.031414439620318015
0.04464420409858203
-0.02115490027185154
-0.0010284146444291549
-0.05243375956559716
-0.01848538506310433
-0.007138234934641825
0.01985689212403099
-0.11293404092481026
0.005529785861219598
0.10767720490231861
-0.07980596209602484
0.12051605782807617
0.014875311143270422
-0.013832459108132956
-0.02017326406552592
0.00818565659450085
0.02191922047010797
-0.009139740710632189
-0.046173289062861576
0.007124599102284014
0.10122750660703461
-0.08316900915719909
-0.22226925161054573
0.020612269882268663
-0.005865431744893417
-0.022641497306773933
-0.0029398775775652856
0.010738917075053195
0.002249067244821832
-0.006625717457745342
0.04236170627342357
0.03475643912646788
0.030991681725982188
0.0031890032258267476
0.0178039577226358
0.008941617539371173
0.019078080749264384
0.024051742410621885
-0.008947498023525912
-0.025929259390923796
0.009212058549062787
-0.013753076450635717
0.07611987040677351
-0.027334061332453342
-0.03092868551372085
0.05090713506971925
-0.0032585871548475626
0.0034615708362819918
-0.012783697600746963
0.018269592042741555
0.006264407271509951
-0.006161803138219231
-0.09391972122522388
-0.03301608992222079
-0.047134342835524284
0.02700006061883528
0.044877749548377935
-0.007736723455102462
0.021823129819236987
0.013109511087356519
0.02280902768294389
0.013779553899384789
0.025967652715745845
-0.015560932668892087
-0.022632691499381765
-0.0021062735727993193
-0.10825572592748135
-0.0014065177267842638
0.025093185200144363
-0.01057181452396923
0.0014500882761018538
-0.011648754054800875
0.11578056956553279
0.05184268614472727
-0.01331132980236491
-0.01988671832087563
-0.025746888198353742
0.006687307774378079
-0.01036545924135446
0.006931312434205092
0.03273738023960903
0.03644458863154248
-0.08121960943042075
-0.06353339589416572
-0.06119013707100169
0.00554148581659132
0.016769986292422007
0.03462955603194562
0.0076767236500174365
0.03304187756031678
-0.004664179156530177
0.016004696209699004
-0.05784265404956907
-0.052575041701804645
0.011451740540647534
-0.0213851452638573
-0.02530164238440135
-0.0404932311914954
0.05183059643964393
0.0842171608472234
0.01688268855522083
0.006662977233171591
-0.033849983471524445
-0.011527395344426138
-0.04023166674134919
0.019944315742360216
-0.020787350710237067
0.013544760389651458
-0.0029873587176913407
0.0012116366724859093
-0.03362574215358664
0.11198789740065498
0.04524628519217251
0.03350943074252709
0.08037773269378946
-0.036559618249005235
-0.04675246967159481
-0.032255793821544754
-0.004962592914430122
-0.038881362699047316
-0.006880440689270947
0.04857990824043699
-0.010186132359987415
-0.008773202428918542
-0.010875055306174173
0.09711480936453357
0.028061816569054154
-0.03658558673907509
-0.01499450323374956
0.001055525246107143
0.011123551516838984
0.01616851550292618
-0.02114338317710916
-0.02579358937966323
-0.00938253668704694
-0.03853456478676286
-0.0020006635811512324
0.024198617534739245
-0.038772816676451
-0.01893550036819042
-0.016967003546084488
0.03936772917579444
0.046651004242459986
-0.0033430181757953172
-0.032519416780781386
0.01932342368859802
-0.004685852753182804
-0.018667910583563558
-0.0111800204389596
-0.03192334066231101
-0.025301686644958007
0.009719197595695336
0.03249725626075094
0.0023687701375419215
-0.03645701492456275
-0.02905444802072048
-0.038265356165096576
0.0804085847816703
0.08014052804128312
-0.040166510614659784
-0.006959533962315776
-0.018316025629587097
-0.005479162294294149
-0.009620245066797624
0.0077212443011313355
-6.799211610325362e-05
-0.032485750447679214
0.002023614773931768
0.012202370226670874
-0.004551230193629918
-0.028435700519477955
-0.03452268401729407
0.02901620212624456
-0.010567780870442897
0.02454414807373447
0.03134420825049799
0.025159468617115845
0.019215865113141724
0.035698585125059794
0.07502120817832143
-0.003653384957476974
-0.00805968782726736
0.011480854187793871
0.013836225736796121
0.008462472438716994
-0.005543567826129421
0.047760835889012206
0.014218827481970567
-0.013171371498400437
0.02995610095889455
-0.040771915495737235
0.003036710321532565
0.027189279926615774
-0.013238043723851164
0.04777188161050442
0.06748229248158007
-0.022503628892323258
-0.026413626774984055
0.029254089597960043
-0.015071315162928116
-0.09055617171966264
-0.013532593626448928
0.030346410508881018
-0.24853582347314349
-0.09570542740417318
0.024973338484901082
-0.03536864895741147
-0.01942807307204477
-0.04965774481482567
0.023110583319000635
0.04394530671190569
0.028227051181539644
0.00011477651622612466
0.022033315091793453
-0.0025342413877912423
0.02278891983782388
0.019411257198808256
0.022980759521828698
0.0102185287600066
0.022602323714518372
0.007502327133149436
0.024591983893044667
0.007539642457627396
-0.053824090047618366
-0.017284461610493393
-0.022571991894828086
0.03325157844222481
0.014079600716387886
-0.02857310859146982
-0.0010059679677272902
0.005297454768847666
0.0028621070916437087
0.02423610722025477
0.03118673794159833
0.024576511376042984
0.07539009666647795
-0.02582988495625211
-0.17512035814347043
-0.05547851104828079
0.004223639026673772
0.0024966677436342906
0.028260673481922485
-0.029638146645483504
0.0367979799309422
0.07835601649229279
-0.0007973275540679876
0.027203128252107845
0.07028674829258706
0.016810337732977954
-0.0006759656133468927
0.016724691408177585
-0.009603709874555656
0.031324221314970736
0.03853310892364378
-0.005042158119459682
0.002559278471525355
-0.008422709614162296
-0.013675767789168276
0.02272556593749791
-0.0016415578481860944
0.009507268741379757
-0.02160947967665408
-0.2522797014324651
1.4223687533525906e-06
0.023385814825981302
0.06270395374047272
0.14458878002735429
-0.02168009842095138
-0.009412531096020981
0.0011154372974276133
0.008394624620212088
-0.01005195209789559
-0.01391780138767742
0.00416154161801535
-0.00832864963996018
0.01480089548734677
-0.01754443300934047
-0.02254108206026759
0.01038569169979624
0.007787640399065129
-0.009289415500597746
-0.017705814120187038
0.003533043939885526
-0.013406984237293416
0.00938302930673047
-0.0135316129665646
-0.026065922578817187
-0.026333189787331398
-0.0036142395345152368
0.012921367793153497
0.0070258939275408385
-0.02389988985504329
-0.02103041414713337
-0.010469722426281325
-0.03126185270586916
-0.06527134891543367
0.013935491072662036
-0.022702519194183708
0.006215041977951093
0.009726600560899228
-0.010348140426666848
-0.01137237810958192
0.0005868422509141435
-0.045341178323697176
0.004091408970927971
-0.023016030068636457
0.050356374682194574
0.08063509273904548
0.040584321355418514
0.17873886625108
-0.01403274786636683
0.0038473777233550823
-0.015586516210676016
-0.010001473477258094
-0.005517243737054168
0.011080460587060885
-0.019030007318969668
0.02106814381101386
0.0935240549640084
-0.02706764221877266
0.02820358810761007
-0.04561850073073189
-0.012101051723359941
0.0018869702887783285
-0.00430936528808291
-0.0918994272374195
0.008575207450194034
-0.030371765266852962
0.0720959752492369
0.002012642245584065
-0.026166201692662427
-0.17857446012034908
-0.08477111071044299
-0.020434379400564362
-0.033675785497574814
-0.008091979773508574
-0.040582402843766914
-0.031885114117336445
0.024660676127686618
-0.05276147705399521
0.1669735425108427
0.22914838546781638
-0.03334987900434917
0.21989243835169012
-0.01718667005349267
-0.02383985371317506
0.014182515040134657
-0.0041604867847097994
-0.04791470425804333
-0.0017433168760177043
-0.011792655016019815
0.06055178039575136
-0.046297785968098276
0.001530949152181044
-0.006324806887169741
-0.07356055054298694
-0.03969213548599395
-0.07842119675765997
0.007432724994678477
0.0007886003258043209
0.06747535722270212
0.03571361073172952
-0.030593056303038216
0.004883670307177221
0.05946322128648528
0.004034181222921312
-0.02720460650103461
-0.038222993143655605
-0.018852561921127584
0.029859519319906356
0.050657913367128576
0.03533248512289882
-0.026536528433044288
0.027474153089167324
-0.05572206370939299
0.018519272666370216
0.012756243465239491
-0.012131000399823202
0.010715235650355258
-0.029910104879413032
-0.022274449237830465
0.016307184405823724
-0.008163492299770673
0.0024003881927046953
-0.01736431945727858
0.07005165551316636
-0.028328926632387175
0.02390396632828526
0.04900434695863134
-0.01939958559426619
0.010604359588531747
-0.01875265416115319
-0.014926020494566867
-0.03455151994579388
-0.025839893715381226
-0.002346665759005763
-0.026258613277816232
0.003197328355039771
-0.0706361543977748
-0.00745452853346152
0.02050816196196801
-0.0005916587764164882
0.02242442586537831
-0.06406456536835067
0.0002555212823744246
0.02193531812779919
-0.0049665934598069
-0.02567287062553572
0.013016505135935946
-0.04339960636720282
-0.05860859196497365
0.049850489601404264
0.02814835086265888
0.1355570841148411
0.08312888697262859
0.0328862826663283
-0.0467616525674885
-0.05064254677292323
0.02115281797182121
-0.00916122392809321
0.013096801724724614
0.023990511677723068
0.004423992291558755
0.000153007892300594
0.0007005538315354439
-0.004892128168361234
0.03737228146910846
-0.013215347160480747
0.027060628058409402
-0.09426200405002834
-0.17313244757604274
0.004901766337917922
-0.027314840582804097
0.04163839443621614
-0.007038182312637308
0.02297928579648217
0.03597517746886001
0.012727945754703172
-0.010333450460877493
0.022134472527268214
0.03165031459510261
0.0009832804636876352
0.009546763300638895
0.02615851906590463
0.007973463328042349
-0.0379260406258256
-0.01825939787643946
0.061909075220667034
-0.01326422812294934
-0.06718911036617456
0.031305774709876236
-0.005554582166847041
0.02556831097498267
0.05041879169397021
0.01187872449547781
-0.1238341019839546
-0.0424930468449024
0.03395526144844583
0.024145517893372055
0.01570105919034302
0.00024910919665284875
0.042032654626554956
0.011626113800104481
0.005369424708406225
-0.017144939624427327
-0.009948778938582866
0.016231872741490485
0.03640073687523843
0.033687733206417304
0.004569557653021653
-0.021716608002116097
0.012178792954702386
-0.01950922573615477
-0.012838365804406867
-0.0811374057142964
-0.23525286953456995
-0.05601576393321857
0.052091070817084126
-0.007039259571677815
0.06152348157484997
0.025792824984708678
0.022578726189168893
0.06314802892358092
0.0001574749426542549
-0.03444399374455133
0.005283065186865398
0.01187742600374174
-0.08663855549406893
-0.030071458133714146
0.06645298525433284
0.020587739945141428
0.04994197719179265
0.005086618342850322
0.02381056339231137
-0.0023905783072893285
-0.00669476241150141
-0.01042067685058763
-0.0005334059610531951
0.0023337543704973793
-0.028993559328508882
0.00752741390590241
0.011194123158248939
0.02745248796218073
0.049177115930734025
-0.028406314301634927
-0.016899195656848547
-0.07815065487016719
0.19453013631741306
0.05697899787453615
0.10982701585670414
0.0118322234449568
0.022586974490536565
0.022596558847382358
0.05287473276015882
-0.0013103551160330604
0.004022509487985616
-0.012902882105699974
0.0399102043307692
-0.1703017941653935
-0.12200195861458861
0.0555905626938718
-0.019074596494804637
0.03691517084660607
0.033567116128155515
-0.00852288366087793
-0.14069748100563956
-0.04370865542500885
-0.025004970970857285
0.03749562344401362
-0.00013074763075184584
-0.03336792648839677
0.04072521211832739
0.033685312372937745
-0.03527485662792814
-0.10124430283523403
-0.06482421591527657
0.1303568935186219
-0.02325746687261429
-0.01663343622773837
0.029179388268446287
0.018409255100178386
-0.005404131747146602
0.021031619984331465
0.04738456301267204
0.011210524701997059
0.0007935342614693022
-0.012945597412511566
0.0007928761142180885
-0.020419081866281517
0.05434498293894598
-0.07601739638592156
-0.17152699585866235
0.01241138761616525
0.00025267490891435815
0.07548891556429617
-0.02184854069807316
-0.1248419704079191
0.01395888152486101
4.826633638852358e-06
-0.016136143292548775
-0.013307069458648586
0.14017674297583407
0.04725407381602084
-0.0565517393224376
-0.03171421628716352
0.025598002432466776
0.0954339198187513
0.0034622447709942174
-0.013980306721118331
-0.04739987306506219
-0.010608908260995255
-0.01314676726309345
0.023569724848134632
0.016630152332348696
0.0055409777493617115
0.006322198522216114
-0.006633736298271961
0.006426715230166269
-0.016266031906226282
-0.041548965538691286
0.009708143198129612
0.2509412302440043
0.0885030361487273
-0.03936182916869526
-0.017866165627244482
0.0012390647539250517
0.0130262128442071
-0.10153515005894327
-0.03826824526318163
0.012041418412679682
-0.002557152028669147
-0.028358155312605028
-0.017221495474203544
-0.015633635008909602
-0.004602239155841229
-0.002044796414897584
-0.0059250311079519615
-0.005190591588003285
-0.06394941426902516
-0.019066323238557125
0.1697418883344145
0.03356590375895134
-0.022764294382197087
-0.03346652509844832
0.010371481789065641
-0.04844122099505633
-0.05093591188992847
-0.03228805992048216
-0.0017768038998992783
0.09620597892803077
-0.050486384945365184
0.024286990901574254
0.0017416573713057903
-0.0076611827563981515
0.03163509855806138
-0.03436322667910604
-0.01433010456998858
0.0036617941572728847
-0.02595464110907985
0.004915098262506799
-0.05173389263732355
-0.036523043131720126
-0.022710618694837856
0.003084314668831125
0.03538382790547964
-0.09955750450605262
-0.0014987621156582452
-0.031633972249553645
0.007189346101739317
0.012927019943207793
-0.03854804840173187
0.008803516127163872
-0.012337397143267634
0.01103575107652653
0.00812677906191687
0.11129809837866912
0.27506680087729685
0.06706699070477504
-0.057848618754821106
0.062342197910553544
0.03926925736397419
-0.027423687194063504
0.023252993526186976
0.02211152048329717
-0.0025205067904552803
-0.024449527246323596
-0.06109482231272039
0.0032591397474975923
0.0013285055461005105
-0.017227667127022964
0.0020029832128004156
-0.029974058172046646
0.020681424710300163
-0.08028852976972936
-0.04508391309321881
0.03483611759361351
0.023647458992463424
-0.06614167177511479
0.007604540541023757
0.012994806937894529
-0.11223683532933959
-0.03081815427265843
0.0020934765471998127
-0.02836754149830765
0.021082146353933677
0.006271924708065405
0.03288574688514223
0.012491202513574868
0.040600138914382536
-0.01564231886789262
0.0818382431271947
0.04568512232830074
-0.00851184513364772
-0.003478722115653015
-0.001560386437968758
0.011774660613392378
0.013181291716040424
-0.05924192892828
-0.07630888822382796
-0.07658701739648457
-0.04737800756819786
-0.056549914137991535
-0.00708171484717781
0.03267511554341465
0.051406393026497736
0.021139777798455488
-0.008572035127806096
0.018807319945749044
-0.0018579119157285347
-0.005864030172924264
0.0041118220510917005
0.024410085573915736
-0.004662481082899769
0.016307288998521532
0.01277267593836683
0.05610695751678879
0.025778318385480555
-0.04209018231018505
0.015889070604961714
0.02858418717931449
0.038715098560217404
0.008171296892553241
0.038575895258029375
-0.017881089735970322
0.01404842471758937
0.0856859528618657
0.007294392498831488
0.030655267921474494
-0.0149067097697732
0.024448763825805617
-0.0399957327174392
0.01579413451227725
0.02503140987871303
0.03567872197884181
-0.07423239666156806
0.014629258979520676
-0.1311106538507419
-0.1760124925566065
0.06705445561674184
-0.037434998281047786
-0.020439660979357635
-0.011260555982063847
-0.02487274752522865
0.04254352524255965
0.05145523829163203
-0.12166352735273656
0.05671869991240181
0.008571337293452375
-0.011440534444270671
-0.02597505411553074
-0.020606744300044444
0.025504577917829802
-0.0117774493608141
0.013255352900586728
-0.005244126677446784
0.051282350474973835
-0.006794673239136566
0.04804344815387703
0.0397855610188216
-0.1272055398042049
0.0020139529650147377
0.04639638439239271
0.004311138129348686
0.012164138550409704
0.030876915158001516
-0.0963449342917614
-0.009560030917682113
0.007979891881838045
0.005588806647053641
-0.05325819149023779
0.009335715788098504
-0.004672205573172598
-0.024075875125783203
0.02214205580896391
0.023360404951954277
0.0013373656673949233
0.016289010459825157
-0.016175414720046365
-0.019033974113593147
0.01389186147688321
0.03751714977797099
-0.020361652275401165
-0.014886038948490008
0.022766855423162553
-0.0061032093320687614
0.009611935170779656
-0.011904961571809047
0.022248709450923564
0.01665934396477216
0.05249816251677984
0.0706046007464744
-0.025722220946440385
0.05219088291072104
-0.011295772267881933
0.013540138972662326
-0.06167485199925615
0.1611287649141735
0.0749885204690825
-0.0688992714323722
-0.02866486883943762
-0.02048091944350293
-0.016806742673141403
0.009975879498817265
-0.00337572999332664
-0.043114580411991676
-0.034517514379131614
0.010840420792137146
-0.06510472800997279
0.01581534301161242
0.006005096995705703
0.01980565352175358
0.06735438485670166
0.028283723306932008
-0.01894314729537516
-0.06069286312701347
0.020501385155168573
-0.009356578217959663
-0.02059766233641134
-0.00423833352150122
0.027876380663431843
-0.0035069283150382623
0.018489528346073564
-0.031605723778150074
0.008669763710424463
0.026890421509290573
-0.03511408633357298
-0.08224835257843056
-0.059367723311890865
0.007911809360007271
-0.014764615449235064
-0.009934203377061943
-0.01783366288710771
-0.026268942966946103
0.011970435047286286
0.03747684869308236
0.021740453101153797
-0.06005141749096511
0.06796735460933961
0.029883608514264533
0.04764116355041423
0.04179265965295663
0.0025650691974091993
0.025089105166714636
-0.026170945593781168
0.03618263672736162
0.02029195181015254
0.018430736344106285
-0.025990441477704303
-0.03059761808512481
-0.04073025819556332
-0.00379619311077119
-0.0617252534309892
-0.030892489681284732
-0.00736845771730708
-0.020783254620769322
0.06791129329019154
0.00516697254040356
-0.06729648802181384
0.012638552467378139
-0.007055262611017821
0.011924728122921446
-0.012690770056696018
0.07222170571471048
0.0036724762712516414
0.06969228240680919
0.023426025323028427
-0.02865102572897066
0.002253176971142187
0.012201563614103012
0.032604712920374694
0.0371675150512412
-0.002500494664691056
-0.12334805991439021
-0.06053348282980705
0.13970927460397206
0.011063079314405715
0.00019164605557624498
-0.012684264269753014
-0.049353009480347626
-0.04108402667503992
0.010486923222565425
-0.054739397412612224
-0.09273179039097408
-0.0062621141420140525
0.016820656407805588
0.011835740944043325
0.04658576265876104
-0.021538036813776636
0.022767055614409584
0.019851782095838374
0.0010763168590233493
0.045163105496764104
-0.04015074336566608
-0.028152812587106855
0.0034887621817276597
-0.03210611457052875
-0.010030773503021468
-0.024559432108725122
0.013113099660158617
0.006116923002513231
0.14745697613068368
0.019179336409589538
0.020776639120640972
-0.005246307586548329
-0.011008279918055407
-0.02336687150666343
0.0031762606840097323
0.03907806478150364
0.020675932971477042
-0.07412053127868375
-0.03680164820234801
-0.003114668912805368
0.016923101455667028
-0.0005921278211883091
-0.01991456775240087
-0.009441076841320438
-0.04546503541911039
0.0016454820723624255
-0.02309710480565372
-0.016925701848782383
0.07403790178832005
0.08913962035515494
-0.0023373605508451053
-0.03203703526284687
0.04729999004990254
-0.014038713585467677
-0.010055043729591396
0.10301941235507046
-0.0014086416227642765
-0.019780830658678607
-0.009243524566280215
0.002206015119437488
-0.03416287826928282
-0.06999163077603085
-0.02256751923285244
-0.022566995076153614
-0.026433708944550077
-0.001354073845551069
0.013432198495808062
-0.021426693095272464
-0.0018257866854691355
-0.004964667734896441
0.08457336610015616
0.008868301778683156
-0.005150702759266152
0.034441537670229325
0.016854080038240852
-0.010588092963417148
0.019633123772749634
0.023498821730724793
-0.008273213882185295
-0.013760484001832909
-0.023633940910119007
0.012157856831164231
-0.009701252068694023
0.007754274802489179
-0.013336432411345153
-0.017401061979240802
-0.011536051969717803
-0.003972630886171652
-0.02591406401162396
0.014950844834962354
-0.05131544132064736
-0.006788647938553813
0.010636085329940212
-0.05925916743539254
-0.07420664264229897
0.06440045097180455
-0.011715631985692978
-0.026750531362053832
-0.011657334151097074
0.00844806075957842
0.002189404935987955
0.08838387102627311
-0.0004058256051130913
-0.04053188748593879
0.033618496563053955
0.03353190185729854
-0.015553575114098168
0.16826335803404732
0.14339906048982712
-0.04761611214435785
-0.010286625222998131
-0.10451296304330374
0.0031454346984748525
-0.07097209946118543
-0.024784355705312015
-0.03860178110589889
-0.00428688395261163
0.003160945701988538
0.013581611217616252
0.005829416031803562
0.00618168090543422
-0.011665200569895107
0.010281968229541133
-0.01644721445039555
0.032077873408463506
-0.017399522757652143
-0.025955822666902675
-0.011629153475762898
0.002221671276068666
-0.009291401333021384
0.1840473516148208
0.03575292303909734
-0.07890943719425933
-0.004076183978458184
0.014988059034753858
0.009870592587557474
0.010002728276271527
-0.007233401523267626
-0.02978813744885347
-0.009113984180229594
-0.00786964194917247
-0.011620001712646485
0.0007892408114065711
-0.012288512016880436
0.012012747802411298
0.004859066040299498
-0.013686069139110262
-0.037712990433906586
-0.02479113519385731
0.002489502322837434
0.05200772673817116
0.02181911341591099
0.009117349834019206
-0.006036512697264623
-0.10948192659081639
-0.01840826137761882
-0.05102524336393059
-0.08218941048069274
0.04731652712802408
0.022188923569824263
0.0956672947768345
0.012929040438929978
-0.004553166931662206
-0.013168387653572184
0.0003537460809849022
-0.0024116793237630016
-0.03357519480581716
-0.05013522839343932
0.007237913503966083
0.10624075435556848
-0.015408066121674903
-0.002289175545551649
-0.007384641669202045
0.058048176558220116
-0.008088600368040304
0.019727760747476324
0.032892164188051146
-0.022529228545339407
-0.0004421732512791504
-0.03316782910073945
