0
-0.045571948498702664
-0.0024896775955515187
0.09713835280024116
-0.010755995007191689
0.012970178641538216
-0.009821287598225578
0.12457222295568371
0.031169318588279173
0.004340404951359814
0.02588683225921534
-0.029947689498805028
-0.008456782601921104
-0.0071935336253974155
-0.03556542323252858
-0.015917169842308367
0.11375167171665433
0.0642639641877858
-0.036318094196389365
0.008141137586640264
0.07075675221226675
0.008614851332634978
-0.030867037775752983
-0.026044285600102954
-0.017593158879492938
0.007729649503874142
-0.00129548764091939
-0.06838214934703556
-0.04872423410411401
-0.07358622922039022
-0.028822123082771958
0.0005233595473617593
-0.10219917513208464
-0.13360800162553096
0.03325138440108362
-0.012382484192621591
0.002489125485531028
-0.004204297351349238
0.03291701450814814
0.09275988235150365
0.0630564804967799
-0.0381915497622233
-0.056278742230010594
0.0024297458594785925
-0.0067092600317566215
0.035659161487733126
-0.02574671349660155
0.0011745864968589481
0.06529074577936102
0.02744798823292167
-0.017028015569362388
0.014471193279450262
-0.03807178388050564
-0.0044837704524517945
0.016217624302653236
0.012198389711409572
-0.08518847631987013
-0.04717287248846628
0.07382637084541069
-0.02921296431680287
-0.013408235301090896
0.11124436722986833
0.01885525843432945
-0.032449574814728425
0.03450859671045684
0.012745016446037089
-0.01727195134430727
-0.0007509897263039986
0.03409106470107383
-0.0478015006304694
0.011517115685363453
-0.030766861663355568
0.05157332703091642
0.08506155960922618
-0.0010080379389536876
-0.014889007826543826
-0.008182654805298577
-0.049973128954582426
0.035512971223934896
-0.024794050835985675
-0.011025399982437368
0.005122192695072697
-0.006688691759538376
0.0319451477456842
0.051345004515280734
-0.01896858828463271
-0.0045120998575941046
0.012057639649210099
0.05632955725780737
-0.09803398613487488
-0.019138205026765387
-0.027265400469996846
0.032025212223898265
0.0281840242270925
-0.0034814167126677458
-0.0029012074727784356
-0.015477087685666323
-0.05250545373497224
-0.021064125771367896
-0.02156740318433628
-0.0023471189979467157
-0.03662546751640464
0.03784523848140087
0.02575255127608137
-0.03078444584176573
-0.057819811085812974
-0.0038293574780072412
-0.056054229893886476
0.003440133183959809
0.020905469030756664
-0.01769341189659559
0.02426987579430646
0.12343233885310931
0.057796815403978824
-0.06076143710379909
-0.1158436254492814
-0.008309376346218079
0.08176892453780363
-0.0429696627303966
-0.04409044225295288
0.07076343801901673
-0.00684531429629743
-0.02456120321719272
-0.022570440455032044
0.02461447255713954
-0.056061440903754756
0.08099996717703395
0.026181811932912705
0.011252905005519955
-0.04349005915805666
-0.03037827865709324
-0.028178821944706473
0.044538187203387154
0.016867475316851385
0.12339270308219666
0.03113215953474494
-0.01626909442728613
0.030153536898922424
0.051694926569308075
0.004817243518246024
0.0008225102828107435
0.005841648151556564
0.04117082002551089
0.024749563115940787
0.01935847667937584
0.010491071600401702
-0.03189678662406744
-0.07345075646807689
-0.02860577365023562
0.02898376232647484
0.04642781680607852
0.03503191178887863
0.035362363686704285
-0.0032403304284140174
0.046259856603130825
-0.14476135575725127
-0.10256000662220105
0.021961950562124924
-0.046943202106295004
-0.007770114311339011
-0.002586435354963187
0.01362796680949424
-0.029516720670015876
-0.16492444311722568
-0.05883724552494804
0.025425516291960427
-0.0025337112727256135
0.034386265436734585
0.028203922382518593
0.04313819049613441
0.010874130099840828
-0.024390754538403208
-0.007547771675763104
0.020191206346052194
-0.006174264822587424
0.03111354255302401
0.02548979361735582
0.06758718797202953
-0.0029489839467167554
0.016800780432858358
0.027145186134418076
-0.06344146743233965
-0.12584151015267364
0.08147943536594497
-0.0008742608294447362
-0.026584396990396983
-0.015721719249609276
0.0252463034594122
-0.0018085303687326957
-0.015149489587174719
-0.010533312469604686
0.01676316975658947
0.016844716770430434
0.01089189624764498
0.011130541703226698
-0.02003245308518576
-0.0011222348002703504
0.1449193221328276
0.03298290155710746
-0.07041083084614558
-0.04662842354139039
0.030363052092808
-0.06556106877659468
0.023697656500046568
-0.017022577075765134
0.0065922527262335965
-0.05291025436120474
-0.026084588533778666
-0.05743450072326054
0.03158249792299752
0.03153010391110445
-0.015627475339234996
0.0044974025328708474
0.008346358277217057
-0.025203779817442335
-0.0024702353821402607
-0.030678450560659692
0.11878569095562332
0.17407015874853132
-0.024440220553324978
-0.02696831545312088
-0.008584317010920396
-0.0216772218734576
-0.03933922438576314
-0.027502843455541742
-0.02004600137779021
-0.04734879443381554
-0.016894538165103605
-0.03892538466160218
0.0452298207198445
0.04192146256733992
-0.027760429181748997
0.06672764410345029
0.007738621391827633
-0.030497720826165725
0.009515022138842035
0.010656273124789764
-0.042671483819287294
-0.009142308445113182
-0.053222449792269706
-0.04247881155264382
0.1324936609003508
0.11592879211707624
-0.015326422771110869
-0.00022477712106413033
-0.046706289135487286
-0.009683351907471
-0.015475135677706127
0.0891807858308777
-0.010661101344379207
-0.013947086924926836
0.007478801149432261
0.03818145979189978
0.03379296377153698
-0.02999059272035218
-0.03461652472588274
0.008172872387278828
-0.015306914737847017
-0.023666754806280138
-0.022913245306360804
-0.04796810453154761
0.02268607092405178
0.017240924614898033
-0.04166691425226726
-0.005196267835372611
0.002966604969897749
0.018834235300241968
0.002166196803208153
0.019540081089803832
-0.007715966975947299
0.01934049462950224
0.038005913109724974
-0.08090039468509902
-0.001092221672735389
-0.010730839769636727
0.01923561904157402
0.018518035014927704
-0.0009416710353683428
0.04617091669709145
0.01198885969069315
0.018194529973008237
0.006588869948525147
0.0060967058020879135
0.006066663704038738
-0.001288783046098385
0.00689143143914599
0.004338914674757176
-0.0230369983653481
0.02374888876484288
0.04139586448799361
-0.1405056901084402
-0.023876538759684603
0.019535022661652957
0.032479401352738725
-0.004804482223086771
-0.003495971001066574
0.00046971315495539435
-0.004709538848332459
-0.009340297805939571
0.016516116348795757
0.02022529254676229
0.017090184710900885
-0.09585947400658723
-0.03188090035605993
0.05271165414976434
0.015024516197043897
0.0069264888296999925
-0.014916306775105179
-0.09956960755594457
-0.17582885035074097
-0.09815763462638245
0.029143875159663383
0.01772222954512421
0.019556031545697787
0.001383243344104021
0.013246982704924914
0.017673359807980314
-0.025586425386745524
0.018462618366344098
0.008272081394445543
0.03005434389705031
0.013612172354522759
-0.06681921374078975
0.07956709604442595
0.134948235607863
0.008761739450588455
0.005931003028627615
-0.030094820557715028
-0.0416050215248357
0.029511025834552413
0.15506170955472418
-0.041811358838751804
0.0015962410174198717
0.014231150217977702
0.11867745416790655
-0.00328959749729327
0.05768638581045039
0.057511133715955384
0.0438920434445043
-0.016520312058423796
0.020843560526594977
0.04579758099685668
0.0049477644476193915
-0.039437744429764006
0.0313755006441123
-0.032329833502033424
-0.1090492210468098
-0.06462404855332923
-0.14167920370557674
0.0037115798820229143
-0.07955964999827538
-0.005725609800463735
-0.015058861014993291
-0.006775148185103621
0.002884814992123447
0.01989315915874852
0.01364797466928
-0.009975293380968538
0.004699572613653101
-0.024588057025554777
-0.014229687315900765
0.02932414230038
-0.021701752760731313
-0.036393065322391394
-0.046159784547258664
0.03719146036101879
0.1303093070849397
-0.010520814309147716
-0.023719447177434655
-0.0449127881519316
-0.018441856860232617
0.014393729733862569
0.04407323714556398
0.07030020163187067
0.01005194479310436
-0.05004215659456448
-0.007550376185227024
-0.03244515497745084
-0.011133832490778385
-0.02145235931054855
0.016739688451927973
-0.003016908321087233
-0.030385777055392017
0.03442952123005111
0.020555299233948856
-0.024352266044641663
0.045478765661250135
-0.02148459495405459
0.0009338687560665894
0.017090775502179172
-0.015163851063875257
-0.012145560360710406
-0.03659372741210491
-0.034035327155560374
-0.010389284169974984
0.18423253487214766
0.05329766006404377
0.011666028169334961
-0.024770568163470022
-0.015771976736390973
-0.026683801147925984
-0.005998044826703094
-0.005622495927160906
-0.02198638819789018
0.0028465125360010455
-0.015096069078303766
0.017286715833756322
-0.02706556304689802
0.09548780631150633
0.029238725111094543
-0.08793839700526922
-0.03150735211389207
0.034564862093764664
0.10173054096346817
0.004898248235000142
-0.035002693286624
-0.021992184127829974
-0.02574252736032564
-0.027223792622505266
-0.05921976625502181
-0.037986203714268224
0.09167491577483905
0.00030440666467647706
0.024387719973966524
-0.012411106724723855
-0.014694264430391813
-0.0005791314281668379
0.03894985092744776
-0.01821244395633024
-0.015976427782606932
0.0018880487967922804
-0.03275003725986209
-0.019543800203607336
-0.005929928471298957
0.010414240549764685
0.03252412376729426
0.0259043484811706
-0.03453979319720824
-0.015199505034708044
-0.029926166107154185
0.006115850705516848
0.03805475526288688
-0.0064505969975881
0.006359566825342936
-0.0521486682546679
-0.004364555031475303
0.03291441338702778
0.028803285421489716
-0.038368167161965186
0.04457365029703333
0.06352308873006199
0.017991171252123978
0.02201246422945015
0.014917744357843885
-0.08488862345316675
-0.04570161788437477
0.025662186135421594
-0.037248751656229324
-0.04529645946969975
0.040121226173967885
0.02209336544401848
-0.022568893364791374
0.00010973657450497797
-0.008450982767120047
0.010400560712142033
-0.00017037315529186666
0.011884590847902915
-0.01119558866842681
-0.002363283818527562
0.0058865584370752224
0.028849901814090168
-0.009005162884394548
0.009104258853292137
-0.0008375786359133298
-0.025565529889581023
0.011774154308042026
-0.04036935617811961
0.004602747684021527
0.003930053872398224
-0.006803569126516369
0.01257819581561309
0.006815640669966757
-0.020400532844624376
0.021847994229131685
0.0029432833882575607
0.014745126982354945
0.07035234395110317
0.014357969703349825
0.015826109095718747
0.07691416955503788
-0.07713758719944569
-0.026165769568389934
-0.0044521938130117
-0.04504032998534585
-0.016479816989257663
0.006270632432837011
-0.003059501678632647
0.02255788973752272
-0.02317768239131912
-0.020336932753932602
-0.0001759671026975827
-0.018237300870026337
-0.02380338880607478
-0.049572352663992555
-0.014350516902295808
0.020170153739869006
-0.02479473948276932
0.046352858833993975
0.00031253740964057433
0.06549914617112773
0.011476150586984127
-0.063646810168801
0.05004578839735842
-0.06500834302555984
-0.0003233056816106573
0.07697134893353244
-0.0031352046739433967
-0.03811258248148925
-0.01206580319189457
-0.019200150781877996
0.02620679449613373
0.005697020442912414
0.011540065568187461
0.03934504991850746
0.06262852792171669
0.008642223173658321
0.059918262536591896
-0.04831561038979664
-0.12961822546884388
0.06194073216045238
0.04160315872160423
-0.04317953976243641
-0.02309951985290374
-0.01553373512360913
0.010364497731167972
0.02504837515956733
-0.008086818636949097
0.008603314204476692
-0.006359349038426974
-0.03212183501638734
0.01756177856702074
-0.03029458558092659
0.007185798562379613
0.00627296435941347
0.00267176718154812
0.05226555151083372
0.006441244322902603
0.013913899524741464
-0.021146755180609458
-0.050136538834843286
0.04035711144254762
0.04510789775599705
-0.05890417130622351
-0.003146727505787348
0.0172905608255494
-0.0027597797059487152
-0.01139873456597999
-0.02948810492050645
0.021760972254776707
0.03879347334235268
0.005016431161841324
-0.008949972537939724
-0.031056321870211345
0.0059115468409639835
0.052415635739330745
0.09614907040509574
-0.013346257684998003
-0.037834974777604204
0.033398819474490575
-0.004862769634814682
-0.01318144409624219
-0.035171891192393716
-0.1514609942915617
0.032856814667656935
-0.002395467356653499
-0.05415149671801969
-0.031262687102136144
0.008893316830345516
0.014382341746640789
0.011054654256156817
-0.028456399048846264
-0.02930660692573382
-0.008194944421685836
-0.04599378200678449
-0.010174159317137516
0.06734774645673235
0.01788160972052714
-0.023301477609937275
-0.031719815847369014
-0.008643638918355526
-0.005656821988294847
-0.057832977316326736
-0.0037391209195301064
0.06958869589420662
0.04149564551378907
0.042057151913591564
0.021135175375507485
0.019020450660428644
0.034988204613005315
0.07723123963351712
0.05146010267933592
0.01812548935833172
-0.015137034115735344
-0.018322481207075143
-0.016770405314423715
-0.026115778249226305
-0.01655311969978965
-0.013600936020232194
0.023583416828716355
0.014367249429661649
-0.038157497236588234
0.06270448078660551
0.06043052679103549
-0.01938152039032438
-0.004341563175426535
0.019027845281256065
-0.02462819006919973
-0.03576316961397006
-0.05507250556647525
-0.01972871863064281
0.0486657369499016
0.0263458867115805
-0.022945508606660232
0.0019886527801870214
-0.027842982924662436
0.018471721452544974
-0.09738448827153935
0.004210970984467414
0.040511019159939154
0.02104741292912344
0.014020676392944912
-0.015508865964779916
0.029661724639719375
-0.010073769555853629
0.021855522954048832
-0.003138498696177806
-0.018706691594398805
0.010023423259297413
-0.00723516057160782
0.014292891033424982
0.02664744656908996
0.05072880325260273
0.02796026479343595
-0.016137685337559132
-0.02686697072663119
0.02885980793533989
-0.022564250333654272
-0.015746419865833583
0.021152810591574044
0.0056623786310880915
-0.0030953499012475114
-0.00039484163237936816
-0.004579259649310752
-0.02335888278917704
-0.046321249994797
-0.00916932753060685
-0.025239106245442015
0.0023307489899381828
-0.14622738818751124
-0.09959634360019853
0.036976451391622936
0.011943845389936697
0.05180963918670172
-0.015141901279477937
-0.02904755966973561
0.023816209981240396
0.002312374155513318
-0.02384882175633298
-0.024092660874107937
0.02603330474091905
0.026334216021028624
0.07746813679443519
-0.029474636038468508
0.07060999046171666
0.0841082775028305
-0.016765038147068458
-0.026464365817877755
-0.07846201342331502
-0.056826248149544394
-0.03662336928288572
0.06846643024563288
-0.012794557039949533
0.003435889423787558
-0.053771213899495365
-0.0011239321218094584
-0.0446358752385193
0.035409758527623195
-0.03820746662700769
-0.03679865462789694
-0.02402774067931482
0.08282782299161175
0.10939399129462564
-0.04659844895088595
-0.025416966653317188
-0.02482848421185673
-0.025309169974280503
-0.003556053528370555
-0.031020397128779208
-0.024109360854765914
0.025981668020140285
0.02389644698435631
0.14949077099844094
0.11130160069987914
-0.015854518120722194
-0.03993817907967052
-0.015234015185995226
0.037888362684459095
0.036911004278440164
-0.02931330549267624
0.08114003030303159
-0.021130185397685766
-0.03622193025180296
0.10696741574962017
0.170320831206646
0.03586669589301782
-0.04724861571408072
-0.015069032942909214
0.002193168649989398
-0.04150031240830921
-0.012577882027920026
-0.011055597942716948
-0.01865560884197957
-0.011246838568128907
-0.0392978436756872
-0.005052755164132263
-0.027732082201886492
-0.038390092950269974
-0.019253326627036972
-0.01493920075347824
-0.011910356270913483
0.0016138814322435389
-0.06874613212461103
-0.07105094182700492
-0.01598809239447196
0.03018060261524607
0.009132216853473124
0.026067283261098348
-0.038984683317811034
-0.04039651143882183
0.014734763493464595
-0.009804948461683574
0.031484315729247356
-0.02394310644838448
-0.009135000455832345
0.027413072464337187
0.02416063887926287
0.0013276674572631358
-0.009180126848870323
-0.008259513594634732
-0.04888175232770483
0.05203642594516093
0.048967283993097986
0.003982732346994858
0.0008840900212807144
0.009061924478835
0.008106932479642044
-0.02843747715010996
-0.016395047536323634
-0.03510510428117594
0.009522635734322004
0.027240260241496093
-0.025373233070447587
-0.00972543320448955
0.004965527351295179
-0.01786489178804257
0.0037632130355893115
0.007112382410452821
0.0004541488980896988
-0.021125933942603824
0.07508683796277604
0.043200952957441065
0.02456762328859212
-0.005559757718534566
-0.024599493564413738
-0.019235023610414653
0.11464659245302938
0.047860022909317075
-0.11058951286814428
0.016200638065003166
0.04863229774320658
-0.012469493178403741
-0.028704722923284902
0.03342684759226148
0.013761517172357959
-0.03953227969682711
-0.034237095483406636
0.0013597539316628853
-0.018757768489511727
0.0068659156454875525
-0.02843698971907594
0.04364555174668834
0.009043673670651297
-0.03520874755654844
-0.04702236197788799
0.0007091747908409512
0.026383586564670387
0.031630698907040546
-0.021372318078156483
0.02611464031307435
0.012976463674123659
0.008043149274009362
-0.029799053560668077
-0.029149142595579394
0.029994803954440912
-0.03211767510942208
-0.03918632341573965
0.002773785274336841
-0.15872354737066044
-0.11634630305976794
0.03945091296460446
0.014974563206040592
0.03366730660167591
0.04250334163831126
0.07107519456531548
-0.02272580353101968
-0.013026055655679736
0.012431350935794562
0.03620368956327809
0.007247807443359197
-0.012248657049471038
0.00292902888489654
-0.010807143132636428
0.015058094572206448
0.02855141425511292
-0.019480045276385884
0.011298542017855618
0.03678010813110232
-0.00941220457052579
-0.0021549252075388947
-0.0005005093904378711
0.0028021431609839983
-0.004163024019863812
-0.020058874139989843
-0.02682090123603931
0.06249626606126784
0.03712598791903398
0.025778665053987744
0.04676957352942783
0.04400534428230613
0.043759941865829065
-0.026570393693094257
0.003348071657326933
0.00033779328651615257
-0.017682989173347013
-0.01247637894146747
-0.028591727633267092
0.01968721679787408
0.03276828520906389
-0.0015540713103046496
0.0030981936607973573
-0.0054242770922424315
-0.005383610898863691
-0.0530027850852158
-0.02353946960942525
-0.008098497284349188
0.004158350624769514
0.047271904480784374
-0.105022974204335
-0.09026472682850445
0.1439677167697067
0.020883501391441867
-0.041678142319198336
-0.054699854037686915
-0.01577820021155159
-0.0015409816123383316
0.023496656298098398
0.035684856291573246
-0.008426345222125318
0.004533320596102343
-0.05063865450141748
-0.08118410021401574
-0.1496911714377287
-0.061655947968134325
-0.014556068434940771
0.03450425916200626
0.04819904284954023
0.01432025831339219
-0.021878900573785942
0.005603804978409714
0.02189797337985128
0.15815367859523263
0.05014703267921102
0.024430539223066466
0.09389725078510587
-0.0284607572978618
0.04533989932327106
0.003231031623895277
-0.017541971404682208
-0.002673375797182029
-0.00838565306294544
0.04224091281692358
0.008084571344759608
0.05748066777518325
-0.0020123058458306306
0.005337486939204119
0.003480437114651096
-0.018809001172622183
0.007179459637391311
-0.036518197027954835
-0.003309266009540543
0.003217573826592391
-0.05537435528442165
-0.011892732818222979
-0.0015148534117062726
-0.005308027153045977
0.02281366356736451
-0.0038542743107289447
0.0007382294959859903
-0.003751862357211208
0.013193800697908329
0.015323068455289236
-0.05452199057894413
-0.06495244424246664
-0.07605760361187938
-0.0021401305312034923
0.024597041346328244
0.009691472340039801
0.019522137195589
0.03774577087029903
0.0021964362163496404
0.0221196143990304
-0.07104089429106647
-0.07568645582004249
0.028696180942374173
-0.014528433886277404
-0.004714925575826414
-0.011724537663377242
0.0068640149982532005
-0.04057576641584815
0.012778935104324481
0.17554417548774612
0.014679407151702012
0.007219213719553485
0.014705093913198792
0.018192502374148475
0.005962648838439448
-0.0033426778824032733
0.039070485361970136
-0.024097042419325896
0.007608928760918908
-0.06652806045609776
-0.05603556723282889
-0.016473522432913747
-0.09214258075324695
-0.06308424063678222
0.021531182637337342
0.09553390887073358
-0.03804250360007314
0.02708960838435708
0.02930233855876727
-0.012073882394631572
-0.045687556903626934
-0.003261594061655986
-0.05386990829176914
-0.0053655590740567995
0.024602239955739028
-0.01605353190423264
0.05168499663762832
0.07034951866292986
-0.011995046586905003
0.025100456702060608
0.049395255516056974
0.050390115552249926
0.01690809363831858
-0.013428169809071622
-0.07258684860345858
-0.04240993869551444
-0.012641762307497317
-0.021534520556875967
-0.025261601767035895
0.03097840803249034
0.0018068931275827995
-0.015120548683986799
0.013277915942259447
-0.0040227075798021875
-0.016116084266980378
0.11548491917080063
-0.026900310936967393
-0.05711637688364631
0.04341668950847493
0.03163563406270577
0.0008353597173158231
-0.025863566957850876
0.015482350557737041
0.01121712616135636
-0.00839485477776605
-0.046046496176572575
0.004794248684275078
0.015821999402747547
0.017465024471048283
0.01187396336855889
0.008410431000803551
0.060907271826916624
0.04905351951968883
0.0107483588326228
0.010409536185183888
-0.005904772720000038
-0.010895475627093525
-0.02954302222796546
-0.0573226966583511
-0.01285378225621447
0.024309008824778995
-0.02080464998045331
-0.006727952237042848
-0.030825812010416787
-0.0037656192645860536
0.022416964457064564
0.008958738390584725
-0.06473916652354873
0.00035153705851340616
0.028044072205722415
-0.032700303646901914
-0.019093427456093263
0.018209022763779333
-0.00904119971654584
-0.014189978485874466
-0.006831918870560255
-0.002006270120952631
0.00991074651900373
-0.01044068898931014
0.009810782513665687
-0.006506680135724884
0.03538529203949199
-0.019008014037182754
-0.013658200744846558
0.020101633167980918
0.020025984932637842
0.04179504729834741
0.005528329832536798
-0.023814614842654194
-0.019838677390446532
-0.0271207831707046
-0.010766216748529095
0.008131387275576591
0.05800774806940214
0.028498309623733967
-0.02291063346793092
0.01679013655397517
0.017423811165438754
0.028698268738184964
0.022059774065204277
-0.01895886499493703
-0.0537802556414616
-0.00033640369868191575
-0.01237415612517089
-0.004609216812776863
-0.02967065074148063
-0.008486662116859564
-0.006314578684530541
0.004333049277121676
0.001383305091233769
0.03548528854878827
-0.0005723057541648176
0.02445850589994648
0.005751325396206166
0.011339802569097966
-0.00962979861960164
0.018537102316503424
0.08493509105931912
0.015504144522296807
-0.19707781499013094
-0.06946071414326357
-0.009708831533272474
0.0015082228800269788
-0.007069833765421721
-0.012445092644057496
0.03667581671356227
0.02820277562531483
-0.013714814651178558
-0.013083621152188063
-0.009462537945897067
0.007969179060471725
0.010916628599861838
-0.0034105363056908034
0.048803811226551606
0.11955882818894198
-0.014372778566773024
-0.01500646770132507
-0.02968701044734776
-0.02649818853142025
0.018682738761035697
0.016240410047392986
0.028744747930906363
0.052057667504420625
-0.011751615251216074
-0.04272640415633936
0.013004658962093043
0.053931242339462365
-0.027166525015244976
0.015038413778471448
0.009853314670838564
-0.04585411104784722
-0.10463840469387604
-0.0028078980694364836
-0.008438496398034763
0.03918284578547096
-0.009493991283227657
-0.026412842998797096
-0.004936810161153714
0.00306149195338332
0.019244462755433168
0.002863513881897157
0.013872311057468997
-0.039015750043238644
-0.026002096833619048
0.006232056423981489
-0.024585383882400603
-0.019530263154730932
0.002587735395372504
0.007172201738808557
0.007295442174641724
0.01654178159782534
-0.02907892628104323
-0.0420376542537906
-0.012552363448132214
0.015160806444006247
-0.006291686700011794
0.021668055250676915
0.047540552641213464
0.008261660458627853
-0.020614949468775914
0.014357468211251787
-0.019525634318257115
0.16937355779035398
0.061812696003177084
-0.024810283426612085
0.007111219668499049
-0.048261788796608036
-0.03448579263654226
-0.02678172081323486
-0.0013596474932848857
-0.012205031440062226
0.0059370303208161
0.0196100002764379
0.0341632592697431
0.007047149334186481
0.0005265826619935218
-0.0014715752934124683
0.02402024304187033
-0.015688534427429277
0.011496684983037261
0.08224793674077882
-0.01583747175410786
-0.01891368026529461
0.01447238393845641
0.005355398641087795
-0.0009366805655962498
0.004424998384853689
0.007827304060111864
-0.018822552663479722
-0.041026759889647005
-0.0009598468194344567
0.004327061773012675
0.0009320371830651719
-0.01873293158229811
0.008083244548092975
-0.010026956960894128
0.0038226671704948896
-0.0848242392791322
-0.029427823623733387
0.009421244395942528
-0.0038826366082759653
0.02031575209559188
-0.041374245444796995
-0.008868634712197232
-0.010462713916752254
-0.020921132108876795
0.0012851382425503645
-0.0036079908522698135
-0.03590105799246678
0.009439650873893098
0.007041847629321404
-0.1849337953121242
-0.03877299419966485
-0.021544367788199698
-0.0015088054097448554
0.04229672431197033
0.16508679171974483
0.09790170301837393
0.04439966211740996
0.009743927965827338
-0.014967757798910875
0.009407263318075001
-0.05664229721982176
-0.009311818416273487
0.002392797962686545
0.04528267441517226
0.010336349213505428
-0.02406240739136658
0.15088244306929524
0.011246319585777929
-0.0252461242847079
0.07184090089112469
-0.055361857715294505
-0.0708326322313945
0.011438706128682278
-0.011726122244158593
0.0011412363957210648
-0.010112228574234355
0.017653504165778735
-0.013341083920946342
-0.03293595574432236
-0.027432357522410307
0.0743320391707773
0.01777749055372636
-0.04796486369393712
-0.03552086535461648
0.0017911788026305088
0.16344317832345795
0.04824939140778161
-0.012785372264955533
-0.009803801989789576
0.013245689870999852
-0.07040741647970118
-0.19241233387712087
-0.019222470287035054
-0.017061675082147124
0.009298244012182344
-0.029416721273255845
-0.08155598304241939
0.034566731006807704
0.02260284421561655
-0.02136232893401822
0.0011364047098732916
0.0036821103032523323
-0.007958487062440511
-0.03594596449854139
-0.003421574803850188
0.04836060636733815
0.035220516560507516
0.014646259073635828
-0.0001556254732109296
-0.021330330776558805
0.1490779845949221
0.07069125620346137
-0.015181950233653043
-0.0054184080921787225
-0.023881745229408183
0.02194830647133759
-0.016239665688199054
-0.03993375940171833
-0.006677184007744603
0.04018092734957388
-0.061078137152681254
-0.004397957547278205
0.028611291795312577
-0.009110200200767724
-0.01173455363593926
-0.019623944059503278
0.03523653456672784
-0.024222600473449544
-0.002254055525680907
0.14590351243705618
0.07881486597963187
-0.05853277659615758
-0.04514893685992955
-0.044227875012587105
0.0311090950643092
0.07212694832575661
-0.046711510795908566
-0.005300295732976323
-0.06095533271124297
0.0033717436239131125
0.007969822383967158
-0.00474057609837759
-0.004948417086737992
-0.0015923638594802045
-0.024651032364801834
-0.03181138275649996
-0.003873033300808238
0.020438575859078364
0.052755478188405105
-0.07379461545377093
-0.02194504442575271
0.00958760048254923
0.016822858585782797
-0.0016264892758747988
-0.007506848946482744
-0.026870526397166666
-0.00607448695447156
-0.020318139413745284
0.008293019876670218
0.033273955881031964
0.03782316893934944
-0.003168900240606716
0.006574999260643232
0.004733409872841481
-0.025141225050747926
0.030949076522747462
-0.040543711505231485
-0.021718193248362324
-0.011799427803372562
0.036158671519756276
-0.021637968891844068
0.005649237340576922
-0.043073472900873995
-0.034853415174441266
-0.011920530039367038
0.015087848746013228
0.04199009746843696
0.056211355637189424
0.030484673545380953
0.04049307889761507
0.01782978638675209
0.028139705177481007
-0.0013184698896020173
-0.02448377052693927
-0.02099334432627666
-0.06309946977019534
-0.026291265782986666
0.009898384110451994
-0.009189681095020254
-0.016129818493481458
0.00863100226534002
-0.021543408265656584
-5.965215741399085e-05
0.06896547084753352
0.017424778706589338
-0.004100192848391351
-0.022016342771929674
0.01652806642026461
-0.01925468799583201
0.045719565141691405
0.006327606458771255
-0.00036597711762320997
-0.03271310060433762
-0.007658563129177429
-0.016812770858748688
-0.017073731602612253
-0.03945182460263226
-0.00031380483813788716
0.01936723701096849
0.012287093153028927
0.04243193460796899
-0.004372972990305943
0.0585225345695049
0.08523220811722784
0.015760101077740063
-0.015830115022705163
-0.030638702021040288
0.006798106123374366
-0.02701260885121163
0.032742879256327344
-0.01578564195143014
-0.016031703661743654
-0.029073255920816315
-0.019625232420794173
-0.030075693376509356
-0.014823679726567916
-0.02208102052923121
-0.05659341497311372
-0.026496417296984508
0.028986738295157577
0.01383770517047172
-0.008051871389538147
0.0028970759666637025
-0.0022533405980788
-0.00987376996889592
-0.00324912880758385
0.007114119337021488
-0.025220726451185813
-0.03560301252651308
0.002255909879755577
0.04871416003820304
0.11501383687188475
0.022750277405770424
0.005324197823730968
0.0076981030200553155
0.006727078324534171
0.013668185039356965
-0.026709689925963988
-0.01061176354120862
0.022042460362119962
-0.017052295666324525
-0.026715792430268694
0.01418263691677667
0.04530308829035751
-0.09976804742523955
-0.024125370815636427
0.005592980054939843
-0.012223377942138557
0.008169582042291613
0.024587919623072014
0.01516962949725815
0.021671378330262534
-0.008293567857146151
-0.00043127086054761405
0.0275475541870367
-0.0014644043250052587
-0.10178709529491302
-0.10954550688776363
0.007568901129579549
-0.0020345480508104667
0.015711602614514146
-0.032973156518513756
0.058566609900242254
0.03928245250596116
-0.012006237807806268
-0.013107293845973512
0.03168721040438295
-0.007165954936491741
-0.06018430447301285
0.03372618199783129
0.00973125120944186
-0.01929220766880092
0.009409336872770256
0.021527189386473085
-0.020672646329992453
0.034534793678469684
-0.01761583233048404
0.07956706362185294
0.0807633342437382
-0.01699138813181025
-0.0005027127753695836
-0.008781210446353795
-0.013858019582155637
0.00013811755862142618
0.011347468422208035
-0.019706348343301282
-0.020421771376033487
-0.03201408633090435
0.011661266816381292
0.1093785759461958
0.0027949714685364876
0.03956594121229514
-0.038544916496679626
-0.015409655481210248
0.010539846295452059
-0.015027647567885447
-0.018375718125844303
-0.017275401528978104
0.0174717054176537
0.058017746498412154
0.03445645623578093
0.012850068780258163
-0.028556284389363657
0.03290478691165797
-0.013533994164016799
-0.019968399465758683
-0.023379769799715514
-0.0103225020962487
-0.08870032450263886
-0.12650248350329826
-0.004859714671256621
0.02741688063596232
-0.031064571809877352
-0.06189838759739134
-0.03581824004924806
0.10205939568472706
0.09067588779251409
-0.03278171876247456
0.033980811477117734
0.033255415675763865
-0.016128063145219494
0.017265694679120567
-0.05093251792010157
-0.0936342781308939
-0.07001786110132248
-0.06757526758207899
-0.02800588960447735
0.08048949821551205
0.3160728421661554
0.027196779918353165
-0.028081763440825386
-0.08151117671975404
0.023940415979893395
0.036464616653105825
0.050137001576293215
-0.020648940173188787
0.021456647806994692
-3.9233871815304385e-05
-0.02204696655439245
0.019283232194137963
0.011810034296629943
0.011926475331318326
0.00015940074815604422
-0.03213391347031435
0.002041294752231904
-0.042544173674402205
0.0011434022013411605
-0.03663094050351396
-0.019489390236459184
0.010306159000621654
-0.013775730497426676
0.007832956774456733
0.046643439233529864
0.025897783242896266
0.036364292977634514
-0.016460502838609458
-0.04533119866527136
-0.008681778126120157
-0.05197194037573889
-0.027309409492616305
0.011511191799460833
0.019473295969672677
-0.0026854368597438176
-0.1367558412529083
-0.009277783880279404
0.02484376073397129
0.0019949194735151914
-0.0023071059503255564
