0
-0.035310058656124015
0.0593704123193586
-0.020468347075826645
-0.14077265946087228
0.023052553733668064
-0.02363360751805769
0.009525890841142352
-0.0748998854035235
-0.09347823677376824
0.032842833268294826
0.03861749596112858
0.07413091524355572
0.021861323269914495
0.03524755375572764
0.014993419643038363
0.030423768601697612
0.028954386811209303
0.016659270224348387
-0.06054740469023439
-0.12884703126907032
0.006040181023782623
-0.08505416815298705
-0.01002748333989767
0.021954926693588225
0.001999321093619724
-0.010494920859606982
0.06481177172520444
-0.036137228281190155
0.034094191256121766
0.016260580342486928
-0.006902343331008425
0.022158469790307837
0.013339539296801385
0.02765947144185924
-0.04251157495957647
-0.031054800146551174
0.025476890419114464
0.03236763425942441
0.020033744040613345
0.03870398394694892
-0.01800542848801576
0.0740305521158195
0.06562162028512432
-0.012895244496427082
0.016839742942380238
0.010762619279123944
0.03513738263121298
-0.013865698123341855
0.04990531123444911
0.00984300722463984
-0.01858916719665128
0.07612320758529587
0.026071869258606675
-0.012492237299226387
-0.0292849047171209
-0.037443958484563444
-0.020629207670997105
-0.021942392531056343
-0.0349723657935957
-0.017532351368319696
-0.022696805653429568
-0.012818595854367372
-0.0159166784146072
-0.010904124559009352
-0.014215353282175956
0.04997969461859108
0.016148462151510258
-0.0742914167829509
-0.025180278116762822
-0.002543289024514023
0.015579427451928585
0.060175454717333085
0.003393318577998492
-0.004491255796321273
-0.025446596651025916
-0.022997786082377063
0.012320462946951782
-0.04930687414950739
-0.033557890963470886
-0.0031210365120608635
0.027365258322616416
-0.021698675029634094
-0.021064689859270062
-0.006593223718547857
0.21132040553703355
0.052932310980249926
-0.030688338262436374
-0.01073782845182829
-0.013037645601753654
-0.016252025240427882
0.026497831026094952
-0.0032418591023810877
-0.022012285576527107
-0.0005081706137491485
-0.009755100725383731
-0.03418835269906934
-0.015927997442063305
0.006444903572494519
0.04514543531243783
0.026586755592091855
-0.06904900543897403
0.010527307857449675
0.03410419651249593
0.0076407511504474074
-0.05721978974700603
-0.030013363463263738
-0.0366590598050009
-0.04286153836642487
0.026693885444222763
0.05086261670119526
0.04026880552835265
-0.13481101130864784
-0.0018939202677611556
0.027239486915127568
0.017875927066495222
0.02336861330997841
0.007403302403542792
0.004139605893322642
-0.013385331156221359
0.1318708215137689
0.013709456893601266
-0.021937653460733553
-0.02420718280214387
-0.03255768370246702
0.034464479682605374
-0.007006414816705926
-0.009291946617044602
0.005377062694088611
0.0013410173590075861
-0.008934193705893524
-0.006182701844474849
-0.014484815215744865
0.013885814247566805
-0.01596184686975983
-0.008296581572528923
0.01639637552008406
0.0032425034420815037
0.048495032785114627
0.01767398310236636
0.00021974495709354194
-0.001962833727610276
-0.012934099331780536
0.008798718094343664
0.02962667797564064
-0.007681399480153492
-0.018419106373192308
-0.008532448991756864
-0.0264256703179637
-0.0045638448742116155
-0.008616543192903989
-0.015898749465443007
-0.008662552460999902
-0.04441865968663736
0.06676988620950514
0.0236669352156131
-0.13208047418380817
0.04574230688668847
0.004174931568065911
0.02252410019713353
0.011254886427809356
-0.03741011433803343
-0.052014006650288866
-0.0028300042699731386
-0.011893036881767316
0.009808908436182002
0.01463414666854569
0.05733889342936018
0.034932523369823894
0.04131290101023081
-0.029951690188991076
0.025026636357633147
0.0008088929959238107
0.015122414368923203
-0.06467824156769968
-0.04477552244825808
0.007849186502647008
0.005213476972632279
-0.04853069938432646
-0.1441060939883022
0.027637829192019917
0.020050398059755836
0.02840243571589058
0.021098234789616133
0.024859733144065428
-0.04829645377383069
0.014260908292999268
-0.01874178718962435
0.0748233164819173
0.10993988826178362
-0.10364597291723485
0.0333104763847568
0.0031229778095969852
-0.013139931978997474
0.017603463950068697
0.06294665532444407
0.05072418244639617
-0.002136223970500113
0.01130552037543917
-0.00978449672576879
-0.02682355109078656
-0.055748829588659954
-0.02228861881623257
-0.022414847406914847
0.0544586575262224
0.001523101345161498
-0.03810276630264754
0.025541999088454545
0.0670961855902037
-0.0020620122207552854
-0.015138713438829101
-0.01777669004544108
-0.01904372739998363
0.023130282817837
0.04728315193651748
-0.008826531677184338
-0.02251439629447588
0.0020229018727042484
0.00406165480798969
0.0008576025532252587
0.006022103253486374
0.006524054170815088
-0.037948991708201193
-0.012708795975867541
0.03121144814405976
0.004907952812388062
-0.004136983812975524
-0.013830670408580017
0.006142916306786651
0.026800583588088997
0.0213622408805352
-0.007823511895534634
-0.09338357591989184
-0.0007751532082685933
0.05726763779384969
0.0746180720221615
-0.19258301007672923
-0.10953154894953611
-0.01687707854272949
0.029485274200054114
0.00916699303920698
-0.012295981852417093
-0.04635078100613517
-0.03237502988872862
0.005673526760407343
-0.00796232784627976
0.02395409338255215
0.047199716283001486
0.08084997881774372
0.025740857610804465
0.010788028049941223
0.09770570311777527
0.034982869653775374
-0.023047983199164446
-0.07287943518709625
0.008199796242333758
0.004074090727554096
0.007040399109803384
-0.030287102735408647
-0.09730948567097464
0.012081479311007828
-0.0026277404914631384
-0.012450592979124807
-0.0022617130051806986
0.019333614110777376
0.04122779975815925
-0.007720458185971898
0.06456704778865181
0.091405023724481
-0.027932258490045807
0.032855924576632854
-0.015015305901108202
-0.01177797785849395
0.019611833090254147
0.010033795609134442
-0.022394247411588502
0.09564319512391438
-0.0013645813355792945
-0.033982818228904595
-0.010034334052834576
-0.020684082535977637
0.01098135175233474
0.03006549670614144
-0.009275324761104372
-0.031587389169442745
-0.018622291852750987
0.015397209251012142
-0.014732068813162424
0.008399320960426976
-0.039422008635990005
-0.03112507149093601
-0.00011563860953948606
0.01291359167639483
0.01741549261624024
-0.017924534664214394
-0.024849914919367083
0.007864634152703229
-0.00965774629396611
0.02203142899237069
-0.024308889276596034
0.028464654321330798
-0.028672418776796448
-0.021312185788290004
0.0461371639409789
0.018613050934727943
0.03481161059634461
-0.013357777781086967
-0.07560237377163458
0.11851297177448682
0.0129221421191876
-0.008539001280105867
-0.04216782548255462
-0.12547421538292391
-0.001051347182519478
-0.01369729734012084
0.0064396552823721975
0.004237253235425649
0.02154911839708352
0.005557159159861557
-0.025764674498613777
-0.02699854443972872
-0.019140988429154026
0.06481028745491621
-0.017825454713781563
-0.012219366959657472
0.017218074070083973
-0.01951627852311226
-0.006411625558546319
0.026353819970511047
0.021786492856328273
0.010376746513771412
-0.0036336845618124497
0.023076577154666156
-0.009328668406395487
-0.0006033673076716409
0.024017342373423414
0.012182321236995737
0.015917757994533783
0.0453648465417697
0.03516165613234054
-0.028180976350319232
-0.021889758000973182
-0.013323843685391185
0.0016302749760946681
0.02992127127285275
0.007142074895759231
-0.022702971877792914
-0.006287680699254202
0.011935708394779079
0.01996554402043004
-0.0036303527593658153
-0.006992033006333219
0.012722748933646593
0.0005731731277041793
-0.021410845309093842
-0.013173673616105292
-0.0236680737471096
-0.03247193412725191
-0.02026380398780578
-0.11367557532981147
-0.046691429405412106
0.004008409650316476
-0.02601843163073071
0.006740384280379835
-0.0022419338028729064
-0.03697670570085224
0.043423558980297844
0.04070135375494744
-0.011551506358584058
0.10442946364766241
0.03129619220788565
-0.03250950078729014
-0.007333160972479939
0.0028480173379298412
0.0013505474909296241
-0.000966087686400511
-0.001694315425372185
-0.006781036139777283
0.0323075174172252
0.03803395098239356
0.017106964776027446
0.012900159002967707
-0.025004391317932462
0.03486859143312795
0.010278613653642544
0.003049792499061731
0.006046412679330195
0.0010842200915246385
-0.016082858827827663
-0.018042258961667345
-0.0031198721492057043
0.010391850646529381
0.003732677801112671
-0.029231370621506613
-0.016313051348477346
0.004391907329732787
0.014944107328075234
0.0029031791380348115
0.07525978883443443
0.014493235003703179
-0.007492617659233067
0.011215599623979985
0.001710255905536633
-0.008932043024421714
-0.014466130052528612
-0.025998704944813465
-0.027354335976170575
-0.02214113639647643
-0.017213792722104725
0.03017653384611914
-0.024352590085377185
-0.03961652415350522
-0.0259814480314827
0.08492795952664581
-0.0844348644806818
-0.056107028074057014
0.002588135318183712
-0.0022276666697918336
-0.021951638382133286
-0.01061448883060012
0.020568844312201066
-0.037924881796230214
-0.005766839964714857
0.005914965910795787
-0.03442795328098119
0.06733528380269793
0.12665393952349474
-0.0050589528255983425
0.05175492137722107
0.0013725586319438693
-0.0041997089771778125
-0.012583258503163601
-0.07140932285115029
0.032261634519390826
0.12044964553296972
0.0017811756038003368
0.002674883850690832
0.0014578365034952118
-0.02123146258179772
-0.023241515648160543
0.04307612126562762
0.03512893505577086
0.0023652795044889372
-0.009258223154029674
0.018848765620570376
-0.004091034221489921
-0.010659069693304955
-0.04640771934557595
-0.019757323473766318
-0.00025702146429211064
0.046250363622598524
-0.10539273300749841
-0.01930552033853032
0.006238735998229917
0.03370191831444091
-0.018401553711234243
-0.052293307225142895
-0.027913556487414837
0.01435513264209684
-0.02071738895548814
0.007132186321944217
-0.022487516243307602
0.06899686680947097
-0.03496600194072511
-0.0951909074149148
0.02635482283024925
0.016223991512772117
0.012510257348048578
-0.022740116030884813
0.02329085657439653
0.021898336152691735
0.011827280401861939
-0.010930427252735488
-0.00368824952754513
0.027287926188766392
0.030103944266106405
-0.021912601289680957
-0.008761752894490046
0.06368633184967788
0.012688447711545116
-0.026848518165346485
0.021150517740388022
0.009192197916586289
-0.04765696784752774
-0.09289222676967301
-0.025982134866842796
0.011515448283376145
0.0001589495557787847
0.012532845895132552
-0.007797226090628703
-0.04873112852714072
-0.10486544362118579
0.048556864132708516
0.065704212112369
0.04424501048466322
-0.016827188786249746
0.11018018122567311
0.12897256681916391
-0.04176349082184176
0.027267721175411343
0.05061900090678888
0.012428477069158825
-0.011049667589459761
0.006150147220167474
0.024084687026610097
0.06071545739631971
0.012455798274155931
-0.0051235005357977955
-0.06776348902916723
0.017675376367002987
-0.0017539138180822512
-0.0718026079408566
-0.032776440740932146
0.07036459094256532
0.006986071544838799
0.03015318580839903
-0.1220027170499658
-0.1266711736838587
0.05175586015632516
-0.014303663537234342
0.004308108460499025
0.06502372588726846
0.00021162894271068263
0.0388850867392516
-0.015752451541200092
-0.14693519144217557
0.02780895350201124
-0.08823162949426892
0.0006554858705498929
-0.018803380668971706
0.0552997978535805
-0.02885133801835646
-0.05127728190590454
0.08203852965833995
0.025542611180693592
0.002054566297888639
0.048037270814966414
-0.007624273836670331
0.024773454082786202
0.0377881843794457
0.025431096320837746
-0.04302472650915989
-0.11466165643969821
-0.049351345375018646
-0.02387810965672523
-0.02353149740145201
0.11632433220779073
0.034624744067223524
0.03540786587254755
0.0033255935566696834
0.0029977872207656462
-0.05213887597000247
-0.06514513978270538
0.001835239527239199
0.02703510693995955
-0.04270132941453792
0.01089859565277673
0.026491225653228638
0.063775837398971
-0.020791964532422803
-0.00822391439407861
0.054628714055493646
-0.014543907179314483
0.0212144283175799
0.044811123699437475
0.0456509275035188
0.045346288699151215
0.01134094588590719
-6.0567027522774795e-05
0.03158373206501081
-0.002861515706854238
-0.018935162011593613
0.018895087155925683
-0.037992513250836524
-0.0007449673949875823
-0.037869484155548395
-0.12968822248301212
-0.016633061902958116
-0.004451107381069786
0.029973923867661782
-0.00813234048224066
0.037391434929638936
0.011018902670951944
-0.004916353537870896
0.010732889231543965
0.01192210541251752
0.01722358440951109
0.04467907175930889
-0.14201289217377674
-0.09718902511453006
0.022613983292989172
-0.010187447862133197
0.03292712817500689
0.03873597892132786
0.03811658650400244
0.006273884825890248
-0.030465873897266592
-0.06600274568340209
0.002774815352521496
-0.05737837296780244
-0.02584673200640152
-0.006482183817717643
-0.02557415558224011
0.026621084809359694
0.0341536691994755
-0.03075188827787726
-0.0061511808859385725
0.018200444526589553
0.02460841483009714
-0.017587955456253242
0.023513477022826006
0.042619436363761524
-0.0182151877708682
0.009277473571338445
0.03322041724473963
0.08640163617476534
0.052841349167338895
-0.014838923940166377
0.016020610662502318
-0.014878446475652056
0.011723256482934602
0.00511223973090271
0.025035650679411037
0.022643292651209058
-0.04944552953877414
-0.0159629181108262
-0.012197842807785747
-0.008159444277853145
-0.00411189272224547
0.112298322851746
-0.012081042931977553
-0.0678955654703408
-0.013973138980882777
-0.008752401331185355
0.006208279909566508
-0.059743456646099216
-0.027222405572409146
0.08494445403052098
-0.010341411142961334
-0.018741081530109616
-0.03507252484506514
-0.00777940153299907
0.03701993731773375
0.004426869517848809
-0.07127512911314594
-0.00046490468978349105
-0.0078483849144637
0.03040475119829169
0.032619402429861256
-0.0031620419446468204
0.052522010952577504
0.010565056844616056
0.030209567901448395
-0.018751497795106147
-0.03693535595633552
0.05106043487427799
0.0017126378144918823
-0.030939120709608144
0.02431305002829174
0.00443448283804904
-0.01482303245259606
-0.039421883324789075
0.01345072329699717
0.08018227904700449
0.07244942536247491
-0.042869256363798326
-0.13313581279825734
0.08695671544161354
0.04342723716930398
-0.013098196210339886
0.028424866372634715
-0.015911330269030015
-0.022615088452217512
0.0006849249040856442
0.0094761833488638
-0.10909382415437353
-0.04735984214421061
-0.0021250294774773056
-0.05821001334144074
-0.00020614715633640823
-0.024314765021364048
0.0032783093126355777
0.0341554624597586
0.04300824532522144
-0.006685708175106664
-0.0031163877184934635
-0.002529111737651298
-0.011466933025192888
-0.012982868968758585
-0.00951529254463856
0.005130886435082717
-0.023689190886688985
-0.004043662228886714
-0.02423072710616016
0.022897610445612268
0.012549236530004207
0.041542143177223025
-0.02824321793727077
0.029593351804665817
-0.12888476863009557
-0.07859256682982073
0.04134887011783123
0.15145506671776576
0.035669973830120286
0.0035299162179144978
0.012546702699554753
-0.03308408383647037
-0.008092985309683007
0.035098058040911116
0.03633611442133068
0.020271562326856153
0.045890531853777256
-0.007482161684561943
-0.000999476034821422
-0.03553168013544972
-0.018033980293177595
0.029852110716450508
0.014166624481258454
-0.006588466498531319
0.009641521315485914
-0.025717443453034602
-0.037801305368378196
-0.06431687693990146
-0.01531798526345524
-0.019410327846380214
-0.0004556078341277873
0.005320241064623753
-0.008323726664828758
0.014104203448210275
0.0018382010796647679
0.005417192680404353
0.0309065038776238
0.005783294570318036
0.026174250676445396
0.0392704936229961
-0.013963108442178079
-0.010554888646761603
-0.042415473981628204
0.012936385764575354
0.0032670983174550063
0.023888996074986308
0.02025089630014464
-0.038502699488246334
0.012276787660636236
0.047426995976534055
0.0006314158922720556
0.002638483777534188
0.018482108316040947
0.004007385057091254
0.0021839971530817452
0.01326338751222611
-0.02906127725808642
0.009294422861486245
-0.027018281722169725
-0.017931441301889225
0.0017310882270008393
0.008976665420531695
-0.04591101542335241
0.027594414057193827
-0.010176975803076615
-0.024441403802716467
0.015075682787398906
0.03206465466933203
0.04833115727481923
0.000996935420570078
0.0035725253960545984
-0.0045801263161768455
-0.018906568573619498
-0.06321852838950089
0.06215355915493978
0.015612560207371218
-0.03886569604446867
0.01150780160119108
-0.02576265182712712
-0.013720745773920474
-0.0018358740813279935
0.008394403363720356
-0.012849756827256495
-0.0575174807558902
-0.02428357298888683
-0.014173636402925486
0.05888506709494369
0.0011529701424654415
-0.00779782763008275
-0.038581912772870576
-0.006619339300461204
0.011001754067040709
0.006630161280259781
-0.005440728826273334
-0.014422743972948128
-0.001249822618269325
0.02951683971520572
0.010054988196891195
-0.027520820532017
-0.034615146720266464
-0.01056554911604857
0.00268322837691979
-0.0070635535702174845
0.004495202699438928
0.01244649179471448
0.05991817792639432
0.06833302774007495
-0.006977304173330458
-0.006330195144745832
-0.030262424476837014
0.024108773587124776
0.0013766337204609753
-0.012678163903543779
-0.01241108426578883
-0.015223815819610345
0.049396550018192084
0.07124070910063443
0.03120065157604526
0.004497662824009362
-0.03247941134409823
-0.015829623987112688
-0.04517878682103873
0.0015108689096837431
-0.011600142027855385
-0.0039708294420547074
0.01640252711757657
0.013961148151774377
-0.014220577990550855
0.027414276539093025
0.0288581063890287
0.03180193952193975
-0.010543351803667111
-0.04331298611029861
-0.10127094849736805
-0.1232557161122768
0.018559548376826975
-0.0044934282443459
0.09523023232383447
-0.012986080326039508
-0.0004980734562528106
0.165161848477198
0.003706038603198795
0.0071841290151127505
0.038682924398021803
-0.010308659334996908
-0.02463714480943357
-0.053967798070413374
-0.022129200077898464
0.02099117182720623
-0.03755898119374923
-0.028944929552180254
0.048436433390431334
-0.01693858004860471
-0.047707564146095775
0.014548299013397263
-0.011745162857248189
-0.04235004054215659
0.00874778990154587
0.005367137629527331
-0.04978308429275098
0.023751560816195137
0.022170509615701238
-0.02244728117527728
-0.025764518050388353
0.06338853465722093
0.021802630881181242
-0.012385329176143328
0.00376992227749445
0.014596068042010482
0.00590004821531996
0.1068756643615469
-0.00943550468878126
-0.019846832785977476
0.00296939557761247
-0.052672128560935866
0.04292912096813024
0.026415436620378836
-0.016620140884607296
-0.021711058308949586
-0.1028047744448523
-0.02441398746130651
0.025811691156336827
0.0029608777699685995
-0.015260601817533682
0.01837325138266609
0.0381644166397211
0.01578173512846301
-0.03592604878866996
0.03265079968460671
0.0396484715238938
-0.06898425492777391
0.049242047491424315
-0.005863100672610103
-0.06362030637500249
0.0036561398777912703
-0.019867718376944867
0.029186994573980187
-0.012862464267992667
0.027370479865670694
-0.012071288780184632
-0.014459614948338797
0.02159369410388566
0.020884680512647493
-0.0192239213187693
0.005695488834523123
0.000771609873236311
-0.004417508515511834
0.039221712303219136
0.04472246992947491
-0.028674291484413944
0.01987871437389926
-0.02343260095193729
-0.05333104307872613
-0.016683016774994643
0.013681272132382342
0.006996842476074045
0.020932315062145643
-0.017799194800554856
0.007905011954400668
0.03546816224406821
0.00439505884988666
-0.0372121727627076
0.008153773965980856
0.05085900838747736
0.022452729209004863
-0.00867168944810982
-0.022125949686027647
0.013253200819588612
0.02003317009041722
0.010071489515689482
9.565701963794631e-05
0.0529933919953586
0.04648237293792094
0.0026111692895051555
-0.01095945654683631
0.010609279349577247
0.010887404697574482
0.02201075882477754
0.019416236700565987
-0.03578882524657996
0.010622285959046834
-0.033191620152209805
-0.02076332220455334
-0.014921369320774624
0.03853876520167887
-0.1258564525369862
-0.0241551222548396
-0.024265921577602195
-0.09092453919045394
-0.1728036582994751
0.02051088250481018
0.05249215397590552
0.0027087977102404123
0.02002094869190443
0.0016198442499318205
0.049363950624976734
0.0022617811123324238
-0.005392483584908289
-0.0054307972269512
-0.07245295772330757
-0.05008998924078652
0.005614251809100081
-0.016705273329562693
0.00464895657680548
0.04268716346640576
0.07514133193065706
-0.04593771974710422
0.029432789510341003
0.06396584249102416
-0.04594501183040398
0.0197419910766648
-0.0003658016265199942
0.006838163764963114
-0.017422060882253433
-0.038324207034857644
0.00389376150400943
-0.014392331562207795
0.025350819275707506
0.06144955494768231
0.009830061752377588
0.02410397300156888
-0.006606133308175713
-0.00959290652746371
-0.00944442814121304
-0.022936517413138905
0.013932521722673516
0.0043439450476950294
0.053189461485279796
0.0630358470036599
-0.15810142449890757
-0.04974516174685044
0.09542573107768104
0.021531720986062774
-0.06172359325313178
0.0696080720959765
-0.010154693604521526
0.09355536016290812
0.11533172483922186
-0.023594474708476938
-0.0021653309398917057
-0.057112127577341076
-0.04233916118981343
0.05843453898680923
0.05745804542935483
-0.03759955053081584
-0.007374657704085177
-0.03230733273186536
0.01709631436740028
-0.009612742342424858
0.03669766518471485
-0.02486952062957146
0.007101321597079348
0.00949625049843667
0.06070748121277191
0.10428127274271953
-0.06735059654926359
-0.06142412965725908
0.01746044587778391
-0.017805400511231577
-0.043352146549498705
-0.020264656815950743
-0.029046738849518982
0.002037916302092712
0.07209301549750281
0.017486936349757263
-0.03377048161376518
-0.02990720538422058
0.0023645849640023292
0.02132089132717558
-0.0005774677932694101
0.008873221576441225
0.021542733500962356
-0.03487536260944357
-0.002785947571507448
-0.054337767625690696
-0.10531383162752406
0.01879362676699604
-0.09165698101628346
-0.07497115482533608
-0.0008063467166910938
0.055829984170080706
0.05542429606021441
-0.005478761199214029
0.01652978538878568
-0.04656179473943487
0.01682121248651885
0.10609818561923753
0.02459509571186082
0.06205748425349582
-0.0010704682045060445
-0.0722420781388651
-0.021657527302246852
-0.0078390090095881
0.019487233688050408
0.02508849504243992
0.024261546325697922
-0.023461691562842626
-0.003646025678124375
0.0010905857464080782
-0.006839031063804171
0.0020946009217828582
0.02253718722143291
-0.094064104321918
-0.029682134825944295
0.006592314243473139
-0.009110862195021838
0.013883639856225273
0.026229405694250852
-0.019139239644972172
0.07241394540751185
-0.06557994713989206
-0.013873712559899108
0.0013878440614031112
-0.0014172308003103191
-0.027676594972601998
-0.0617733552070059
-0.005990641800380692
-0.027529677239610344
-0.042441834289950305
0.0003964134389960901
0.06963840732660706
-0.0027713849962978654
-0.008719304073843397
-0.005648296805164768
0.08585185477687457
0.194554835178852
0.0192600414958725
0.02153532923745299
-0.05520332781192038
0.01676484676015756
0.01674348042674963
-0.026667742590709528
0.010523242984035959
-0.018037362056043945
0.013217887388655841
0.002417928924969546
-0.026119877224655197
-0.03762867136068374
-0.042931167563108795
-0.025938505055707686
0.0023436430464139645
-0.03631823456311609
-0.017897370340300794
0.021735625945601335
0.01082106383859997
-0.040111279259174085
0.09260294728769998
0.03152123703854923
0.005750906477841593
0.0344795412189467
-0.022394587274435364
-0.009754780280955206
-0.008148868513004118
-0.009921277939071917
-0.0055245509715323125
-0.017303882313716063
0.03331031034962703
0.06961390894255937
0.0054015352171069885
-0.041792558192861255
-0.03471977280653429
0.02924054314122878
-0.030664846513478835
-0.004399815305998397
-0.0031105957453415175
0.01881737710445064
0.0016979060126536972
-0.014141637476780733
-0.0013791836980257188
0.03639617279615867
-0.02574991772314376
-0.03618996070018237
0.01709004630135762
0.048364065200178746
-0.016092415129728265
-0.026237937545013117
-0.002140509881432674
0.028768079258652258
0.06114307225841252
0.006879393786631261
-0.01794856699599875
0.0013562999776887573
-0.00030028898724683074
-0.0071552299290852895
-0.02910018596073789
0.017956376553516985
0.0113793866157642
-0.008822584225704734
0.01492455748122965
-0.041491023200852066
-0.015005582263407737
0.03505293082158674
-0.031393844354209964
0.01355081128103458
0.026914525248165323
-0.01577871870674307
0.018771781917306368
0.009999505669799826
-0.007311424856098743
0.028820894179613407
-0.06350145594370453
-0.19694574684466026
0.005100066140338643
0.025554908850727306
0.03311804971719088
0.05126635137071031
0.03319671238075046
0.005862897411637396
0.004819449857933646
0.031969680451181
0.055507470131178224
0.000399700383065549
-0.030098037772018714
-0.004212819147640292
-0.06024273403416762
0.007009783064203218
-0.14270461002250978
-0.08678907889888503
-0.010408939272361927
-0.005250801136394371
0.02098039047338315
-0.009329275681934484
-0.004424947703766934
0.05843278920474449
0.05299626961652282
0.0033401975944910905
-0.021644271557036448
0.019334343484236703
-0.033809262152351735
0.056023687871097586
0.13770621929498003
-0.051632397147411975
-0.05055181716729022
-0.03825845269695119
-0.0015118067746602885
0.006296571909172928
0.01199344102673801
-0.011020660011050353
0.04660255198879596
0.049726892270299174
-0.025852852107799414
0.017579770145919542
-0.004875139649323173
0.03624326909999079
0.034828825098327354
-0.009370681175231764
-0.004376572145513775
-0.024777602055195337
0.04578517464949434
0.010344681336227454
-0.02015955652406944
-0.08406730783287188
-0.023992319039302826
0.018296058159820973
-0.020468164876342714
-0.04000141677299087
0.03609653437779167
0.02209894665379182
-0.02461362939439034
-0.01774407944735827
-0.015280565069296797
-0.00023496583905940896
-0.044842545471523
0.23053312657091798
0.10998657402630183
-0.02100959317476856
-0.015389788826630139
-0.012700835339073699
0.017638268423946155
-0.025153229512631717
0.03871980422947777
-0.0011454331559154999
-0.001175511750931223
0.02710624563506148
0.03427015376496687
-0.09175222927681236
-0.09542282985333554
0.012932190177936728
-0.07697648597555094
-0.011056217950023145
0.02489758939222764
0.03874831531411929
0.026966795090158577
0.007574372973889992
-0.020131701022634348
-0.024001251996366182
0.017672354257032747
-0.03276929772167189
-0.07655409905907008
-0.01233972457998645
0.015422975433389694
-0.010019230535912166
-0.008944000895438623
-0.004951675472993209
-0.006098409680723092
-0.009626312332342504
-0.007030446164814982
-0.030036529607145156
0.0054266835685775104
-0.009673380871949072
-0.0015965322981472796
-0.02433153495671845
0.011615351218943864
0.010534468008549656
-0.0076306864611080044
0.015471758275138428
-0.00752045143250684
0.012361638206598824
0.0034597543405042812
0.03356828748894167
0.032498440003737444
-0.005888585042378559
0.023068121163537146
0.05295213896770321
0.011922642577240046
-0.0021345059963769147
0.02304252185058358
-0.0025286635223572954
-0.024151403031088262
-0.045776325361693605
0.014094643237227561
-0.04124149263241928
-0.015561801521579778
0.014547303046797463
0.001591561719373779
-0.030374635828378505
0.08397831163629722
0.13395569176185412
-0.02401595238336698
0.01814939356886602
-0.07652315828899736
-0.007060635721129651
-0.01805991126637529
-0.020497200708336886
0.021269114613895575
0.016476743004369274
0.0054346122602169705
-0.03948556333861921
-0.005792341105017255
-0.01806847151945069
-0.009973300196612885
0.022852158016008112
0.018180704693484626
-0.015572552474319115
0.008131467900711653
0.007275927473213896
0.017801384275950665
0.012685067465605488
-0.035179509974302525
-0.023476592355913043
0.03062590792535638
-0.0183194790807679
-0.007222586560481388
0.04797393777730346
0.03187933753936956
0.06665392960060726
-0.05035929489215212
-0.18160905083968412
-0.03188164964666053
-0.007258490505982718
-0.022732336257405346
0.05377773823422516
0.0633395156050156
0.018899705278943236
0.0037578379813052393
-0.03782655136148685
-0.031418911297932235
-0.024640258131878798
-0.030669214846226187
-0.011099294351655051
-0.0009276029004833915
0.028091221482772988
0.008200947398436537
0.030108847312534864
0.027142862067190493
-0.043871534015202815
-0.00246558415736464
0.0049146632934430725
0.05855009691492732
0.055298181138217786
-0.0006963401904877455
0.019464682589838855
0.008957265851592386
-0.02129512015058197
-0.0025019476920025985
0.018647087730644215
-0.01007819097940219
0.004240887778540615
0.048618355875287546
0.0343486548480983
-0.02132327364968321
-0.008744980454102784
-0.0023001177633674387
0.015474911022020203
-0.004805465056248572
0.1176170817864788
0.04122597736108295
-0.010196166916499933
-0.03373999219297458
-0.04199684565295589
-0.0689112070010128
0.015786458217039664
0.019352282029424028
0.012668447453821268
0.04849078387689226
-0.014151282452747419
0.022642481349726244
-0.0012485605750652978
-0.020936735754299655
-0.1093489536163282
-0.055993688579178864
0.0012583521509171045
-0.005148992206122768
-0.044825866442390894
-0.027345174964123843
0.03657882875086303
0.05643599640511953
-0.03948281756494768
-0.21076382258529774
0.01820275380290241
-0.0014659941758602302
-0.03066704771619597
-0.014647341753528194
0.031816325861184505
0.031110612346048817
-0.009400692897470465
-0.007986870719313284
-0.013561911225226294
0.034135093546266156
-0.017488755378740506
-0.0713755257768645
0.029393032529909092
0.03777460985309625
0.011113032702127677
0.008742970840503341
-0.00355010386950842
-0.026060441015134796
-0.023265652927189597
0.005270054234538305
0.13062882341346527
0.06949640392407129
-0.02547075008563906
0.0645487463807157
0.0395672848859332
0.0011191791402567414
-0.03295931001739685
-0.018717603415681457
0.05118660460419288
0.03479501102186855
0.0034965828768115897
-0.0235783462143109
-0.02142451547655112
-0.002114273179805605
-0.011697069705953302
-0.010243717499812009
-0.00946404254663272
0.012700502542655017
-0.013932967448479067
0.016472554473270378
0.015012943996159836
-0.023534057585226992
0.008942948546872791
0.017903739672588147
-0.0005918833235558214
0.011167501612463809
0.05129480759693918
0.006361371188526416
-0.049920687200028194
-0.007692477382447759
-0.010325011362958245
0.025993395382569166
0.04669161031266252
-0.00981339434391572
0.019365918987273977
-0.01893217864394454
-0.009938012610389384
-0.0969452950984783
-0.03470829868371253
0.011407461844095178
-0.024059106661565962
-0.04677367082037366
-0.0031503204597180512
0.06649505507931834
-0.013532745726360127
-0.01938034541943355
-0.0032573872712753386
0.007557799677263743
-0.014713780376305677
-0.007227829111192505
0.019834851589656963
0.092337937122012
0.009039221492782403
-0.02237187563957341
0.013561893360570567
0.004733059964853654
-0.030389768966439426
0.031388501945275774
0.09653447466133093
0.012955444722658072
-0.06424383481158315
-0.18340654771774376
0.0002451246045961748
-0.017005547443386896
0.04026460802755135
0.014378196501226443
-0.018927750565029055
0.006896933856162791
0.011429154804787997
-0.01806457014903338
-0.02932571976349329
-0.009419785487623308
0.06303712597298254
-0.018374072630379375
-0.0012510874754802586
-0.0016063591737318593
0.08386798858610255
0.009708001510864558
-0.0035973245160881443
-0.010402378311096961
0.03397657698489997
0.015589741172700134
0.0026273498968837155
0.005925118286484069
-0.002036195140209212
-0.00818568209074958
-0.02318146428919694
-0.006195931008588806
-0.0036747298813801323
-0.04227817673762057
-0.008848302300611807
0.012908453173300187
0.03237022181992245
-0.0056401989129168445
-0.01796119427115437
0.06487659587163411
0.0026991875331498624
-0.01567742493763386
-0.018356620477806267
0.029556848327446643
-0.0034799647996935613
0.0011220006408127496
0.019953170589463498
-0.027375967498037918
-0.019267027370149886
0.0015702573565717817
-0.007768427917830965
