0
0.056160966368827246
0.015371981059423868
-0.016778763543433203
-0.003932105467335583
-0.024323379298855984
-0.03123992616164592
0.005328383670088451
-0.03747848897878964
-0.035663081810919886
-0.04374975798870577
0.010010053205661958
-0.005665852243184816
-0.03280095644581927
-0.02592036898860611
-0.023149902933534573
0.016255126476447807
-0.03095789608241874
-0.01666736399900219
-0.015954307129905178
0.011055848005906083
0.1075217093334305
0.018881678312654977
-0.006747311389055124
-0.05472061572605822
0.03346640717529489
0.036955887415916995
-0.05841828907116832
0.0015540220334188625
0.00153989280490735
-0.00422930119946666
0.01563202004195713
-0.024702847267449386
0.014104279320323205
-0.0037696755683363434
0.023148375673194242
0.05699488827116844
-0.011386551701003418
-0.03501291079477673
-0.003618979139148869
-0.01975833768385295
-0.040345194483934026
0.02535538993677893
0.023228187421559635
0.013301040483883683
0.0026786897627400735
0.025549002974843048
-0.030985606421579406
-0.012327520298460334
0.046175777936160144
0.04298405658701822
-0.01519589414084712
-0.0049502522784490395
-0.005244564060790354
0.04760352405527823
0.027501815715919715
0.0355400972135144
0.021904841593557097
0.008085796390164377
-0.019256322374311477
-0.0036805795908595837
-0.011862650665529571
-0.00853050880374409
0.01731821222782956
-0.041175388211002674
0.008362684025700111
-0.019641546584328876
-0.05645812070343814
0.040767761963633284
0.0178722585889607
-0.0389028850077985
0.02718153780398947
0.030993765670492474
-0.041420373903719485
-0.0035352878089877937
-0.01558630002364387
-0.00323175502281951
-0.008585339606405439
-0.013173957421493583
-0.00046700521199944067
0.030975169023108793
0.06379302816319743
-0.02828678044726412
-0.030660265968810836
0.04500875501709188
-0.14281271817902524
-0.09013278368843942
0.015822828494495993
0.0002402378203023395
0.023456874313800224
-0.016683921750141346
0.013235500662572453
0.001209213384715715
0.0303550367239618
0.040718882473299176
0.016871061386771476
-0.07031076547602284
-0.09898856283066555
0.04045642712070627
0.0370508768051717
0.031179002837216235
0.021548419647849953
-0.005151388828769964
0.04590808701881871
0.017944925817301404
0.0014474009185747297
-0.04568988791587766
-0.08146311743675623
0.03157531497310106
-0.0017928863617225177
-0.0046944024084974705
0.049319924699233186
0.11501812161236304
-0.024698783275025605
0.015941298781786004
0.0026122712912629957
-0.002379603911972917
0.020542253385393564
-0.037901425927792436
-0.027045960347787276
-0.05608218064679199
-0.004014259134127766
0.04640193247775371
-0.003951503994555054
0.0006928851687187557
0.015738167804144186
0.012268344777052291
-0.006586174819963988
-0.014390022842999391
0.016715034070909348
-0.03180716336585997
-0.005051706375325176
-0.01308560994607622
-0.001499333776983713
-0.012755018044410744
-0.019000443495548868
-0.0011423200182519198
-0.020717981461376267
-0.012039649567154722
-0.005651295867155425
0.005871424813560495
0.010884340198970624
-0.024516402143204566
0.05661879234312681
0.06559669558072474
-0.03433652246341087
0.01195898718785386
-0.0018906891461404679
-0.009107042191432905
0.025599328866851425
0.10188360782624917
-0.002960018716359013
0.008777965664182317
0.0010585643724713863
0.012151447496720012
-0.011160606322967687
-0.0045170324739169775
0.00018435270331961895
0.011607868364001357
-0.028477399390814916
-0.028761709338189792
0.014328416601612765
0.037408432017312886
-0.013176878492534518
-0.020989719338838312
-0.03140933351605529
-0.007479037626356686
-0.026719484376791364
-0.000992534046476793
-0.011885099834677502
-0.02846463099271259
-0.021864778222176074
-0.008900815645679133
0.02298195309454112
-0.0118455152689273
-0.018244087440838656
-0.03507609943495546
-0.07944648164766976
-0.004819570049326474
-0.015223550497403756
-0.01896105487872443
-0.017355869482631892
-0.00024448440744063906
0.015056575096167117
0.05738030368403384
-0.010720336902461923
0.005488695961810629
-0.00495691584630318
0.1193962618682817
0.009471165799022564
0.0032716479842487644
0.016958721857286956
-0.0020092309430868515
0.04260533736397907
-0.024502671956059777
-0.002258347911662201
-0.026659668853054114
-0.06800987814799415
0.0853762908020688
0.018618935930010724
0.02562675188760414
0.017056328669086882
0.01058644474050554
-0.0002964595420058606
0.004351595585391128
0.017507082890537706
0.019398304487419058
-0.015166458687891083
0.00881783675626665
-0.07158226930937667
-0.03999373889803075
0.0041717219159746795
0.02074714276939935
-0.024818954278618858
-0.08895464711476758
0.08344375160973272
0.04020840649432577
-0.010847623556992283
0.045560500057360974
-0.007237085968192499
-0.006635542387532078
0.015984161420641615
0.070691535447915
-0.09963523870994409
0.007762547246926866
-0.011634312083116447
0.08563642751687399
0.07962870904427972
-0.013617743264287272
-0.01941312630448045
-0.14788751071232728
-0.011093654549744843
-0.01889615366030817
0.06080686673786815
-0.0238279260256737
0.019163648454129992
-0.012665781574750162
0.051091092749611204
-0.026215342989758705
0.019016503925517
0.06455461150374381
0.021245466344326974
-0.025835912877822005
0.02100452323382273
0.04400697743284082
0.03740470675726639
0.04587091389633092
-0.0144094642936742
0.016136161585899905
-0.05722681675198406
0.0011475648126883123
-0.12343309284793516
-0.17847486852787242
-0.04262669501669467
-0.042346192525609026
-0.03970380667708955
-0.003523013482694906
0.041688814690437954
0.026430011286595927
0.030276500089791145
-0.03833747137603256
0.04464718056845622
-0.011908308027252882
0.009329452437364947
0.005387434258426678
0.03423400111536802
0.03597716791792948
0.017795963089634707
0.010653860212483747
0.02305687043160232
-0.1296533467114786
-0.0019990879656806913
0.0442586957799382
0.08030913319944324
0.04939728716769841
0.017455367483358266
-0.05548643976039078
0.0037273935358181076
-0.06904305174009394
-0.017488645556963153
0.01294902600721637
-0.0013658533487685793
0.004237479487246249
-0.0063095609459224095
0.02260015154404254
-0.0007933097343484123
-0.01761788674197557
-0.08281583565118648
-0.005176698976289552
0.00641969698105247
-0.006988821722389564
0.07636449959376841
0.016415240007707308
0.03793871788343616
0.014803440850651077
-0.010192928150258367
-0.016356812955347338
0.022498873511146867
-0.013768224570352818
-0.033732985872134795
-0.024609400566163387
0.00365742864568629
-0.03168364283347962
0.025663955880784215
0.01905546395687291
0.009944041681604603
0.04588966812893417
-0.01931399363504551
-7.714043255499552e-05
-0.003200492535774831
-0.0013960250764169992
0.0888256316324704
0.0010803460873302175
-0.0026664781460480915
-0.00035436425656432303
-0.003484390766096491
0.0216780875096788
-0.06682301527088312
-0.009137384905236063
0.011088789929130408
-0.03731068777687159
0.030774878468108648
0.004662619822914792
-0.015601607901805587
-0.03052041974641049
0.01418335900112415
0.0045446910426026645
0.01103264889849438
-0.0032974446616464504
-0.030662879760159238
0.003489993400836238
0.01422550691286088
0.017856929424590755
-0.007897566329507813
-0.015444753957910232
-0.03159646764797252
-0.020407821100051234
0.08811152460608507
0.027981007079648405
-0.02361040380678429
-0.008520566973614184
0.009264548623603718
-0.08850424820225208
-0.05258573606317859
-0.022319540280885165
0.02362785686870606
-0.0409578595879368
0.04221788663740571
0.024163211715114014
0.028394821650034235
0.01605192546244008
0.009961673426382262
0.0021804844048218352
0.015882237018895764
-0.020496336258321365
-0.02949329216222932
0.037497099055642254
-0.015684902047269883
-0.034304621047468294
0.06823820186655509
0.00478366357950436
0.018797876912865955
-0.02433503914754826
-0.07405562581310134
-0.000998629362860726
-0.009083686987326034
0.03284737381015137
0.24316160753136645
0.09555835681907414
0.10892864117962682
-0.05213282625813097
-0.06237324601491869
-4.245339265551183e-05
-0.04773833085438166
-0.0672546254934247
-0.01933132160928581
-0.027714903594471825
-0.028158552607213005
-0.01277569910516462
-0.062691994069784
-0.03554016198861469
0.026052681336466776
-0.022954001732596874
0.00469106210142163
0.017426025462281915
-0.02125858299676066
0.022016501976661735
0.0022227199515678538
0.05202932044625449
0.06850969377835522
-0.000130620729582316
-0.03799746725013573
0.04467300153720065
-0.018321240889888343
0.007786844526754865
-0.008620517089889205
-0.045660204807729594
-0.07893939924675263
-0.04796396920612681
-0.03460832741600421
-0.01316232672334915
-0.009576770330123387
0.0248815111053906
0.02633164289076115
0.06769413554185044
0.0018886369387409844
-0.0062556638072091015
-0.03728273323139948
0.005579398979337883
-0.026064975797228673
-0.04927100869520052
-0.04478673521016688
-0.0555868995017759
0.015758280124703247
0.17721480220224547
0.11563213287774579
0.004125683739416415
0.03545471788441114
0.025321906187744464
0.006310614644977405
-0.15674620440532377
-0.07556639381780764
-0.026574226089621553
-0.03755793581003632
0.02730718560824714
-0.01863038546993101
0.13084084908514537
0.028213856195120797
-0.033522834868821016
-0.014080851160406305
0.02547166325195424
-0.0022543773996202407
-0.02035556341667158
-0.010918692924870674
-0.008350239128769404
-0.11060431426596092
-0.022508573386855007
-0.001857449362015462
0.03847370195915933
0.062397959494606275
0.04590333663804787
0.014775049147837267
0.0005695930738781976
-0.004936244966662852
-0.054760475035999075
-0.014513701108591178
0.031629705676493626
0.0018721161125800766
0.014076436363764325
0.017181977017458785
-0.030251114289243753
-0.049872780587417315
-0.00045718067331319004
0.02974018975288695
-0.051318481454312684
0.09474003322059238
0.08520252568440799
-0.04044709141914765
0.0012718178286478521
-0.018216446027862068
-0.03285873857375594
0.028057839104631246
0.0030964245316560334
-0.03323165014651728
0.03433085873394702
0.1214218927262214
-0.021624921653575782
0.07520187146016252
-0.019959470676478044
-0.03564498504937161
-0.005297171631182571
-0.02153225876205171
0.02122911896907145
0.03328773154165221
-0.008453858946408162
-0.020237604378382283
0.021846227983566446
-0.005475038046159047
-0.02857124758290845
-0.019586606087291673
0.02232991405585791
0.005348221588439257
0.00305106002082704
-0.013897824229492536
-0.00870462856199621
-0.012071344243677845
0.0024609662595076213
-0.03140819284299801
0.011311800529145563
-0.041110503551376354
-0.0732630695772842
0.07650139064118171
-0.040442922972659306
-0.12018413577074391
-0.01656616875800984
-0.02216147588370051
0.05167363565348843
0.0014752581834089923
-0.0015775193912477426
-0.021121184781234197
0.07466821392674727
0.09707863164993302
-0.03163149101851437
-0.00976263548387104
0.026234242981787025
0.037406652672149585
0.014721146616634482
0.007301332528038197
-0.021074079655828262
-0.022954650931170165
-0.04510357476134496
-0.00863126251640725
-0.06420640423133177
0.057813614775449725
-0.013061641199280567
-0.04556940808438813
0.002025107240955496
-0.04678789281056025
-0.05453368505484446
-0.011882105640999811
0.13952137092854927
-0.02273061026050845
-0.015094649844298905
0.0012342097432744045
-0.022778178713734713
-0.023597324068337682
0.005634252988451427
0.07819963083443487
0.018048481756153544
-0.035111192544415075
0.07137269013599508
0.026629282348863057
-0.02525166424155771
0.04794732963287995
0.018574437301464488
-0.010402632952194298
0.011067225787824285
-0.028111681545353148
-0.05396634368154344
0.0112709939443906
-0.007907909199864668
0.010213601314224337
-0.026978024053931734
0.02631835706226851
0.0244190790134662
-0.021749422981725382
0.05426915582553645
0.0016920264835210825
-0.029482323435429433
-0.02173776900389202
-0.013711317645237444
-0.02147853422248083
0.06471087336928792
-0.04320066778437032
0.012581154965798902
0.02015119063912419
-0.010264199399037274
-0.041188629774470645
0.0687418131972198
0.09698566380807293
-0.028254252942929922
-0.011913889905692738
0.00289486015272822
0.009267458262221029
-0.010214135669598291
-0.019482752238954147
-0.024849484210869903
-0.03364177732274668
-0.018133094061453244
-0.042758791389087905
-0.015037466245685456
-0.10489361821463858
-0.05465954512751657
0.0011253667677180387
-0.0001886523445811575
0.016715482653058545
0.0006628995740985387
0.0592299185959902
0.05595062878723413
-0.008694589418408541
0.09232647497740282
0.11592801764587518
-0.05456832477116936
-0.013702567864183099
-0.0061512946335229475
-0.015346990668281532
-0.010224778081208787
0.0576754592018936
-0.0378299164920779
-0.02443451847405974
-0.006729158629162625
0.012680603100523963
-0.003495729460346055
-0.08562888721944094
-0.00489780582346091
0.05680470334196567
0.01699369239232705
-0.08354693257165485
0.007023018198296757
-0.0337703738211975
-0.005992989394126158
0.15178001992977772
0.08285165355138964
0.05799868768767538
0.009561368444398949
-0.006117851224062816
0.021773676710428135
0.00430978629085868
-0.023899908120669135
0.023826882273830105
0.0022231413471002592
-0.04937388223852717
-0.022773236951517128
-0.017696221494206448
-0.05070606025631501
-0.03785398682599011
-0.031754654497985695
0.011498369587709858
0.020944512230390757
0.00035131475856893063
0.004888505354730555
-0.003653480386271401
-0.02621876328208073
0.004549163715380483
-0.004374502577515128
-0.005742332232615184
-0.010739945830449226
0.032465570188930586
-0.006062407801258835
-0.025022755519191343
-0.0295458918259689
0.01901432210325972
-0.006787235905408077
-0.03432849854011819
-0.011787120748859124
0.015473649481185672
-0.027174155387293966
0.02917980908152423
-0.01115691499500849
0.039144227570753386
-0.10418006586299425
-0.07834115281723741
0.005663671646530555
0.017046773928550016
0.012446220082021392
0.02164737890580828
0.026563553127224335
-0.04090695566039541
0.011451469270894557
0.014401926380497386
-0.007663411464977791
-0.03360881955021763
0.08761200301374719
0.058142995730226514
-0.013601515819374
0.09606653130104043
0.006483307965664958
0.029648373230748832
0.006465113458596709
-0.006339563786480741
0.0249715840930942
-0.0032872543700374316
-0.04156287620607972
0.006517576484232928
-0.026042220558901506
-0.04344985193810484
-0.004202465043776236
0.03037905608682047
-0.06899824987874977
0.07640207837386791
0.05905679689121048
-0.04610327672884533
-0.020298972375750474
0.03476840205362486
0.057043353141109164
0.011022483209348719
-0.021302535500362773
-0.06884192611721023
-0.0829466619207535
-0.02681397837678609
-0.059591998458876555
-0.01155486876519964
-0.005885929543877448
-0.029388263803276637
-0.006552537062876196
0.034415948522109954
-0.07743835546036479
-0.05533473600093265
-0.04235132475056074
-0.0007631811621795438
0.07999493733432853
-0.051001475826548806
0.043856308743516356
0.15960373594571547
0.04435515236122857
0.06100123918380413
0.08676783580543031
-0.031547370695998556
-0.017710068001743382
-0.021751164184982952
-0.02789636312363448
-0.024314668190210928
-0.034394856695476636
-0.029082462766637614
0.019738219926681275
-0.033603067051713356
-0.019422214615915603
0.25627205698238115
0.1490595187484525
-0.0005164039338566925
0.13788159481045725
-0.05472339640098784
-0.04117571505005132
-0.07113743971297519
0.04053413597750563
0.026443767166842946
-0.026365865647506908
-0.04067052231190268
-0.0038879734215400844
-0.02228914241321511
-0.020319761896082825
-0.06301194771196998
-0.04943476162962273
-0.011140230645242227
0.012216765499766405
-0.019403381583022742
-0.023845477570803315
-0.009874989967409977
-0.018866379388835973
-0.006026250014193375
-0.021214185049062133
0.0022158048879563595
0.006030592875574305
-0.019750082608458355
-0.0007261198923289891
-0.01428719467609456
-0.023535104424014526
0.02100425358550296
0.015300909206361128
-0.052955140768579316
-0.010371964687240528
0.02349036459138019
-0.020615650676354597
0.010969121034103366
0.0055546325394484775
0.0130973683585511
0.0058672565372571385
0.013643741221589432
0.020034641566011296
-0.030835039663624237
-0.03798507051647274
0.03271046930740139
-0.02165103319477871
-0.008932743434226356
0.015126298324542934
0.012927033043011998
-0.033944797304248285
0.013624144246224476
0.04935735007882039
0.02863640913402823
-0.02922550761930612
-0.008241902587989819
-0.030405166183482105
-0.0046490055205059035
0.05340226150731668
-0.00791926334489549
0.006178620881149628
-0.04396940779930877
-0.008419700290393581
0.009168234558749445
0.0012036772371311702
-0.06250097638984856
-0.010307938715884021
0.00024859289858973887
0.018792376322716173
-0.006711626184590836
-0.01604070178266842
0.024012650088311792
-0.0005615856441056836
-0.058227458825544386
0.02164899619062518
0.015474646679589095
0.003878383242153767
0.007097266923306987
0.014964504589825359
-0.03785459268389367
0.02786097486703068
0.010145105822788549
-0.011334181243727169
-0.007648800858198378
0.02097391608580504
0.014598414139388534
-0.04302631931332614
0.038082509020278814
0.01828227216045579
0.002953978046015138
0.16955467198341945
0.008560261791082713
0.08128932596261322
-0.014619777826616852
0.020344854544509003
-0.031713658588470396
-0.007348421203147718
0.0013892640551112793
0.03138621539201761
0.007561649264601676
-0.0812203324785291
-0.06033132776741119
-0.001513635802231869
-0.006291861812373226
-0.027642161514988724
-0.017760106906877685
0.021061262939099955
-0.0029503127190881567
0.018070645585530228
0.004596706358107345
-0.014715971814407182
0.07871209605753766
0.07540426336035029
0.003405457974926345
0.013754375266809421
-0.008527134507149564
-0.0578250768134725
-0.022063648490575696
0.0015261680255480386
-0.03389712660085931
-0.0016650966644332463
0.0279968695413327
-0.020461236565480222
-0.02899764762448455
0.014354627232298071
-0.04966645475578135
-0.04189827186434086
0.024956388562541797
0.014780802834270742
-0.021795141979047822
-0.01877255692201914
-0.02641329239588491
0.021752475355835212
0.016749581034780744
0.03487055175020901
-0.005732204956042885
-0.072891285930495
-0.01752670436834725
-0.012554909558962594
-0.014642639825959503
-0.014238544424283663
-0.025332735327597757
-0.016445013981298672
-0.0010198405635839611
-0.014569959301537766
-0.028611062179503457
0.011475869215986671
-0.013740107896034828
0.025679702005835976
-0.0029681921832618936
0.027704332650213742
0.01240620202299325
0.007307621763448437
-0.013882879682756026
0.0023081448414818437
-0.0050325433137066895
0.005846812685759539
0.014994327573835918
-0.014597088695394571
-0.0035893529391358564
0.027369637063913144
0.027069866416878353
0.018450463375005735
-0.0325871975181583
0.14766718772746684
0.06495911353897837
0.00859315568151273
-0.0033271521723410875
-0.0511941788945431
-0.020750574795716833
-0.028439583742141533
-0.0196334983200233
0.01491399368307987
0.026807434282594883
-0.0028149887536439966
0.0034217288738534837
0.047212677017193845
-0.008400568131033051
0.020850165412989397
0.026535913477374964
-0.022011267649368366
-0.014974700179466506
0.007691270005958926
0.018177320605928422
0.0012530413185834984
-0.01627891462345145
-0.021629416572254947
-0.00024205358459323373
0.0015281486975611044
0.007643145547376558
-0.016276639151909706
0.037155225492288876
-0.1253012147213838
-0.04844618924367381
0.023177879323340703
-0.014105725258924935
-0.005646826835914292
0.02047253317397215
0.05200279388582327
-0.01065799915669519
0.04532339497335074
-0.0050004858912731116
0.04002578284362128
0.003498308628158507
0.0094102458165537
0.019689265715325338
0.014652193113876702
0.030078677191469914
0.024017540916554097
0.06195027520008709
0.0008256473887429762
0.0044247509214951665
-0.00579227238876285
-0.02901804343237307
-0.012246885673225382
-0.11883886540510355
-0.07617546207553427
-0.020261793429101362
0.026426926176863798
-0.13451555634545131
-0.04089692671986895
0.008250937625117529
-0.010960842026773296
0.05789815381096858
0.02546963041857606
0.00970868996378611
0.012512446574222921
-0.0517316674579454
-0.025783625419266657
-0.045229390128092545
-0.10366821168281677
-0.03600699053904913
-0.0179562199302529
0.02608556602306531
-0.019598414463664046
0.010782034272451361
0.050274821242982326
0.09268565402688096
0.10043825450903082
0.07574050909977482
0.039892686588567365
0.039499773727924924
-0.04580374041480974
0.017678402697173065
-0.017192641341586577
-0.025466047446460943
-0.026423032734802364
-0.009103449508008336
0.008197103364080187
0.017798452547024748
-0.021597353258006644
0.016509075394396635
-0.06929826957272213
0.02643717705983553
0.15371703302659057
0.002042933218228529
-0.023305522474584197
0.002774580556839931
0.03780520014411055
0.014015702916001922
-0.02155508522109471
-0.032095440266058275
0.025751359000737717
-0.022559964787552803
-0.03227713136906875
-0.019887713492753093
-0.01118236916917321
0.006902243980830183
-0.0279816482815869
-0.03799876477930397
-0.025995528976336158
0.020761958135645527
0.026317420498903076
0.05458824711093703
0.0032886354827514077
-0.024668517580557728
-0.026978007488783255
-0.011444936374380387
-0.0008675224973467004
0.08560919865835602
-0.0001481915364227722
-0.02001534508152676
0.005333188433412064
-0.04999957374596422
-0.02386665233113214
-0.00943631507508595
-0.02114340757708176
-0.0011541415361966277
0.01565299312906605
0.005675841018816938
0.020544021233990364
0.02173615301826821
0.011849596218746788
0.0239155885698967
0.0011793035355625698
-0.05043108000758965
0.015765595267317932
0.021509131691208546
-0.04153506371466382
-0.008883271763733101
0.004848291877764228
0.03264263177523257
-0.030684583699402492
0.09810318023625107
0.02358298591236168
-0.07251363751242765
-0.042841461719503704
0.054192709960321446
-0.028016515451753748
-0.017314205416892128
-0.05317947907099208
-0.07867004236315259
0.009928273284514271
0.1231395502440074
0.04124692977871853
-0.014834726940321782
0.0459504035823448
0.0033612209455999653
-0.017561520932636413
0.008532600395850829
0.004206517948646859
0.06642646197219136
0.04954146762405482
-0.010458341030491536
-0.01282339969284819
0.009239795184767807
-0.029950893566012757
-0.03896418533146801
-0.019404530456754342
0.007740155309071068
-0.035577201903076665
-0.049830593921345354
-0.026183437930673372
-0.09144686578307465
-0.0365715720579561
-0.02563977633267144
-0.007018404376355414
-0.0012391386605805413
0.0034013653626023986
0.004118232759953311
-0.012731776158831894
-0.01555932746702131
0.03519206310893433
0.01778375293485574
0.03824310684821015
-0.0011128737956820063
0.02973837591649435
0.0701429019378979
0.04705346421200109
0.0063061051133616
-0.007969744086975199
-0.014374524087541961
-0.012667056396130359
0.004506496725466421
-0.01918526415565007
-0.013556687155412283
-0.025328343117019755
-0.0035416800964674067
-0.007334059778431419
0.03546343219239493
0.03755626861546949
0.009561356150390336
-0.0008141576123907726
0.023162758192629144
0.012181560073102445
0.02057003628017163
5.202932804754287e-05
-0.026267849291492073
-0.021365145374598476
-0.009936907038546662
-0.018291280734133015
-0.02178911526751171
-0.031950940317577316
-0.06158087989670397
0.06315672399710727
0.009487470378294813
-0.028011942833961436
-0.018695671558858304
0.004771294054630103
0.007323872437632817
-0.012615472575686154
-0.006506145811499305
-0.0014739437371912951
0.00021026754529049574
-0.02571994435916896
0.03396923209168144
-0.024166231035497216
0.09250159268681628
0.036292286271076925
0.010853330118377776
0.0041790750383987165
0.045089249143683875
0.021546492705262956
0.030092461905844723
0.020933059041697285
-0.09064434916963089
-0.03234569313311209
-0.019700262245914486
0.01399204471107364
0.05716885320116032
0.08324780050686331
0.07458017758818294
-6.252283514811488e-05
-0.023824094137016073
-0.013732705811935586
0.037249346252953376
0.04650931788758879
-0.07160738114481847
0.003952594290308152
-0.013931648872658377
-0.13258903870566124
-0.042843054553716474
-0.05594501947263024
-0.04074066157093713
0.010145968603580828
0.05154214730612632
-0.010962570275986282
0.05234141594774119
-0.03828157418865293
-0.15999047609835607
0.04564322151114579
0.017450657992501013
0.04327096042455485
-0.10802873223679463
-0.0735452076605524
0.015160167776296262
0.0020776490703304186
0.005884444342213494
0.015310844727576729
0.018058219578689427
0.07338449467726486
0.0013239959042139148
-0.04814827854594914
0.036635791329427236
0.03560231569067753
-0.0017711424167794467
0.001478274615175675
0.0012472095147276932
0.04964586898189189
0.023260563037419205
0.022469889913987937
0.015423112260446112
-0.031216145073367656
0.029021162915368232
0.06873616838050278
-0.013491787003009448
0.0023271719897458077
0.021590861748275174
0.0016691471413872079
0.01965842107472821
0.014086408694506938
-0.015841468303634913
-0.04227683392489861
-0.03293300541798976
0.0039205632197389685
-0.02155934244113675
-0.017033637979509953
-0.016420151938275833
-0.007158470861300623
-0.01763955499290569
0.01731050744581793
-0.002829869378171293
0.007698851555623182
0.008367285202662032
-0.02905576084374218
-0.04586812189086276
0.041279873841296534
0.04714085675740548
0.003514318073958066
-0.0249739826881708
0.026187280090743576
-0.04560751401773514
-0.10071481509028775
-0.004678939275373055
0.03340167379403819
0.001344516120887887
0.04485264376283219
-0.048699188654700125
-0.019384516628564268
0.030413808581684694
0.024589813742935816
0.03996272426233126
0.0878556769876739
0.022410816820993686
-0.009729543396582689
0.016831192486260152
-0.04670660429884935
-0.016573623899146895
0.021305203750694047
-0.0280714972327261
-0.05444344508280057
0.01645956122376012
0.02133557407458323
-0.02115982508958986
0.0001350960580122042
-0.0036442468887663746
-0.027263800932090927
0.03422590342183684
0.04370737274246699
0.02309128278526704
-0.025296291552880483
-0.022587433975824567
-0.018539615835035172
-0.022494103203345894
0.028129360297158495
0.03390727877576011
0.019638899175840135
-0.0031997094955916955
-0.017539776715301384
-0.005119801950241246
0.03413472478272587
-0.011597031399092905
-0.016937993149150263
-0.02840296097493028
0.014810944772686999
0.024306699479441217
0.005879991387657802
0.04431946964379711
-0.005724929769859587
-0.020048287300689305
-0.0014653135370288784
-0.009685775173502843
-0.035231216767277466
-0.022498797760706336
0.029917919382850666
0.03273481461112233
-0.05546282210745815
-0.02606045004553314
0.021142467745823432
0.01951940431440882
0.01834661899933774
-0.01114143963575289
-0.02118628120843782
-0.010178277360648138
0.012778486196479649
0.02340949299904148
-0.0054812894456100995
0.012213529829107063
-0.056945152949845784
-0.1023572594177111
0.015135179907302447
-0.03176700257903569
0.028737794645958825
0.015337459475904413
0.0019586001660646763
0.02739942913771494
-0.00634501959947922
-0.009694428913581491
0.017974457207012684
0.02827008592890684
-0.013033787173956167
-0.05107447219702032
-0.021472976505863193
0.008076188870612974
-0.008203569312928061
0.0010383271398933598
0.021243337950089758
0.03096470726904362
0.01605575861983588
0.022766804373305475
0.002426850830659555
-0.009443070072028579
-0.03342335431944654
-0.019275289562491783
0.008671345474698436
0.021743577551509664
-0.015699644975425826
0.03732379547156187
-0.00881798999289993
0.09823441343625952
0.11914561792966631
0.011469507173375347
-0.0030305641294061866
-0.03692053138261167
-0.00896690284294249
-0.011018612228918688
-0.043047750539636574
0.024833527411194028
0.006005638036553532
-0.052575933777824976
-0.00834051180499904
0.04078233537701523
0.00046375369912276214
-0.006088692891598929
-0.008868766714239673
0.012749400521016361
-0.026352490323833036
-0.01215024708673258
0.029742700179593632
-0.0017379470055011628
-0.03600332641827088
0.04846905846790253
0.05936290218521538
-0.01731841734526808
-0.09036611324427923
-0.04236787709510384
0.01842367486730861
0.010337444604962838
0.01509772431769001
-0.02230361196001784
-0.028737509089306678
0.011614003312111685
0.0018857062817597193
0.01215585194720253
-0.010703436871959987
-0.035654818178825265
-0.03872349270329455
-0.040789220049090025
0.0018988988219253353
-0.004863254356976994
-0.02385747956238803
0.014573384965561494
-0.0628232979169432
0.07821540342481446
0.017663637611574707
-0.05462125876842094
0.039983990139834544
-0.0029871442468065727
-0.03214964537147722
-0.029099050084255767
0.0171637833774304
0.016333491478662164
0.07211321917795312
0.1685090984156451
0.010948114176336274
-0.03593751858698895
0.00031542928055832244
-0.0064902860962414936
-0.005276836066201871
0.009102593452869637
-0.006863606347056818
-0.008343039191720941
-0.00035541567541335755
-0.002113461161849611
-0.06343269371047236
-0.012483799245462366
0.028386586853022477
0.03059793094635236
-0.04115437493521232
-0.14459516807513711
0.012693325201034108
0.023082216345694753
0.03783378654086531
-0.008272859495503907
0.0270003434405827
0.01590586167120846
-0.007507631322301519
0.053538613074813814
-0.04787826220171993
-0.019871283362799936
0.008367447429621592
-0.00284172183586004
-0.007071351278760729
-0.023708150634741448
-0.007954970133271934
-0.03422330025528688
-0.024460893408275418
0.07132904350893762
0.023272848865548337
-0.015511276356800038
-0.013757508976859407
-0.012111135117739901
-0.021128329551789574
0.02258997220918616
-0.008908804309229596
-0.06694183982264998
0.02156750025663073
0.0705137831176173
0.16635393586293973
-0.005008347252018863
0.012123883200518168
0.054026681889655113
-0.03552286972491372
-0.05943164290937253
-0.028290879111845788
-0.055198006687944945
-0.028851203675328434
-0.005742525292342815
0.08759690754957213
-0.002649471882558107
-0.017290385858522446
-0.006161586805481422
0.12505736642546003
0.0854633993193104
-0.053360635300453436
0.005292554323658447
-0.024038021054362525
-0.010231482959391676
0.039881544270451645
0.0007678837264968551
-0.023283082160724437
-0.016380609041713134
-0.040979113100636004
-0.09088285635841707
-0.0974813737056505
-0.03021501508114275
0.0780318341744296
0.12636615580475233
-0.03213450002735087
-0.03156314899675551
-0.026615016885676572
0.0018107339176110764
-0.026850678026094293
2.459748157873031e-06
-0.007149912546466885
-0.012827901765735911
0.08527642374387533
-0.006263289469186221
-0.03638343103059329
0.01378704669247658
0.004678242362941515
0.025821410841134988
0.04893003457876633
0.04146312328486543
-0.02176957976702781
0.0010529602958537223
0.0313619522400082
-0.02730212781793889
0.010572886604290524
-0.005833487100120134
0.014537018689155324
-0.07629613444231693
-0.06984865236762668
0.009989227560751242
0.00021558189810870802
0.03657854525600678
-0.07590171139606784
-0.04785647142660281
-0.009187631611149638
-0.039792297947919573
-0.03152056454476454
-0.004848128397636749
0.05694733879808009
0.03911259478997389
0.029120245389771912
-0.004700448408664329
0.017357128786150686
-0.01596873145056225
-0.12572329400478827
0.05478865237808496
0.16656959112695155
0.03964267600488062
0.039694240430552606
0.03983319363913563
0.006190443920147266
0.0035162396864642804
-0.004299889588926365
-0.010181883710798149
-0.0386489909393377
-0.21469776950260586
0.033321920996012194
0.03475638743569014
0.0006772314529175749
0.003019319693727047
-0.025912792413739293
-0.034070469263094184
0.10195302352947014
-0.006269413772586825
-0.02548064787897717
0.026935031412700948
-0.005865591537673549
-0.0030757559490958994
0.0028959172400742886
-0.013073856861441769
-0.020667484344872835
-0.014984728091778162
-0.019926225790411044
0.004183307458484915
-0.00595331736313838
0.008815498703309036
0.05095914251674011
-0.04920503031660262
0.029295360483586854
0.0013467440281147234
-0.047472561104105346
0.04461771507951966
0.012866706327841052
0.017004514807196794
-0.0382683241573458
0.008418933334657906
0.07760003014522843
-0.016016034666249634
-0.02684030553441933
-0.04170117014559193
0.028533322354593493
0.014159139197634197
0.006888781460244727
-0.014706576412381878
-0.04141256330524722
0.02458790439699207
0.019453382095204128
-0.006985605174050287
0.06851687511516884
0.002977260945146682
-0.0003337622234942859
