0
0.023369977537269264
-0.0839025019860149
-0.030457939896550185
0.020398545447559095
0.0815793150576096
-0.008518720421245473
0.035488653706076324
-0.04092955573206591
-0.0018710863318149539
0.01867255837947803
-0.01409262451265531
0.021376697584045114
-0.011060226161835633
-0.02781927645595566
0.005385006528557127
0.006584427761069944
0.019197977606911224
0.003312920964904778
0.023270964205328547
0.002577551380666257
-0.03628915525715132
0.013542867119046016
-0.03075567878818211
0.04761160115258284
0.011461295793052955
0.051443078675279114
0.10866061183789921
-0.040754107919320236
-0.009573498199584045
-0.00271350490434907
-0.05729492070666914
0.006023180814800513
0.01932025340597345
0.00908360202674074
0.023394376912748597
-0.00967630305126005
-0.03408026972773731
-0.035947275789097115
0.019299442403596396
0.016980528188306372
0.003678680263638705
-0.006039164059521472
0.014685418180760846
-0.011608617636680621
0.02939779574799951
-0.0010819331289190978
-0.018265026469957077
-0.00677351860518981
-0.06450998246342426
-0.047192268570226445
0.016404495633423975
0.003316377280050858
-0.001551090061072175
0.003409613545698956
-0.03559218558905055
-0.015371512087863888
-0.015873562086866723
0.0019129236797755904
-0.019361296428887866
0.017676441249439807
0.13338714706642693
-0.0018841905881195093
-0.05321504076564471
-0.029859498237502426
-0.023482293725668124
0.002690959056336344
-0.0005741245739552998
0.00752877334693188
0.017643536040486484
0.0025939036664076385
0.03100066848270706
0.02525052419883323
0.03427217569530379
0.013017694407707406
-0.03687769999670703
0.01804918488714579
0.020053283908222513
-0.1058556832398763
-0.03994747311394201
0.0010359815435413084
0.02086421797347907
0.06565611288931322
-0.0032753501264843475
-0.02857370422339381
0.020398843894514396
0.005330526092729876
0.012651449411743747
-0.0053120640214620995
0.02385752494391456
0.03522590900733176
0.014164115052699112
0.015865010117210636
0.029307803051032956
-0.003947329260351596
-0.025265015846852302
-0.005589085094293611
-0.01657766817729427
-0.008601492721137458
0.004450479769762448
-0.02116913459285743
-0.01867511688422593
-0.028681398819038813
-0.026440348050020362
0.00511945941501225
0.018016238702204118
0.03609887016125879
0.014407909495600016
-0.032872975713755755
0.007814579766489046
-0.051087479725295676
-0.008346147789420923
-0.005565223872326329
0.026002507348158403
0.03433514067827
0.028519275137934445
0.017228867532693714
-0.1013054210458192
-0.0632392301376231
0.012456486809099693
0.01038066910700851
0.04199022224684552
-0.003951908646103466
-0.025268407008778502
-0.036017935853245336
0.04891792467238228
0.020721339705266534
0.06488551400998245
-0.08787433243566159
-0.0534523050406473
0.06694086270879925
0.024428395417590867
0.036458206183868885
-0.012577576646440734
0.009055066541253279
0.0007363669551413162
0.007008625535637911
-0.04396319195738268
-0.023546464421522594
-0.013229365659549621
-0.006724118160199102
0.014497062717404035
0.025172611288344353
-0.005237246505416283
0.0063400848887664035
-0.02314710017873851
-0.01884219378283699
-0.014534898064574728
0.010673417253556378
0.034812262365815576
0.016556286781312532
0.027304097941084897
-0.04704029134004756
-0.14621067923068673
0.04652795956064289
0.004826730909236649
0.021722863879228383
0.01777648682788416
0.004026677408011303
-0.048137347732416035
-0.019426382694472017
0.04359466329070442
0.04707761940443117
0.05006242015431538
0.06298843585610604
-0.02219830699028149
0.005008443160247381
-0.03463353215442203
0.08995338122468631
0.09120491296352029
-0.10573710436419187
-0.05503158037897521
-0.019430977342612267
0.022502553343975846
0.027711089968518884
-0.0010176796843611004
0.047820282315178805
0.007848474010807705
-0.005233849557613712
0.005043369811607592
-0.0016777488926916849
-0.011081295207084497
-0.0017981790488878079
-0.007444645571860823
-0.03602128931696894
-0.0032141633000564445
-0.018814599625964445
-0.018707029934297525
0.02713807347329798
0.017666706512312412
0.0021821452284671986
-0.015946028355123855
-0.012089550152491642
-0.012207391035984597
0.007039091866504189
0.07118319483490489
-0.007786703217085789
-0.14084250695602946
-0.025473211193674815
-0.020823785251827147
0.05683064488239252
0.027304938374170116
-0.04205902449638852
-0.009646360824230094
-0.01901968967181086
-0.04170757475723993
-0.007810833698460684
-0.04030250240390495
0.04391892625452352
0.05914304635411401
-0.02003499563910396
0.0724841605545434
0.012333057643574351
-0.044500689063506314
0.005581469133167832
-0.0234889962011322
-0.015920234123126292
0.02375335017017046
0.015381912941150546
-0.015044103786688752
-0.0007600236229614282
0.0249357904909105
0.02411408894578954
0.012037380734856315
0.012836453500615732
0.035654708850754536
0.02394074340376458
0.0023964428093924384
0.017480912378341
-0.02992996014943042
-0.02168403035704856
-0.01866268333681183
-0.009063811196007574
-0.03343073787708887
0.06638595920466761
0.09121989477585793
-0.037250845008441426
0.0021625854574700357
-0.006153867895641764
0.00041453613993605777
-0.016963807697024942
-0.029004148088108053
-0.019603388482627625
0.0024961524974822565
0.029971206115382277
0.07300948049793558
0.017773760640933875
-0.011028529511865474
-0.016790997133924287
-0.0007568144222906685
-0.010930051038113871
-0.02132543338746786
-0.010400783549978915
-0.017653752225230183
-0.04310145418563156
-0.04593681731421665
0.00940553954650594
0.029001519819026763
-0.006366240740148249
0.011351777952631805
-0.017049692042484514
0.030833985359051724
0.008572299945798011
0.008094236548455251
-0.011421343444136093
-0.014353869156890822
-0.024027262168419612
-0.03695681517490623
0.081895540377718
0.034519963764342736
-0.016765502435385347
-0.02681420310367097
-0.023309438679320192
0.013607370387327917
-0.01427324337571831
0.0046404492443523826
0.0010367992266702426
-0.05786688254864706
-0.03096681188417151
-0.088957115514427
-0.011080524886992042
-0.002419293836787106
-0.036774384798098275
-0.012722670725099096
0.05145513908672218
0.01215571274338132
0.006266095325638769
-0.046134576432809
0.07211184551011961
0.08695824631761935
-0.01996745290367467
0.031936123316966616
-0.03513798114272903
-0.012732926229542332
0.0026511135792770227
0.01141845145529536
-0.0038901409707585597
0.060294437680850535
0.03614182463172
0.016009159149561147
0.022894802747336438
0.08364130835123045
0.03186923039802398
0.014994418133626373
-0.04496919018143332
-0.0706956163603013
-0.011041399306355691
0.008915749957581641
0.020459026773047194
-0.015097632849336948
-0.009093462563886635
-0.019355432086489117
-0.04119302869268581
-0.01333915577870451
0.0026022043249081398
0.028086960777311352
0.0027539860525550436
-0.0121568412600432
-0.012391546061180463
-0.02515082649192694
0.000599124724869375
-0.007677942327117751
0.04016475960998817
0.001147701460825459
-0.0487159908644061
0.007801910222231673
0.04401267176503351
0.0021520107696642106
-0.014258379875629015
0.06013385234603571
0.006002923728479255
-0.056138816267738555
-0.050318284075919095
-0.021820897987248827
-0.06368535415291492
-0.0038731685224481917
-0.013581287176126975
-0.0051561138252280165
-0.012410180761507003
0.01877898624476406
0.13985864682965424
-0.0020747894576689232
-0.03408096587539228
0.021793804296003833
-0.0012436472526118861
0.01305811757008327
0.03233026114899623
0.0309850677099355
-0.06949015909228168
-0.02934024879213052
0.002725348002541573
-0.011149285924048602
0.07239683695037256
0.018871358979272942
-0.047213043539777504
-0.002927475976975547
0.008128578719755388
-0.009145398478602521
-0.008319739023906023
0.058018789397193474
-0.048163632113952234
-0.0977820702613641
0.05465690530411773
-0.006951057227916756
-0.0015387356886903364
-0.03499628630970056
-0.009373006204345781
0.01899856219684813
-9.126844304759002e-05
-0.0059008618278993475
-0.019620447837921228
0.05142095046430684
0.038274107351531646
0.03501300329494778
-0.011599063747946586
0.01369831899267459
0.06299080280682466
-0.007480665134582566
0.01750664101678304
-0.022718917976403154
0.008673793603507932
-0.018037011342517072
0.050003423644002135
0.05882921011730154
-0.05660564916090267
-0.02609608034642755
-0.012640579911033942
-0.03655219070022099
-0.02322156918144678
0.009542236083001799
-0.052076832407603205
-0.029257916273667577
0.02604404757294323
-0.01646264302271705
-0.0051624458599130365
-0.04391688383894002
0.006890040964585507
5.25978032117056e-05
-0.001315106585737747
-0.031140191788894305
0.015021981144595397
-0.02734475713940892
0.13644396774602216
0.08261487782471202
-0.033781089855054236
0.022799553402432053
0.01409363839288315
-0.024224496888249663
-0.0045113974298209725
-0.031979964949656936
-0.012874176340135504
0.08152293893172147
-0.026665132916800626
-0.00040003769173352317
-0.03521312193264586
0.002063509823137933
0.01180033865510253
-0.02191827853046135
-0.036101435645054594
0.003855665150421546
-0.015533904723370491
0.03598275278565118
0.0009412397342546079
-0.08919852199623747
-0.038655191126408986
0.04007655319245413
0.01426298652125885
0.04877466879846946
0.035084362847926626
-0.06404563348183315
0.015293603776878408
0.05214174382303726
0.021427188393496326
0.027023217578355834
-0.02009981495438362
-0.01747783764174165
-0.030513955509260487
0.021438458294297136
0.037819801222984825
0.027800111215729464
-0.03483332631904915
-0.007780809392790696
0.024318411850486818
-0.002043427260456295
-0.06250375143619187
-0.015647932689184265
-0.03497597267355928
0.004009287985614557
0.013878381952573907
-0.1575874019395459
-0.018935157032472325
0.01888485160553131
-0.028405405109833682
0.01764226259668487
0.05998105189381808
0.017250236807008427
-0.002145657462056071
0.025699413168808787
0.01643845832090601
0.03515852522874464
-0.0076304034308800886
-0.03568884142835763
-0.01591051340088764
0.0016665223664498157
0.0010356448749196685
-0.0032232429647092286
0.020496179329759952
-0.013931200304672537
0.039843384871686836
0.10939724120548186
0.03430448902052312
-0.007661705007788519
-0.015331584991420108
-0.02838226548768024
-0.03709161996802404
-0.033389710713930806
0.0178206073477677
0.0069844006468262965
0.014986706266807596
-0.010621388053346706
-0.038328605173197854
-0.03503797357523741
0.07448806395315008
0.07352846552317362
-0.007099949938192719
0.006287754212880018
0.02138857351144509
-0.05113303376779641
-0.031052271543833145
0.022963419365455442
-0.0336952750566087
-0.011499188264636733
-0.03630538610553625
0.023277096033518258
0.07846678643887348
-0.03770694299664461
-0.008572130883732735
-0.00784697677193638
0.017573557194275613
-0.012269359188933123
-0.011894252294961088
-0.00915720889767246
-0.019413416684717803
0.030558400074827023
-0.009378260489300294
0.044327194031923894
0.052309412906067825
0.0036792317562855783
-0.0032466387953298355
-0.03831653316135574
-0.0014375437661987875
0.015290931558883555
0.05319724459691437
0.029430955659478442
-0.016719851307307167
-0.018328072166430086
0.027820580461080116
-0.0263919320834938
0.060929354752536406
0.0001923125322086058
-0.014060434449837286
-0.05338199594598717
-0.19320940649285503
-0.05935784887820609
-0.03760337560114924
0.038752657291864945
0.015080526015588297
-0.0019510627548025353
0.02351852402217416
0.024516256256590128
0.040959475618703306
0.025163474576549414
0.022953296239484687
0.03728989726907774
-0.0037832336048527907
-0.01972894272274786
-0.024173973069252726
-0.004766971402152344
0.00804425452828622
0.013614134388929161
-0.023736649960237343
-0.012784424177084353
0.023519223467529805
0.026439604738845667
-0.1692289126771693
-0.03758725132992049
0.05775091653489764
0.03483053842585244
-0.01263701215477466
-0.03243036972782537
-0.02624012340554954
-0.018186475040202685
0.032166366987529026
0.010932962435626192
0.05621916662590383
0.008059967621114925
-0.006790756506324775
0.014841447974964402
0.009767692351609283
-0.01183900800700939
0.033275233661239
0.09806851837920971
0.00640384920760178
0.012459459429305177
0.008018963561225141
0.022078361478666368
-0.003346406542018789
-0.03884499094375671
0.007779637338824561
0.009870758402651772
-0.006039880626562464
-0.02980906636527105
0.017950621493431698
-0.042348071786804484
-0.033891154906179534
-0.011690358591128743
-0.12307427175632188
0.003350992670543606
0.03709734516770845
0.09249879157765317
0.0008015846467668448
-0.03552374762246305
-0.013883555184824163
0.027916623675363194
0.07989343401639984
0.026070173470686384
0.044541375403251995
0.012921139228074183
0.0034408074044665776
0.021900283667950556
-0.030137054876909604
0.0018327546552479037
0.01492872032573339
-0.02580005706189539
-0.015227672206569207
-0.005313350393249737
-0.10327154012477635
-0.042219428207176043
0.033714917801077125
-0.01571872583550228
0.0032141371003773507
0.009417961654513963
-0.0024295330567981636
0.0021654363125990983
0.005990775798610345
-0.011698658598322021
-0.0029977649563961623
-0.029399497712095855
0.0027648330931896595
0.01202252722342207
-0.021119013953954508
-0.07808205622633374
-0.050932312304582124
0.007322544565844527
-0.026761552209855377
0.07636468769479847
0.012678667062547897
-0.006237311625009755
-0.035409215417462815
-0.003545321486635245
-0.027536101625436658
-0.03905920095795586
-0.033623962213020386
0.034724312756356825
0.013953826850478883
-0.038626121134976564
-0.00947441817644776
-0.016430354814565028
-0.007074194093712411
0.008070807285768353
0.08772106699546887
0.038681529298225804
0.10915323227363549
0.0008783763523806475
0.046555437770374755
0.17819184220226358
0.028075856555015977
0.01931291758798407
0.021001593616165614
-0.0073478136399583475
-0.00249291298823613
-0.0035295200636474384
-0.024024112204558037
-0.04750239528085949
-0.028056366604988288
0.023236193314193066
0.016769807604561978
-0.11020007595819546
0.07552145164579992
0.14448284709567896
-0.010530543061356572
-0.04492997266821322
-0.15360191482645705
-0.01875876920807796
-0.023024094948479373
-0.004649405075708351
-0.028689238023921405
0.061583754056286834
-0.01714052495874699
-0.03863083833995689
-0.024968221691506465
0.026058646726292403
-0.09995567252142776
-0.016713384799693812
0.0073530635787101735
-0.007995027071463302
-0.0059196139073705864
-0.021550034927133893
0.0010482886443817744
0.03883476303679667
0.04094803332316771
-0.0038811406907972817
-0.014027666087284198
0.026947436480978748
-0.02110349726746151
0.005875362052838264
0.015573346302660242
0.07664098780806665
0.011249796412816464
0.015841940665145663
0.05371900031591737
0.029127015251344163
-0.017186023614383237
-0.009559353908674193
-0.024291293208769684
0.005889280204254283
-0.04786792399883885
-0.03725834502693557
0.057124732321505396
-0.06995335559258674
-0.06595210037929335
-0.04845507835361941
-0.01636215000607284
0.09125753491784794
0.0037646544000803483
-0.002972727108813948
0.034980962669035186
0.006451850134631085
-0.016897528491600096
0.018557452571472732
0.01025696438152626
-0.0038735572318630757
-0.060784152780958105
-0.004474085321589262
-0.0019044297391095685
-0.019179344751172164
0.06753337645138681
0.019901679567079437
-0.033225084155808896
0.011632508652664665
0.0171054580640064
0.01295967541510551
-0.012662937499050666
-0.09819210376269816
-0.036331463326280934
-0.005622333948470925
-0.022900365203508525
-0.002669890434414718
0.001496463244404155
0.0333853040152336
-0.015043660440588868
0.03187707829722798
-0.04642513131289034
0.01762130633771602
0.20218814311248687
0.13336743347985372
0.013035522900389533
0.044355114123160906
-0.008074940547726533
0.026617251472868093
-0.013062172302504256
-0.0010454867515112389
-0.10805527205641742
-0.03456762268105842
0.020159477881116772
-0.0401712889856555
-0.010347600721604087
0.0461982141699942
0.040126737021769665
0.04471655564590022
-0.007567587002398853
-0.06700844908237696
0.019294005443571686
-0.011563653697298533
-0.02574982165887539
0.0715943473230529
-0.08703735385429281
-0.08081055235497774
-0.07685060351789585
-0.06116841809986673
0.11792389062794702
-0.035310058656124015
0.0593704123193586
-0.020468347075826645
-0.14077265946087228
0.023052553733668064
-0.02363360751805769
0.009525890841142352
-0.0748998854035235
-0.09347823677376824
0.032842833268294826
0.03861749596112858
0.07413091524355572
0.021861323269914495
0.03524755375572764
0.014993419643038363
0.030423768601697612
0.028954386811209303
0.016659270224348387
-0.06054740469023439
-0.12884703126907032
0.006040181023782623
-0.08505416815298705
-0.01002748333989767
0.021954926693588225
0.001999321093619724
-0.010494920859606982
0.06481177172520444
-0.036137228281190155
0.034094191256121766
0.016260580342486928
-0.006902343331008425
0.022158469790307837
0.013339539296801385
0.02765947144185924
-0.04251157495957647
-0.031054800146551174
0.025476890419114464
0.03236763425942441
0.020033744040613345
0.03870398394694892
-0.01800542848801576
0.0740305521158195
0.06562162028512432
-0.012895244496427082
0.016839742942380238
0.010762619279123944
0.03513738263121298
-0.013865698123341855
0.04990531123444911
0.00984300722463984
-0.01858916719665128
0.07612320758529587
0.026071869258606675
-0.012492237299226387
-0.0292849047171209
-0.037443958484563444
-0.020629207670997105
-0.021942392531056343
-0.0349723657935957
-0.017532351368319696
-0.022696805653429568
-0.012818595854367372
-0.0159166784146072
-0.010904124559009352
-0.014215353282175956
0.04997969461859108
0.016148462151510258
-0.0742914167829509
-0.025180278116762822
-0.002543289024514023
0.015579427451928585
0.060175454717333085
0.003393318577998492
-0.004491255796321273
-0.025446596651025916
-0.022997786082377063
0.012320462946951782
-0.04930687414950739
-0.033557890963470886
-0.0031210365120608635
0.027365258322616416
-0.021698675029634094
-0.021064689859270062
-0.006593223718547857
0.21132040553703355
0.052932310980249926
-0.030688338262436374
-0.01073782845182829
-0.013037645601753654
-0.016252025240427882
0.026497831026094952
-0.0032418591023810877
-0.022012285576527107
-0.0005081706137491485
-0.009755100725383731
-0.03418835269906934
-0.015927997442063305
0.006444903572494519
0.04514543531243783
0.026586755592091855
-0.06904900543897403
0.010527307857449675
0.03410419651249593
0.0076407511504474074
-0.05721978974700603
-0.030013363463263738
-0.0366590598050009
-0.04286153836642487
0.026693885444222763
0.05086261670119526
0.04026880552835265
-0.13481101130864784
-0.0018939202677611556
0.027239486915127568
0.017875927066495222
0.02336861330997841
0.007403302403542792
0.004139605893322642
-0.013385331156221359
0.1318708215137689
0.013709456893601266
-0.021937653460733553
-0.02420718280214387
-0.03255768370246702
0.034464479682605374
-0.007006414816705926
-0.009291946617044602
0.005377062694088611
0.0013410173590075861
-0.008934193705893524
-0.006182701844474849
-0.014484815215744865
0.013885814247566805
-0.01596184686975983
-0.008296581572528923
0.01639637552008406
0.0032425034420815037
0.048495032785114627
0.01767398310236636
0.00021974495709354194
-0.001962833727610276
-0.012934099331780536
0.008798718094343664
0.02962667797564064
-0.007681399480153492
-0.018419106373192308
-0.008532448991756864
-0.0264256703179637
-0.0045638448742116155
-0.008616543192903989
-0.015898749465443007
-0.008662552460999902
-0.04441865968663736
0.06676988620950514
0.0236669352156131
-0.13208047418380817
0.04574230688668847
0.004174931568065911
0.02252410019713353
0.011254886427809356
-0.03741011433803343
-0.052014006650288866
-0.0028300042699731386
-0.011893036881767316
0.009808908436182002
0.01463414666854569
0.05733889342936018
0.034932523369823894
0.04131290101023081
-0.029951690188991076
0.025026636357633147
0.0008088929959238107
0.015122414368923203
-0.06467824156769968
-0.04477552244825808
0.007849186502647008
0.005213476972632279
-0.04853069938432646
-0.1441060939883022
0.027637829192019917
0.020050398059755836
0.02840243571589058
0.021098234789616133
0.024859733144065428
-0.04829645377383069
0.014260908292999268
-0.01874178718962435
0.0748233164819173
0.10993988826178362
-0.10364597291723485
0.0333104763847568
0.0031229778095969852
-0.013139931978997474
0.017603463950068697
0.06294665532444407
0.05072418244639617
-0.002136223970500113
0.01130552037543917
-0.00978449672576879
-0.02682355109078656
-0.055748829588659954
-0.02228861881623257
-0.022414847406914847
0.0544586575262224
0.001523101345161498
-0.03810276630264754
0.025541999088454545
0.0670961855902037
-0.0020620122207552854
-0.015138713438829101
-0.01777669004544108
-0.01904372739998363
0.023130282817837
0.04728315193651748
-0.008826531677184338
-0.02251439629447588
0.0020229018727042484
0.00406165480798969
0.0008576025532252587
0.006022103253486374
0.006524054170815088
-0.037948991708201193
-0.012708795975867541
0.03121144814405976
0.004907952812388062
-0.004136983812975524
-0.013830670408580017
0.006142916306786651
0.026800583588088997
0.0213622408805352
-0.007823511895534634
-0.09338357591989184
-0.0007751532082685933
0.05726763779384969
0.0746180720221615
-0.19258301007672923
-0.10953154894953611
-0.01687707854272949
0.029485274200054114
0.00916699303920698
-0.012295981852417093
-0.04635078100613517
-0.03237502988872862
0.005673526760407343
-0.00796232784627976
0.02395409338255215
0.047199716283001486
0.08084997881774372
0.025740857610804465
0.010788028049941223
0.09770570311777527
0.034982869653775374
-0.023047983199164446
-0.07287943518709625
0.008199796242333758
0.004074090727554096
0.007040399109803384
-0.030287102735408647
-0.09730948567097464
0.012081479311007828
-0.0026277404914631384
-0.012450592979124807
-0.0022617130051806986
0.019333614110777376
0.04122779975815925
-0.007720458185971898
0.06456704778865181
0.091405023724481
-0.027932258490045807
0.032855924576632854
-0.015015305901108202
-0.01177797785849395
0.019611833090254147
0.010033795609134442
-0.022394247411588502
0.09564319512391438
-0.0013645813355792945
-0.033982818228904595
-0.010034334052834576
-0.020684082535977637
0.01098135175233474
0.03006549670614144
-0.009275324761104372
-0.031587389169442745
-0.018622291852750987
0.015397209251012142
-0.014732068813162424
0.008399320960426976
-0.039422008635990005
-0.03112507149093601
-0.00011563860953948606
0.01291359167639483
0.01741549261624024
-0.017924534664214394
-0.024849914919367083
0.007864634152703229
-0.00965774629396611
0.02203142899237069
-0.024308889276596034
0.028464654321330798
-0.028672418776796448
-0.021312185788290004
0.0461371639409789
0.018613050934727943
0.03481161059634461
-0.013357777781086967
-0.07560237377163458
0.11851297177448682
0.0129221421191876
-0.008539001280105867
-0.04216782548255462
-0.12547421538292391
-0.001051347182519478
-0.01369729734012084
0.0064396552823721975
0.004237253235425649
0.02154911839708352
0.005557159159861557
-0.025764674498613777
-0.02699854443972872
-0.019140988429154026
0.06481028745491621
-0.017825454713781563
-0.012219366959657472
0.017218074070083973
-0.01951627852311226
-0.006411625558546319
0.026353819970511047
0.021786492856328273
0.010376746513771412
-0.0036336845618124497
0.023076577154666156
-0.009328668406395487
-0.0006033673076716409
0.024017342373423414
0.012182321236995737
0.015917757994533783
0.0453648465417697
0.03516165613234054
-0.028180976350319232
-0.021889758000973182
-0.013323843685391185
0.0016302749760946681
0.02992127127285275
0.007142074895759231
-0.022702971877792914
-0.006287680699254202
0.011935708394779079
0.01996554402043004
-0.0036303527593658153
-0.006992033006333219
0.012722748933646593
0.0005731731277041793
-0.021410845309093842
-0.013173673616105292
-0.0236680737471096
-0.03247193412725191
-0.02026380398780578
-0.11367557532981147
-0.046691429405412106
0.004008409650316476
-0.02601843163073071
0.006740384280379835
-0.0022419338028729064
-0.03697670570085224
0.043423558980297844
0.04070135375494744
-0.011551506358584058
0.10442946364766241
0.03129619220788565
-0.03250950078729014
-0.007333160972479939
0.0028480173379298412
0.0013505474909296241
-0.000966087686400511
-0.001694315425372185
-0.006781036139777283
0.0323075174172252
0.03803395098239356
0.017106964776027446
0.012900159002967707
-0.025004391317932462
0.03486859143312795
0.010278613653642544
0.003049792499061731
0.006046412679330195
0.0010842200915246385
-0.016082858827827663
-0.018042258961667345
-0.0031198721492057043
0.010391850646529381
0.003732677801112671
-0.029231370621506613
-0.016313051348477346
0.004391907329732787
0.014944107328075234
0.0029031791380348115
0.07525978883443443
0.014493235003703179
-0.007492617659233067
0.011215599623979985
0.001710255905536633
-0.008932043024421714
-0.014466130052528612
-0.025998704944813465
-0.027354335976170575
-0.02214113639647643
-0.017213792722104725
0.03017653384611914
-0.024352590085377185
-0.03961652415350522
-0.0259814480314827
0.08492795952664581
-0.0844348644806818
-0.056107028074057014
0.002588135318183712
-0.0022276666697918336
-0.021951638382133286
-0.01061448883060012
0.020568844312201066
-0.037924881796230214
-0.005766839964714857
0.005914965910795787
-0.03442795328098119
0.06733528380269793
0.12665393952349474
-0.0050589528255983425
0.05175492137722107
0.0013725586319438693
-0.0041997089771778125
-0.012583258503163601
-0.07140932285115029
0.032261634519390826
0.12044964553296972
0.0017811756038003368
0.002674883850690832
0.0014578365034952118
-0.02123146258179772
-0.023241515648160543
0.04307612126562762
0.03512893505577086
0.0023652795044889372
-0.009258223154029674
0.018848765620570376
-0.004091034221489921
-0.010659069693304955
-0.04640771934557595
-0.019757323473766318
-0.00025702146429211064
0.046250363622598524
-0.10539273300749841
-0.01930552033853032
0.006238735998229917
0.03370191831444091
-0.018401553711234243
-0.052293307225142895
-0.027913556487414837
0.01435513264209684
-0.02071738895548814
0.007132186321944217
-0.022487516243307602
0.06899686680947097
-0.03496600194072511
-0.0951909074149148
0.02635482283024925
0.016223991512772117
0.012510257348048578
-0.022740116030884813
0.02329085657439653
0.021898336152691735
0.011827280401861939
-0.010930427252735488
-0.00368824952754513
0.027287926188766392
0.030103944266106405
-0.021912601289680957
-0.008761752894490046
0.06368633184967788
0.012688447711545116
-0.026848518165346485
0.021150517740388022
0.009192197916586289
-0.04765696784752774
-0.09289222676967301
-0.025982134866842796
0.011515448283376145
0.0001589495557787847
0.012532845895132552
-0.007797226090628703
-0.04873112852714072
-0.10486544362118579
0.048556864132708516
0.065704212112369
0.04424501048466322
-0.016827188786249746
0.11018018122567311
0.12897256681916391
-0.04176349082184176
0.027267721175411343
0.05061900090678888
0.012428477069158825
-0.011049667589459761
0.006150147220167474
0.024084687026610097
0.06071545739631971
0.012455798274155931
-0.0051235005357977955
-0.06776348902916723
0.017675376367002987
-0.0017539138180822512
-0.0718026079408566
-0.032776440740932146
0.07036459094256532
0.006986071544838799
0.03015318580839903
-0.1220027170499658
-0.1266711736838587
0.05175586015632516
-0.014303663537234342
0.004308108460499025
0.06502372588726846
0.00021162894271068263
0.0388850867392516
-0.015752451541200092
-0.14693519144217557
0.02780895350201124
-0.08823162949426892
0.0006554858705498929
-0.018803380668971706
0.0552997978535805
-0.02885133801835646
-0.05127728190590454
0.08203852965833995
0.025542611180693592
0.002054566297888639
0.048037270814966414
-0.007624273836670331
0.024773454082786202
0.0377881843794457
0.025431096320837746
-0.04302472650915989
-0.11466165643969821
-0.049351345375018646
-0.02387810965672523
-0.02353149740145201
0.11632433220779073
0.034624744067223524
0.03540786587254755
0.0033255935566696834
0.0029977872207656462
-0.05213887597000247
-0.06514513978270538
0.001835239527239199
0.02703510693995955
-0.04270132941453792
0.01089859565277673
0.026491225653228638
0.063775837398971
-0.020791964532422803
-0.00822391439407861
0.054628714055493646
-0.014543907179314483
0.0212144283175799
0.044811123699437475
0.0456509275035188
0.045346288699151215
0.01134094588590719
-6.0567027522774795e-05
0.03158373206501081
-0.002861515706854238
-0.018935162011593613
0.018895087155925683
-0.037992513250836524
-0.0007449673949875823
-0.037869484155548395
-0.12968822248301212
-0.016633061902958116
-0.004451107381069786
0.029973923867661782
-0.00813234048224066
0.037391434929638936
0.011018902670951944
-0.004916353537870896
0.010732889231543965
0.01192210541251752
0.01722358440951109
0.04467907175930889
-0.14201289217377674
-0.09718902511453006
0.022613983292989172
-0.010187447862133197
0.03292712817500689
0.03873597892132786
0.03811658650400244
0.006273884825890248
-0.030465873897266592
-0.06600274568340209
0.002774815352521496
-0.05737837296780244
-0.02584673200640152
-0.006482183817717643
-0.02557415558224011
0.026621084809359694
0.0341536691994755
-0.03075188827787726
-0.0061511808859385725
0.018200444526589553
0.02460841483009714
-0.017587955456253242
0.023513477022826006
0.042619436363761524
-0.0182151877708682
0.009277473571338445
0.03322041724473963
0.08640163617476534
0.052841349167338895
-0.014838923940166377
0.016020610662502318
-0.014878446475652056
0.011723256482934602
0.00511223973090271
0.025035650679411037
0.022643292651209058
-0.04944552953877414
-0.0159629181108262
-0.012197842807785747
-0.008159444277853145
-0.00411189272224547
0.112298322851746
-0.012081042931977553
-0.0678955654703408
-0.013973138980882777
-0.008752401331185355
0.006208279909566508
-0.059743456646099216
-0.027222405572409146
0.08494445403052098
-0.010341411142961334
-0.018741081530109616
-0.03507252484506514
-0.00777940153299907
0.03701993731773375
0.004426869517848809
-0.07127512911314594
-0.00046490468978349105
-0.0078483849144637
0.03040475119829169
0.032619402429861256
-0.0031620419446468204
0.052522010952577504
0.010565056844616056
0.030209567901448395
-0.018751497795106147
-0.03693535595633552
0.05106043487427799
0.0017126378144918823
-0.030939120709608144
0.02431305002829174
0.00443448283804904
-0.01482303245259606
-0.039421883324789075
0.01345072329699717
0.08018227904700449
0.07244942536247491
-0.042869256363798326
-0.13313581279825734
0.08695671544161354
0.04342723716930398
-0.013098196210339886
0.028424866372634715
-0.015911330269030015
-0.022615088452217512
0.0006849249040856442
0.0094761833488638
-0.10909382415437353
-0.04735984214421061
-0.0021250294774773056
-0.05821001334144074
-0.00020614715633640823
-0.024314765021364048
0.0032783093126355777
0.0341554624597586
0.04300824532522144
-0.006685708175106664
-0.0031163877184934635
-0.002529111737651298
-0.011466933025192888
-0.012982868968758585
-0.00951529254463856
0.005130886435082717
-0.023689190886688985
-0.004043662228886714
-0.02423072710616016
0.022897610445612268
0.012549236530004207
0.041542143177223025
-0.02824321793727077
0.029593351804665817
-0.12888476863009557
-0.07859256682982073
0.04134887011783123
0.15145506671776576
0.035669973830120286
0.0035299162179144978
0.012546702699554753
-0.03308408383647037
-0.008092985309683007
0.035098058040911116
0.03633611442133068
0.020271562326856153
0.045890531853777256
-0.007482161684561943
-0.000999476034821422
-0.03553168013544972
-0.018033980293177595
0.029852110716450508
0.014166624481258454
-0.006588466498531319
0.009641521315485914
-0.025717443453034602
-0.037801305368378196
-0.06431687693990146
-0.01531798526345524
-0.019410327846380214
-0.0004556078341277873
0.005320241064623753
-0.008323726664828758
0.014104203448210275
0.0018382010796647679
0.005417192680404353
0.0309065038776238
0.005783294570318036
0.026174250676445396
0.0392704936229961
-0.013963108442178079
-0.010554888646761603
-0.042415473981628204
0.012936385764575354
0.0032670983174550063
0.023888996074986308
0.02025089630014464
-0.038502699488246334
0.012276787660636236
0.047426995976534055
0.0006314158922720556
0.002638483777534188
0.018482108316040947
0.004007385057091254
0.0021839971530817452
0.01326338751222611
