0
-0.01814296645815637
-0.012894668458305171
0.19595291246868982
0.03471277169203807
-0.01587467688383911
-0.029834611350835885
0.015964790762432922
0.10121018682053809
0.04561932191709224
0.003664660972738767
0.04259445126843825
0.0028943361040251613
-0.01704319969153427
-0.0032941794393211202
-0.01743459919215651
-0.04942288416931145
0.0077829510922036845
0.006724153821457572
0.00533669981180898
-0.039686212582401015
0.007962079645978977
0.011466362058621907
0.04265091869260046
-0.07806733038832207
-0.184139160020325
-0.0366687156356597
-0.050780619716003124
0.0359088625021056
0.012067751545424865
0.01980646563148861
-0.016018832773514284
-0.0401476815641338
0.005325255900887063
-0.02424565841140696
-0.04148694038895094
0.04767693099888151
0.017844582997183174
0.02521048928843227
-0.0004637224365460762
-0.007514586771521872
0.01961375021042031
-0.04932808626954642
-0.00870086714789755
-0.0037593784350091353
-0.07015803048113897
-0.026809235773623798
-0.034443323233565463
-0.004528599593043867
0.03148775710896155
0.02247481898075499
0.04748683445715937
0.04182129393970529
0.025058574547347702
0.0274038226753434
-0.027841262955738546
-0.056835351747734304
0.003489586706912283
-0.012811449013804472
0.009740517198353234
0.1997502221050795
0.06537179470267529
-0.04397078408796565
-0.0010996508278650363
-0.0049783270868267665
0.009763055844376617
0.02932379183253438
0.04651010414318297
0.0036500388485412984
0.010441863545124773
-0.008372813206025094
0.032960617123018725
-0.019631768726465645
-0.03821597562254899
-0.0388010582249218
-0.08112697637005294
0.03237288748789669
0.01749753286360157
-0.03227989457763083
-0.032104792232910066
-0.0007866550368751918
-0.05661203676968305
0.0024937757511266
-0.013951584426027775
0.01918187746088002
0.02116630314367088
0.054437844407338905
-0.03809024980935974
-0.018475600991616985
-0.006682574260004436
0.04355122854285449
-0.01212590369213623
-0.002880019103640103
-0.07921016920069951
-0.020811929261609376
-0.004305815896679931
-0.01173000752329639
-0.04111326076627175
-0.05628310035754571
-0.009806129828358517
-0.010606439148591853
0.025636219674774665
0.002266587908461385
0.017146096744486014
-0.005675358058290208
0.030165975181794633
0.022029542473883314
-0.009216008387475307
0.02215036837839116
0.021492904619977767
0.004592782242450031
-0.017643385912676956
0.0013982403517880564
-0.011465937140373134
0.003534068584943922
0.044048031974974436
0.019553206697575206
0.0012559520476748815
-0.027565610243492897
0.028405908453955093
0.0027254572025462586
-0.02223246826152477
0.008082941341384998
0.021342212059985738
0.07946283638901197
-0.06642586864182547
-0.0026941632983522147
0.0020412921324633143
0.006247618481349664
-0.03625592812554813
0.044587075070497986
0.00057592059267546
0.07623745211252252
-0.08993921383517191
-0.055140201453263434
-0.009996096272969799
0.05578690283222937
0.21987976667973577
-0.005179924574054791
-0.04101658849467768
-0.0609604262802171
0.013872951890119839
0.028979612519952534
-0.039190166053873224
-0.03199994697013154
-0.034730510516382485
-0.021874536727639674
0.01009007263233298
-0.009051409272914278
-0.018811016377582722
0.02669410614948801
0.001154917952380923
-0.01175381000310515
0.01468503997824747
-0.018123618240217364
-0.02553109427519104
-0.013850681863140648
-0.018216695166652516
-0.008183378688079656
0.026875849321628682
-0.0042788474148579055
-0.0055918532326325555
0.03383243180370284
0.06536464764800731
0.016272272670463172
0.004192998000761623
-0.014207526479141658
-0.004483737296554384
0.012868068228290256
0.009553762645900916
-0.02767798217010797
0.016327148977345746
-0.03711547040949904
-0.011953124748678079
2.468390419025474e-05
0.00626124510100842
0.0010463852964035553
-0.012773293235371706
0.027538453824672557
0.002348248546071911
-0.028048268740815056
0.008451217264769337
-0.0404086675897742
-0.007728772929055711
-0.0040574663346200236
0.009496567238944816
-0.03796594191361997
0.044869516443733035
0.05317081502588312
-0.008798799000235688
-0.01956807272486625
0.0055766974668833265
0.044783804861307785
0.006569915203401986
-0.006185105410167447
-0.025085665275337444
-0.02111116468817782
-0.0017843269076724601
0.055488676018122705
-0.0101928203912025
0.0019499180187621792
-0.01356494281516291
-0.016915986569606422
-0.04817430034639774
-0.00982597377497355
-0.014794602117842521
-0.0586670404644708
0.009444837869371298
0.03163306599137286
0.0528488632347416
0.0371952575983641
-0.026570762169571736
-0.004671467765364007
0.00565767073390545
-0.006259587086935981
-0.0026919092118796693
-0.030596743244670054
-0.016575795263559092
0.02815075333214897
0.028729511765159376
-0.00975135611826408
-0.0024564409473802986
-0.02650587095056983
0.013249930575537425
-0.00825856178226906
-0.00684383097158096
-0.013872374346754814
0.014487720147110597
0.0569190164992366
-0.012598700272913807
-0.00657183537527355
0.0118735198717993
0.008476995536232693
-0.036725186673133514
-0.007459914031547402
0.008025184761584628
-0.033154203755046935
-0.028126382470819965
-0.007925142024616801
-0.06866858609987866
0.022674572598462017
-0.02470665766913927
-0.16065841776340356
-0.006070914548816463
0.08982411548772197
0.0328204382099993
0.08281412856897234
0.07940605265141928
-0.05319008053943238
-0.006019639578891879
0.127147520818657
0.031889727937146096
-0.024909276456723507
0.019185495887904414
0.031722765625840865
0.007748651957889525
-0.008838672916458522
0.0016727990208362453
0.012949989922687153
0.016908852321929485
-0.03675895647565855
0.009661632343674032
-0.005446045949625067
-0.029017545949827295
-0.010725933859565277
0.02323074995896194
-0.008365192949199917
0.02066748238311314
0.0020905387944974325
0.05084795202087113
0.03706678123100378
-0.0016470104177284514
0.008727785252805407
-0.004822888434557783
-0.025614427883620717
0.009615310859365013
-0.023144234617500637
0.04158235510898698
-0.020891671736145048
0.02070345308873292
-0.02883968113308267
-0.020155105799384745
-0.030322680327870614
-0.041757933525309196
-0.07313533407313444
-0.006479153442487244
-0.018925340296542397
0.0016401251528802606
-0.03471594997436063
-0.011773582749881403
-0.06055131299058617
-0.061258657820427526
0.017309508175426862
0.0053933960069352214
-0.04791762423647169
0.0032092552593670485
0.015772853207987162
-0.001532144128828376
-0.03463036396210756
0.0051949518727857176
0.012534511675959844
-0.008447738968092006
0.025713695313989197
0.03815221885205787
0.008052692244599641
-0.005538663799921211
0.038240249116095776
0.011860797862559303
-0.009988269164880109
0.011822082973656532
0.013154561536761164
5.670022108819053e-05
0.1034917842569255
0.03604240850752772
-0.016028210586128862
0.035742247623010134
-0.01381468874935788
-0.05647707944607084
0.1611502747110718
0.13181415549974443
0.021464344046180597
-0.031995173544852894
0.006540258463324714
-0.07029826517307346
-0.03771295950113084
0.006164117405870623
-0.013180723699479353
0.012177064969137518
0.010302848196156981
0.022931757755804246
0.01290658462162566
-0.08195966677861344
-0.026361055387676264
-0.006099773625186961
-0.023708307485743256
0.021777273110306933
0.011780546298858385
0.002525248987158904
0.02912663652883565
0.02130596513253544
0.010098534456132846
-0.09249286302621172
-0.11078973122150229
0.008681629416254008
-0.032661079085609765
-0.02060249919124193
0.010734246017880643
0.0076207024518629
-0.041193115789613516
-0.05691149859697042
0.006825923503630704
0.045520608557870997
-0.024296057205791036
-0.0005441703201252166
0.06035911906104417
0.02136603334477702
0.007214203355042756
0.027767486767966875
0.04152610116695295
-0.04847494981804125
-0.01965026544096859
0.017788430192816628
-0.012200210415197432
-0.018627326489529205
0.021729640014306557
0.021389758792340088
0.01704507180482094
0.0008295049152769949
-0.05781343832007942
0.010568416710511246
0.02550522884296209
-0.011725452308386676
0.0068519363681538055
-0.019579481122557012
-0.024179681514057777
-0.019022477790535827
-0.052573038044729556
0.006735057253377695
0.029269759736715327
0.004058077663352083
-0.016861052588734386
-0.02805673362382075
0.04070464731097146
0.0011647752888539467
0.04443672858421849
-0.007536275889003787
-0.050792072380124294
-0.007166435123182371
0.0040282449365117
0.07019093217792229
-0.01677724151866685
-0.06207579929123952
0.039131467488461094
0.009858976983359363
-0.018889155703360465
0.005626435662941786
-0.0030697666606927954
0.018671028996777812
-0.05740863335870225
0.055456436602374704
0.05702663171057071
-0.015200391033082718
0.0924516070667237
0.11039040647814306
0.07256027463121201
-0.004176566692601942
0.015602750546859384
-0.028680268703024155
-0.011260419090670942
-0.014768861405433197
0.003063791703553382
0.026847165952610327
-0.015089468987228133
0.0007705880448498533
-0.016563479671031864
-0.05147479307124566
-0.02227587301147356
-0.016764534395522803
0.021329137362270902
-0.04019303869726576
-0.009879186574397417
0.01926037231326504
-0.01495529847611513
0.016365613574836357
-0.03365073516990316
-0.0471605858246373
-0.05329927079337535
-0.039389632017137674
0.007101538839671163
0.013980327457500512
0.01879782260926565
-0.03435272225064418
0.005031019623817516
-0.02380781829121093
0.056137519509406486
-0.07065850443082924
-0.04368813052753674
0.03397054513134414
-0.0032357165643654793
4.0820454161212454e-05
0.024769664181714352
-0.026631350912562718
-0.045627878259813494
-0.014352886028023884
0.004442964807692215
-0.005697291295482055
0.036554071860333416
0.06737058019496979
0.0070601211727876045
-0.020004792407265003
0.022454543855185416
0.05569859943672027
-0.06186933881330596
-0.01347048517659001
0.013303058521254641
-0.0021885650983942484
0.020034147148120084
0.03181051817090813
-0.04729987493200367
-0.042735282356979196
-0.0030721007446076988
0.0023962098642718987
0.11053953256164299
0.026141264786336802
-0.03621232498524507
-0.010366372552409192
0.000921956768243712
0.0063818805047351195
0.010202154663166698
0.007879234646480483
0.05424497614039468
0.015692132727743873
-0.005171038113005367
-0.0025464151029351975
-0.005953644968776534
0.03818120577375854
0.07759972722304306
-0.016453110232989978
-0.0001247788627825734
0.024503623354854072
-0.02121623367728174
0.005419920094291894
-0.0243403134109919
-0.03137060694218475
0.01217536450587424
-0.06678840102037682
-0.019009341119070933
0.03387506782355908
-0.018908132240246647
-0.01804625357820887
-0.0055537869574340745
-0.007137564305106123
-0.014532953949364298
0.0157036804811078
-0.007780856244168684
0.14193846625454792
0.11232687977258793
-0.002502932652324729
0.02374960660553193
-0.19554318616545435
-0.035700783035158286
0.035022003682533505
0.015841179250166988
-0.12302662046550553
-0.15578998199855612
-0.008958377420197816
-0.02212339152692338
0.044613962614558446
0.031591985409140086
-0.017466269489632
0.0104901902866378
-0.018767099718784992
-0.04866510220849985
-0.028747931778334856
0.05537212870095835
0.025899299889049498
0.017234806393904394
0.0023319802701339443
-0.010395904786816288
0.0059315564217182325
0.029080064773449366
0.01707131060891068
-0.0031918498471286885
0.030357497686785327
0.09743222608113643
0.020129296910040815
-0.05553643354142547
-0.02775302531590333
-0.02908983614729417
0.01538047365550038
-0.03280971279482595
-0.01890163196214981
0.011081555539093032
0.03325118138984549
0.02035896648251658
0.03329765214997068
0.047151221297289915
-0.010888849594228915
0.031077569620095787
8.491709609057282e-05
0.00194503829400337
0.008035371200208601
-0.037851818365756185
-0.013954560492522215
-0.03021482160878587
-0.018485246353215287
0.0016685087812536381
-0.034893238954397214
0.0026804578623087667
-0.011691572491383948
-0.0775687814844682
-0.01744317783151854
0.02214960826015612
0.022895032628715076
-0.005569789050678805
0.03980648902711747
0.013412024886019468
0.0050581814061074525
-0.0099055164621669
-0.033067362336212124
0.023198108343891223
0.031692128655621155
-0.02359520522250344
-0.01203800703105183
0.10940298109661245
0.14699038405346787
0.03545537950700621
-0.008049395712470332
0.016074800388011047
-0.015024920987505526
-0.056400144795337066
-0.06573531477090522
-0.08143071323098075
-0.021831917519256543
-0.00931495286675211
-0.0022512283506717903
-0.007138907885990856
-0.053159306007746085
0.011306625312912509
0.05204944620904412
0.04711695808992937
0.02159364283647189
-0.006207997498589973
-0.012057392651359687
0.0008399532557771115
0.01715347037184921
-0.0354859080768018
0.010249430957841268
-0.004092589382933162
0.029769327500405052
-0.018986249462435545
0.009451881726355818
-0.015194924164083393
-0.08511229175016803
0.02737288574796591
0.052750587252852775
-0.01260785436132647
-0.004605233050474846
-0.011115990746238294
-0.03444939153785214
-0.015096214202430966
0.0044256854521992905
0.045013071624694014
0.030926136566857925
0.015624989188598296
0.051934022785195155
-0.01972992797749497
0.04154701971255499
0.005680422167112305
-0.00637981807254835
-0.030386143877088736
-0.01830957989563742
-0.003042228715526013
0.027118179706334747
0.027051723911656514
-0.041483707251455816
-0.04578101565527232
-0.015547893613677059
0.00885484244431395
-0.0558472313622842
-0.03270941498417474
-0.015179632550250226
-0.0073483100720127155
0.04589557062769923
0.012787943511658602
0.01109641754429483
0.022105604035734847
-0.04343192334870251
-0.07701390266316897
0.03721021591531399
0.003812647915272704
-0.0014082797658296039
-0.0056533914436046355
0.0835442219250181
0.07703647949657029
-0.03295907161964904
-0.0019465199508310516
0.021549285907612875
-0.01970181661810639
0.00516470242316941
0.0252104675231845
0.0068715788345096555
0.008771385007886271
-0.03601818157227495
-0.05899117273207211
0.040646600646018126
-0.03194077940072682
-0.026378839824702828
-0.025364718410852166
-0.04164548754559655
-0.013649033426466516
-0.01108415954994504
0.015656615714345554
0.027673101564762867
-0.008405456471315194
0.00565880751290739
-0.0314761810370553
0.07143059702680989
0.060313003705284224
-0.008287625984936845
0.009642609557713842
-0.07590114394465991
-0.08790741767937164
-0.0029448388012209216
0.0012419426111650578
-0.010180874450977446
-0.018815074004910573
0.05914847592622517
0.14599611736870768
-0.009342087706234233
-0.020473108344927764
0.0051083913487533624
0.015851576180092992
0.024889305537561697
-0.009931901357158365
0.02227911966985035
0.0001896509961886661
-0.029494239704941652
0.0065375170476643495
0.04097082926530856
0.01909580613393872
0.012690995800550043
-0.006506877950142696
-0.0007420984442507328
0.020770396458425523
0.0029423899325367983
-0.009158546880465716
-0.008673757634691337
0.025701946122045884
-0.023147191007219202
-0.02200604583897858
-0.014227176015269
-0.02382285472501665
0.008940011146753512
-0.014485322514110638
-0.016087756582046826
-0.006743832710445054
-0.03646695322134954
0.018601167901390072
-0.009670806394646512
-0.01579690310060901
-0.0031334177683090174
-0.009630334600324633
-0.057417991898575285
0.036760478667491284
9.577943989816075e-05
-0.05803054671148052
0.023920496492409384
-0.017563068548909093
0.016084020619896954
-0.05622763598277846
-0.07430077972883053
0.1208355290198241
0.04216826455922556
0.010342172588515471
0.028949568172863375
0.002998949777062769
-0.07845269855768727
0.017397507888023887
0.001973020363028559
0.00024372530390414515
-0.03799821365042875
0.09405787138406656
0.061179126713838815
0.019648807649186275
0.05547228107653268
-0.009206106835442374
0.028274259760697446
0.006965441265183059
-0.012105778297521692
-0.011409489121935235
-0.014634831189813001
-0.07385518558967932
-0.048599996541200174
-0.05741654162419535
-0.011213487305127329
0.0003786317779995609
-0.016968398411853026
-0.030194765500806058
-0.006620982556821983
0.030245907040717404
0.016583889136688824
0.026479353635920102
-0.019849256567167843
-0.008426731904344472
-0.013119337511493929
-0.01950267222937813
-0.032809906561612964
0.03655743080683299
0.06026220171921902
0.00522064796561835
-0.021585434443082457
-0.010850634442523833
0.05413587484225875
0.04190652233200447
0.027100927390924377
0.04231895944160772
-0.03149108263332685
-0.005873697831522434
0.001216548110227665
-0.013983500315776732
-0.03145441343944104
-0.0774272851217248
-0.03421262873668035
0.01961306755483404
-0.025589103027671468
0.040888176521634144
0.10297663434339799
0.05547381701953073
0.020230468371389313
-0.022546984134106197
0.019868837986894088
0.002654555051326619
0.024857051102728206
0.027625353650798254
-0.022265736185016403
-0.012506706397303089
0.01966981851522804
-0.022222979197400988
0.0911793383203717
0.0002825245233492889
0.0021159529571228683
-0.02526099028665773
-0.03002663677144961
-0.03970972802899565
0.004538646481589168
-0.009106553882906558
-0.009755727958241965
-0.0735635995595314
-0.01874803142040776
-0.010169672105756748
0.012438513728087791
0.02836640497711423
-0.01549211651396313
-0.002094076524271722
-0.024328999665787623
-0.013212154535552164
0.045148535486980924
-0.013138172529846445
-0.016754538608763466
0.00882524481176175
-0.02567391255362092
-0.0246555242501987
-0.03148751967614756
0.04134732980854236
-0.01717202680938309
-0.017241722212469647
-0.035276970270197355
-0.02785081354069622
-0.013289783321957935
0.003338622400179908
0.010564891700494062
-0.004612579147704005
0.05904883517863626
0.04202967781620308
-0.0024394618281847903
0.013168735878337414
0.003614084602581385
-0.03021487911451601
0.020310009055249257
0.05721377326126973
0.06581269627960246
0.008874851148118656
0.03502306567905345
0.015409814759167568
-0.013112132241534
-0.05339753333859673
-0.01977956917238977
0.005879728059903938
-0.026935476118300817
-0.02053825970457336
-0.019813328736627583
0.04872649071637727
0.0027208164613419057
-0.02233600805784366
-0.0068107340151678936
0.0076363152575575416
-0.01971491899037707
-0.03173973525310481
0.012446560717370755
-0.0168176460001359
-0.015735165730374215
0.02530705757666777
0.011727647910416599
-0.024356632391146566
-0.027266120001827168
-0.011981564359050572
-0.05041527878957478
-0.12660010786763679
0.05504315372869206
0.019452074610158066
0.004342936704747006
-0.027188198211000426
-0.006763352055521121
0.043363922027292015
-0.04936003004145956
0.009151568328201286
0.03950200679355928
-0.01670257405149457
0.04155554861340806
-0.01904767238544536
0.052944323818076885
0.14250466970534942
-0.023392763795287354
0.009379904798405577
-0.013718560568630009
-0.02211228848303936
0.019534935621190866
0.0018272717055104035
-0.037278229527833516
-0.012810681617609326
0.02343415194380867
0.00010448526590571218
0.003896094988776548
-0.03363085367156556
0.009900329951154663
-0.014279589346785582
0.05507285371146332
0.07339725665035682
-0.02278669296495553
0.04133290595580819
-0.05017510529692202
0.08618874708694306
0.07485362269947707
0.014795074234689079
0.004838502341839592
-0.046553886907219
-0.038585550255162776
-0.0031105207688959568
-0.04026828957894517
-0.005049618723163317
0.009139615639699197
-0.15502449365018692
-0.01882770626902184
0.0025669313381731693
0.09045351438899456
0.03291871609213194
-0.021185560419476644
0.021626680637530257
-0.004892365885157454
0.014017927670881095
-0.01134307213161481
0.020180633457355917
0.0008710122866255822
-0.023950162493993985
-0.0012374527191106397
-0.03356603553263597
-0.07031372865810141
-0.03146363206882272
-0.0021204046348914933
-0.019510205271118835
0.016795224453280716
-0.0007998996647345994
-0.0021404946359837337
-0.024826840198284256
-0.05778818724360202
0.003785403944329947
0.012243440400881224
0.08848929780824895
0.0032533450225599985
0.006076939172945199
0.06273644015547644
0.015346165840596946
0.016943082004984702
-0.03501725984435311
0.0019228421294311896
0.03478972082561911
0.015297667776826928
0.0324563786162861
0.0052224723400886
-0.02041111839166849
-0.033093681312231955
-0.02927447426957532
0.025776207623502616
0.0021529088286959736
0.008223305933037542
-0.08766301444254013
0.055025300925699495
0.1544120375250074
-0.011305110163742874
0.018104437314970075
-0.023268741481415108
-0.06025534973507371
0.016747506996461187
-0.01135141852885188
0.054286751309287146
-0.008838394708565046
-0.13124336784979315
0.026484606039205796
-0.005346964912600059
0.00020590742800247273
0.007884931806319065
-0.009763309346135687
-0.034009818855690425
0.017365837970300377
0.010011590745326723
-0.011544805306258166
0.026546654615886144
-0.08678348668891359
-0.020354628501791535
0.05086410501588429
0.02104536634888635
-0.00483027221147503
0.0037611408967981336
0.0034042022768892835
0.002667349349906885
-0.014241021031976255
-0.09543741683921776
-0.0067651629336663455
-0.0026021750196937904
0.011944713908577738
-0.01191643470537683
-0.00802847797398401
0.003100631622847721
0.0028812022121028832
0.006158918447025581
-0.00969548532205437
-0.008559443009907707
-0.059814649564293845
-0.054263579483541394
0.012145670543484182
0.014575860581136598
0.01770981211325438
0.02093438320827572
0.006254122360230336
0.0039025824483596826
-0.0027511944208741352
0.022325333910188608
0.09644511175473879
0.014149100230710246
-0.03635991974155921
-0.02505664678377482
0.02230713078650708
-0.01753071487704617
0.02047096582733128
0.037175289011437636
0.0021029914998376446
-0.011228612041799743
0.028926217923290115
0.06332546715025486
-0.03642677026535844
-0.01990748813106227
0.005408946622965843
0.018973760802180988
-0.021605996942920213
0.016266113404309206
-0.002797314562589989
0.015986562360997977
-0.030488499026303243
0.013710063601249113
0.030190654282296135
0.1425945873691028
0.08464380830620843
-0.05485044614441282
0.0012652189403567701
-0.000891499772686039
-0.04931699715795154
-0.07360673884869302
-0.009691187504351627
-0.0021878265176215883
0.09335561756031067
-0.05407565230611973
-0.05172096676540936
0.00724246879963543
-0.0034503717430467745
-0.02035489228240924
0.014879127381629813
0.004771028359135149
-0.032698457798108066
-0.00098960734289729
-0.03419305575950326
0.006659282775848311
0.030467721885731908
-0.07714759907789347
-0.0443830155144608
-0.0010584353584647617
-0.0813325498098322
-0.03963889532105279
0.022230643656216416
-0.022712200850393854
-0.01781152741851389
0.07144422774920231
-0.002236701897603936
-0.029488267265274204
0.08973409957299482
-0.007430444500878975
0.2500363585042351
0.006856751976110234
-0.07177598904174305
-0.001712272474617269
0.024379994519828644
-0.006780030864252747
-0.016751190676585013
-0.01180039761952676
0.0073530002632524
-0.03081237320271429
-0.00395557225910707
-0.0027025165966387296
0.057199549460601004
0.05500976448824732
-0.02217767562607098
0.005452915324809668
-0.02824960925061109
0.0008212588459826035
-0.004167142987129788
-0.05951430515420231
-0.002504460138116579
0.0037210052711153002
-0.10131368306779645
-0.02111941611679934
0.0034619593054581034
-0.015773487584497287
-0.009155221591887277
0.012034072264187835
0.0683018258593688
0.032867891949931616
-0.006901585286377161
0.026395563150823503
-0.0024869176575477423
-0.006798431007873695
-0.021119647777630715
-0.08411678984589499
-0.0006434010987994315
-0.032996794398012154
-0.0066073566607026376
0.03410883897851278
-0.0017022778557006142
-2.570439708214469e-05
0.0008911068132635589
-0.012126798958279799
0.11129277204485256
0.030333741238988698
-0.02245220497081427
0.028855765534394406
0.04832331899469991
-0.01803150046098215
-0.0032348905650206204
-0.021612920658186863
-0.04718738086402622
-0.007228335133430828
0.012393153691910946
0.003922576988156013
-0.050345265698417956
-0.04896622158641652
-0.011060408383622313
0.004669274791659876
0.04271839749823312
-0.037561600620715924
0.01382675011709731
0.027858728844541575
0.02916912010635469
-0.006540635426346181
-0.04023892131714453
-0.01602642909266596
-0.00172539159993563
-0.010539024677358311
0.009655982898842673
-0.017257967745584926
-0.03455251565681534
-0.017766629764172332
0.014166956869404066
0.00034073050637917283
0.027286293877662997
0.03964523484388219
-0.009427159496949594
-0.057299903465957334
0.01421397651578118
0.05039413124639817
0.07332140733082082
0.010660383373712728
0.10483419570350191
0.011784751072879808
-0.059146466586985996
-0.020204784457785868
0.013311815534925428
0.02733913392910822
-0.0011278994862467097
0.011416211980623925
-0.009972750170569337
0.027495530681951357
-0.029117989621599297
-0.008164665617321074
-0.019261137363861595
0.010845849516393682
-0.051217750245451936
0.02399390741315733
0.054683947402092765
-0.035229510097969124
-0.01226231641015305
-0.011313420809879007
-0.029348654559428602
-0.027213209574643342
-0.016950572277341043
-0.0007874556131354263
-0.012389235910926931
0.0012516258682307756
0.008968104830773817
0.03746420684481496
0.03710076303887781
0.008200519377910543
0.010478231282591077
-0.05259314853330738
-0.12998322596850462
-0.0371450743930352
0.09567897336034387
0.06920675841117813
-0.057800766706637766
-0.021088520240076385
-0.025467268524735753
0.04051767282535109
-0.0035915349812674223
0.007493987857091602
0.0032467365949133344
0.02459146131870846
-0.0028662979149254105
0.08130034273975088
0.04193360858003412
-0.036157764766926864
0.02595365177534598
-0.04076198510899499
-0.03274304080895145
-0.0101611229803584
0.034351748163626385
0.02784843832321684
-0.06928508336285316
0.022484976870854993
-0.06279333361332666
0.04053368985890119
0.05034099824112877
-0.010543997642358072
-0.0025059014174662994
0.017800829465670884
-0.02127784683509127
-0.003756051625209418
0.00932239065321401
0.008678122052493877
0.024409087052720956
0.04301485792786245
0.005903787407079756
0.008213770801095801
-0.023988851890408256
-0.03464338721042674
-0.035641723567511246
0.007312785211088137
-0.02948573588167035
-0.005397386608509793
0.010284353320234443
0.02383740952684445
0.01592169378897918
0.01728056913785098
-0.0013660982708270353
0.06696191578645984
0.07347232562629516
-0.04683761789496251
0.021528729077249842
0.029280588088399586
-0.06035719928451783
-0.14724898674388068
-0.08924972854108687
0.03244776136990017
-0.010523730848806244
0.024208305767031642
0.0017915516589598554
0.00440910061049148
0.011613518031408414
-0.02321320306326367
-0.005215197795103712
-0.12872590409264664
-0.07609418218176546
0.03160546963779191
-0.018612739717647535
0.044150483721664066
0.03666124087668391
0.036029935774494974
0.01574107393052072
0.054861513395689974
0.0707695813214224
0.000529272516234213
0.006228591516402746
0.016578367238023462
0.00028908819193524825
-0.0021668685751785473
-0.011959917872726638
-0.009170290557020514
-0.020352753072935884
0.011240201975567722
-0.07654622467369254
-0.03238170993775042
0.036048197505350175
-0.0451310296661353
-0.032652594456583965
0.02110557911126902
0.03469448059754464
0.02352246917078532
0.031320665290918134
-0.014124175692317222
0.015124622164739029
0.044009600344936325
0.016579874130888076
-0.015379639846962664
-0.00968408885682289
0.011530410092357363
-0.02122715817796209
-0.02956996283282397
-0.05218712599927102
-0.03307588752109531
-0.010881828497898427
0.02699669413242748
0.013016074771026526
0.017099295104992016
-0.061259813444256246
-0.009163229838405774
-0.011348412699728182
0.034476102288014156
0.0929798730823343
-0.02113817441025173
-0.020294629179315227
0.03644747027466177
0.05095966105100366
-0.02918692461782304
-0.012853818257326675
0.005786832465698423
0.0016623618212788997
0.00388897666352195
-0.04149622057584489
-0.0018779047639799701
0.05072054474308463
0.07559217726525227
0.0692314467521909
0.0008674195681431089
-0.03504993038082507
0.003599575054502354
-0.08305552602800295
-0.018888717131596323
-0.09236915193978877
-0.049740875771453204
0.023448691241953347
-0.011626143177387567
-0.05013998869799372
0.18205044459900663
0.15073604884826988
-0.046756470327775836
-0.001123762254996481
-0.014270890097308432
-0.003960622750223363
0.029830953016332425
0.0435768949617161
-0.03205937859929992
0.019933487846044522
-0.021574302262278175
-0.023451665301924024
0.0003247853838440137
0.03849983454707156
0.029065959945318576
0.02123024417255297
-0.07100655034301044
-0.12201031911707239
0.045933477531771995
-0.018163499631728194
-0.029402024392294713
-0.011076545756169674
0.022049670931576247
-0.06341737683670408
-0.057870380432473036
0.018918101998997183
0.001381302301812715
0.008401583401248565
-0.0046448447236085814
0.06200515082027276
0.1024944791795206
0.01238881632965503
0.047889723057227905
-0.017730281006312996
0.04534605499574651
0.05935433202076958
-0.013825853508536344
-0.197422089485737
-0.04792452003224296
0.018531266259484
0.025319184670678282
0.043225298521835334
0.014733693258513264
0.016249878511989245
0.027991189242221822
-0.014814383464478982
-0.047318195721924076
-0.05378088699188662
-0.008411544510599611
-0.005097753028958986
-0.009897207187801552
0.01776997551563149
-0.04371474385356973
-0.05700578869104453
-0.00041898746280744385
0.026757965635323424
-0.03421577508364977
-0.06921769303920286
0.02118499149102486
0.05358022166116633
0.002103978199323907
-0.05692302308955635
-0.006674696610733702
0.023961487945245257
0.018019291506065342
-0.03677480669090278
-0.017309148695370563
0.02750291645431065
0.04302436795427423
-0.03486305190096986
-0.022928799193959543
-0.005016649362504403
0.023089939309646028
0.011162202904913508
0.055298546191674826
-0.013614705956403064
-0.02390407634634736
-0.0075785591872573185
0.03867415668698453
-0.003853378214906699
0.08162267120517745
0.06912955144603503
0.026891218902298838
0.020178925203149026
0.13916264721829383
0.03045877338299574
0.019097119553172025
0.011563024546410887
-0.00410903549595629
0.01570809443610297
0.0048275902140428
-0.16553900811653238
-0.003853806393915165
-0.08018966292473369
-0.04463706037153316
0.036490361102904316
0.0388767717978065
-0.012660571893635942
-0.08107391830961423
0.0031286549027556097
-0.08728270332676658
-0.021423167456204616
0.020498821018987267
0.024295208284880517
0.018983233535082626
-0.009675746733361244
-0.021185462955900826
0.018451406146727307
0.04026685856420098
0.03841244752865456
-0.10761803542052799
0.029270855399283164
0.013949183888860843
-0.005806882945503871
-0.027807577549063153
-0.041594774024948475
-0.0014848704994880344
-0.013100364820317352
0.039674170419080286
0.013720320533282867
-0.005900101669951216
-0.0139949577458125
-0.01064506952119152
-0.0036219797482405646
-0.012929191829519043
-0.03461650245985863
0.024123363116637646
0.018009090086593495
-0.0009000209106716469
0.01620240937202157
0.009529493286648568
-0.024879349122472683
0.016428936418200167
-0.015829093370894085
-0.02306356447622525
0.06007977018209351
0.09873868293225843
0.06884726136277947
0.02827972304717602
-0.006006314838007791
0.006742130111104844
-0.03137783307259339
-0.026657481733409483
0.016776086315605475
-0.022861022416465166
-0.003644444580330295
0.0022751465156815713
1.7357282504282114e-05
-0.04660445220992836
0.026568874560010742
0.07970034215038074
0.03419671971066478
-0.009349269275027128
-0.0858576988491029
-0.012581847644870152
-0.025344555631315657
-0.016527175477258876
-0.020500274597382358
-0.0164239266945796
0.011234165634912485
-0.003080000380078156
-0.2140773051113536
-0.022106531049312438
0.11276568691099628
0.011362458633723952
-0.017588466899549803
0.02435448540363429
0.042391372659515696
-0.01872447381101168
0.047231131243275166
0.09491261650816549
0.05464184887371847
0.004968333163397324
-0.005958910474224398
-0.02342334817294272
-0.006504413953653659
-0.0003611180852903676
0.008993517399771162
-0.0016493797470755133
-0.05001908142101429
-0.09297916674044031
0.008991867196362299
0.020770913331456167
0.023339553115172405
0.0005740716056733965
-0.04422569791034118
-0.024610380474978745
0.0077198902190425776
0.08039740337096869
0.08798090481668512
-0.015783807975695008
-0.025710037307599107
0.034460423920330614
0.05243796472310249
-0.016565401527679383
-0.0025945140700449057
-0.007961439668689865
0.024376550290289265
0.03578101271402165
-0.05637137650192586
-0.023369255994905132
-0.012181469817547247
