0
-0.06209546425486335
-0.014353573458738113
0.0195277239002242
-0.004820758511326904
-0.07095508066570719
-0.08388233445013435
0.06447397480513797
0.01728849915059748
0.0727462930983007
0.07699312924236237
0.0014819466253777635
0.0029678954710698337
-0.0026462607483483777
-0.0018793178000023356
0.023232283613565077
0.01338343186499458
0.0493064768109349
-0.0733525066745091
-0.16698605555897572
0.048574998503340266
0.039789207589907304
0.01309795720385842
-0.001718364301177602
-0.017004196982501
-0.01776874057707802
-0.05838507917185222
0.008618588020831144
0.05311602124650406
-0.03539705102021307
-0.02819976568820884
0.01805482430142694
-0.051881726496965236
-0.08728199766433903
0.03013387556657616
0.038070593232821894
0.010058921697703118
-0.013197505422010248
0.029596778971578665
0.057223903045612264
0.0005700756882707401
0.0371018838841349
-0.013467695857409437
-0.012446679235496043
0.02087795694798985
-0.005725704996866783
0.0002925744032312179
-0.017334409433026523
-0.020417879139087828
-0.024447782109209008
0.002859794536977483
0.04018904639249466
0.004149786586319483
0.04322327801344231
0.028846176390545385
-0.012430075057029028
-0.09477106664488982
-0.0369473511987731
0.004375713476780849
-0.001064144528477928
-0.02009190021856265
0.042224491478113524
0.017268141758311106
0.017682867159006035
0.12696092310775664
0.04615780169950746
-0.02646131135777011
-0.032934243354241034
-0.0251988075750462
0.03070645748274619
-0.01804076173793393
-0.0063728682699589435
0.009060824018706934
0.028807640026067182
0.025988702831660965
0.017982422326853344
0.0021803376273138927
-0.012668604257965113
0.039453411048996107
0.012355882123207209
0.012366361097218614
-0.0287038407557964
-0.17304789016091612
0.0020972154661868256
0.005624516673761298
-0.041052298582817996
-0.014840095972980086
-0.015763788190628843
0.0036539819514603343
0.03495512335222447
-0.04617183809188576
-0.009163179283750364
-0.031446489962903404
-0.033204024223783504
-0.0010080307392529256
0.019848975271307894
0.005731952338082346
0.02465649293897644
0.07252837137628895
0.01358234074934685
-0.010210018919103466
0.016118765559055042
0.02383558085791919
-0.0019991555945511456
-0.005934660712881416
-0.004795476635878679
-0.014859306806632116
-0.018646340708665873
-0.023436815206331438
-0.01601947152115135
-0.011159587160708199
0.008577636143112941
-0.0018154270207034768
-0.0016368985839251885
-0.0117020365868701
-0.012421347355805782
0.011534094154822712
0.011188828703010125
-0.0026615998098104333
-0.016279972959787094
-0.02737223375186291
-0.00440293570807289
-0.008412155412044714
0.022500538933931287
0.0010535404926467218
-0.004290420546230413
-0.04521664731513191
0.0197942253685371
0.2548080388762748
0.10324014776529958
-0.1468391931363452
-0.07017926490728894
0.022415041657227623
-0.005309998668967367
-0.018211832859365052
0.08477981830858929
0.04046058368069065
-0.03657394195005648
0.003709521874956507
-0.026742688894606136
0.016223214252201582
0.012062605260630369
-0.026745179391866613
-0.07566574401810154
0.05350590322759696
0.010558800634810383
-0.023093698945378573
-0.007121772475955448
0.0031445731820429084
-0.01072384671785667
-0.03404288240425845
-0.03753053598134693
-0.021189164446807515
0.0058917103525753835
-0.013855061401707926
-0.07847897625321273
0.0565195825891543
-0.01547554287431763
-0.02898564184435235
0.018867742883651555
0.04622932819374736
0.017864768718210904
0.025417605682911484
0.005597163213587201
0.04733227785560999
0.018296397506043064
0.07405859676023785
0.0374462917916945
-0.010746697766613727
0.0015414974076868582
-0.01070973591235991
0.01895159189057593
0.01286680482506229
-0.003015768364467949
-0.03847490879546339
-0.023121324167094618
-0.016102828213234676
0.007475271079493321
0.10438014979096069
-0.021171670240671965
-0.004861317466463457
0.029258685835844216
-0.029145468181219242
-0.024691211514195822
-0.011735373557533218
0.02088093390656675
0.014639632297388825
-0.0076308439314700304
0.01227972214349682
-0.005295037576602274
-0.017756834702823975
0.003969032827434729
-0.13482088674123208
-0.023229015275210513
0.023543062210155334
0.009632760451823406
0.009960965709784785
-0.034056704501459735
0.02147209324881229
0.029033789353699945
-0.05222842969056364
-0.1973639386164734
-0.026131781449417153
0.013574907199029934
0.003929003588953083
0.016248462735833944
0.02350266702392167
-0.01823995582107576
0.026284792486340847
0.04532318789852052
0.04832937415935831
-0.008954760712823811
-0.005795665992804376
-0.007030435677253072
0.0008820730517736673
-0.015282146585065376
-0.006817087576499432
-0.05304933661616896
0.022466281870937962
0.010099280892934662
0.017887814447367766
0.06485472942974568
0.04881556187839148
-0.008378926870873575
-0.02656518737165969
-0.00369283885486094
-0.005022742980738759
0.07009389881957284
0.01266160101070887
-0.032292398967451084
-0.008963314053232741
-0.023629032779246717
-0.02264309275926606
-0.03291703725433881
-0.05884607978930234
0.00613986555164898
-0.014329102266952255
-0.019206578269313317
-0.04832724767028849
0.02842693041449815
0.1420635403336003
-0.03821137964444373
-0.006396417331643527
0.022022614021643884
0.03882139520327368
-0.03592757654090546
0.05028889404697871
-0.025479244542811943
0.10050126206146773
0.12745060223673943
-0.002679676192915007
0.0018135176855648423
-0.027233066644101675
0.0513594319433394
0.037495619772997715
0.025524327757540665
-0.043742871109511125
-0.038548142370301894
-0.05094397578945898
-0.08030022496209163
0.002517655077707798
0.042631901340633556
-0.03756383489859963
-0.03140863579365195
0.004099157684762562
-0.030545211907786664
-0.006614135561651865
0.0004023726895299357
-0.0167312384008701
0.007265256388967307
-0.012757793504965228
-0.08274625766174686
-0.0321076838741324
0.00781799473309916
-0.008201011379981256
-0.004068740032682538
0.03161860904035964
0.02078150097868927
-0.014867711251335262
0.08186641154527755
0.05253565942838371
-0.027560104388748573
-0.0032444899839845645
-0.010159560860616186
0.024809590443074993
0.027219937801947012
0.013376553587736793
-0.012734902035330613
-0.027385624425921462
-0.0393890905956315
-0.008057834540544267
0.006634905315800248
0.07656581799862651
0.023006382123545558
-0.004160748456216707
0.005701664698990466
-0.014741973352922318
-0.006911371024522671
0.023029884824416244
-0.006837459390450401
-0.04461564440289058
0.019082018069405408
0.052191217595345764
-0.004672783145468817
0.012622289348673644
-0.024121341428238293
-0.12459017715847386
-0.0051570078393185035
0.084702289726742
-0.00461289672573722
0.02738615484728253
0.16814782103354314
-0.043966107206628385
-0.08965484014796991
-0.004970442488782133
-0.014910977508716797
-0.019737500505959633
-0.019469635254430528
-0.008956932471633275
-0.005529803586185987
0.007370560851044371
0.005345053422623833
-0.00387517096720445
0.0002839252277248401
-0.06948949176854428
-0.012187308692431575
-0.017658933955722843
-0.0553268342448932
-0.00977810700614929
0.009334790336749405
0.04636720128922455
0.0013895338605776778
0.03209898084709868
-0.0069071901694700965
0.0698594184215427
0.013915377067286731
-0.005599286174233897
0.007421673485058
0.004425090714008132
0.03484278988621518
-0.004414184222026326
-0.044518044574704256
0.012137265061331677
-0.02353547555182494
0.04795147926570625
-0.004052256204570974
0.003944910251098014
-0.03161563172211374
-0.041365872690577975
-0.01584587266586188
0.013211807704883756
-0.021651467050922357
0.09100575560777863
0.03234530784986495
-0.07063532570360014
-0.010001846227534757
-0.031897629802005785
-0.031073361019639985
-0.000598186297665325
-0.0012395480719057611
-0.02090039143470082
0.00024134576498136283
0.040258138038696975
-0.0034431979210434445
-0.00041292288022554136
-0.10767538308509356
0.0057135925632615615
0.055134432383521836
-0.007415815009796706
-0.04601039506573472
0.00776767539969638
-0.007648774700857148
0.017330394561885322
-0.027812631500428037
-0.0187468728830563
0.020909554896868934
-0.00046316192386633784
-0.0021860398152365327
0.03534006960206152
-0.013425834928484426
0.09762726946256997
0.02363481561689428
0.062479780196110356
0.021741564476845245
0.015809259032176972
0.008447564054447397
-0.009654786460209588
-0.05178005833709351
0.11387175679995822
0.0344611657455343
-0.05982599356455082
0.01259522526855067
-0.028398383385702466
0.016970829540565082
-0.011305653537805565
-0.011919265763033888
0.02446209032638873
-0.03017038641161796
-0.07322341125960376
-0.02007133726904316
-0.028724257633718202
0.011226780288267518
-0.02715310402121071
0.00645994984089573
-0.015964632216333315
0.04643321053853681
-0.004784027330114987
-0.05390790354582477
0.033029085752963115
-0.007635834379753481
-0.01935195155986952
-0.00035181160999032485
0.04158562753851783
0.004369270570625625
0.007786667105043672
0.02063378037589079
0.028456740213012834
0.024544057661018946
0.0017510928264508915
-0.0028265954543206548
0.005954344873009049
-0.02174516718813357
-0.011698544130514275
-0.010844045059727012
0.010629296746995465
0.09326854799088058
-0.004588834624896505
-0.03849040047809174
-0.07582520781910056
0.0040938895854142785
-0.0395889504668558
0.007604127680153078
-0.007678557077684024
0.04410537699799875
0.004144327464237538
-0.01965773276810321
-0.0035991142617284064
-0.012877288741341808
-0.057640493655114144
0.04172265214268935
0.028435729181514578
0.021532906712486904
-0.016516469385798222
-0.04162642188313959
-0.030529354730290545
-0.025950130344139895
-0.024423419477365253
0.01706854825998582
-0.005033444962872154
0.0003293603739985442
-0.00824493481229567
0.02886323864599337
0.09144009408301101
-0.018874872963858758
-0.005456681580644331
0.020737729574388034
0.043259984696196296
-0.0028291863380571786
-0.02116946149307993
-0.02269452469945344
-0.028276689663259007
0.032505700377291946
0.06755049115929974
-0.0006353071294821616
-0.008860564041763096
-0.023770923302888883
-0.026829571981691096
-0.06977763657714357
-0.03987054686584907
-0.008432584350230837
-0.006642386166836773
0.034787239345971624
0.017586799213937816
-0.024499856220533557
-0.016671788113360293
0.04025571093984591
0.005603883625280409
-0.017045631067305174
-0.010726928984291452
-0.021193099511930127
-0.004922633606235135
-0.030884721100348067
0.08839997638889947
0.018139463987666818
0.00705968955473331
-0.020125497435496586
0.09493167614573347
-0.03721509386712419
-0.07561476597933858
0.03654923806421101
-0.01095402838742689
-0.01445298362986699
0.037978888418174504
0.06246793397989311
-0.037458784416102425
0.0026192346896175625
0.032688544431150934
0.008131044579007736
0.06517698983419563
0.04591622948123468
0.012901395865260267
0.019053144829441596
0.003295998515961397
-0.04889007776240527
-0.009166244258815943
0.018855454911011302
0.0007812895035260694
-0.006906768514904595
0.02018947427989498
0.006381252320636391
0.019327519651405462
-0.03217525821927409
-0.09244342696000038
0.06244902930198883
-0.0033193565341790017
-0.010239761578405402
-0.040080189904389815
-0.04603181739122173
-0.04920674249263724
-0.028520405975374523
-0.05763125688018064
0.002426843902018448
-0.017562370122803903
0.028071563750027152
-0.04341097793252526
0.021653788337487743
0.04880748646883492
-0.03255409300777989
0.02145723897494136
0.023756114307602143
0.042786151880939184
0.018242832776286473
-0.0381267716498983
0.018577146015227006
-0.00963904042336616
-0.049562041583325826
0.0217088641933371
0.007305197226826445
0.02985253465122162
-0.01008470816894799
-0.029317978225510306
-0.01401737561779954
-0.06006513438728685
-0.038869766994409895
-0.010107130874576679
0.023412047743950434
-0.0013339737933124218
-0.0652370801095749
0.06976571478097186
0.13087606433285695
-0.004801875219639726
0.0239137188354294
0.0017627489961461098
-0.01781447387735991
-0.0077151496339169555
0.018525860027213435
-0.00340885650254019
-0.020552719720851993
0.0028050499288548992
-0.013169056201094665
-0.03203818237260315
0.08619288350545672
0.025375743337600492
-0.018368614453133255
-0.03424192197777412
-0.023811431845992
0.027489188619788794
0.002345544643419077
0.019626005656153675
0.030933141522557665
0.011119358309703054
-0.016712751889858227
-0.02237466886492308
0.022545062029145302
-0.005014714472088936
0.004791596241090152
-0.023342063014356547
-0.018376753376230126
-0.04194277440659451
-0.04044302379738862
-0.008803549384542796
0.03687229351412916
-0.007079214032009567
-0.03770076813889072
0.0011325198897935485
-0.005271491360268908
0.02122672538414779
-0.02355842260317736
0.01195754190941142
0.09315273136787401
-0.012452094305395501
-0.007062200021530334
-0.020155939874325374
0.08378987012946217
0.09675160516545898
-0.05998270399456354
0.05920860765110684
-0.025689211093107907
-0.12823008164171243
0.03525197893187237
-0.016916533480735477
-0.013204399258985932
0.027929317842840518
0.031097748880615617
-0.026292719219349794
-0.006475205206330498
-0.02598884932784372
-0.02439711430738399
0.019067759071909746
-0.0005698989407784794
-0.029520054395446207
0.014203547070252523
0.06552150156097038
0.028824928446205315
0.035775192230770116
-0.007917775845908831
-0.021628430442122745
-0.007295227831174557
0.01454391612432659
-0.0031979251113975855
-0.01214261867220707
-0.05947299622306252
0.004771567561703814
0.005441916634500755
0.04610978906513053
0.024898557955288256
0.02571864865315163
0.06395641215349293
-0.05330760611167886
0.07834411717123284
0.02649910707766824
-0.03716676507300531
-0.005945808223046005
0.026966464807486323
-0.1720963925320096
-0.22644915326240606
0.022990913925625772
-0.020887386736872637
-0.0024354503905860336
0.05314552607268448
-0.011686397511213257
0.007994242365181863
-0.032946359697736245
-0.06729052459941554
0.011555428264191736
-0.0019613667016946277
0.06346331884937206
0.0014855953709703791
0.008771009925752951
0.050298651190279056
-0.02295824721256365
-0.013690874825265282
-0.005661680058912645
-0.014479695347198522
0.0112741199788342
0.09298477866998242
0.09276599207588974
-0.016162980765470226
0.03327847959205218
0.001779939066158334
-0.019925332868083415
0.04507701157428556
0.030955995728509128
-0.047274985712277666
-0.13751827992802132
0.0003567283667671085
-0.002146147344411948
-0.012048628058219017
0.0006984914555192254
-0.015312201995689001
-0.0055594115159553455
-0.0499670826860519
0.050625440886824885
0.1187461544351068
0.012955029056606497
0.03484478843366463
-0.008959298481629267
-0.005887277679079967
-0.05846658492120088
0.03673084300869827
0.009625621413976734
0.014207444041919922
-0.0036779309449378127
0.0012939115393043096
0.0038873222477502863
0.019499597441389325
-0.034642510948401664
-0.03079019164495239
-0.018002348338985303
0.06431371029752676
-0.02268588828614456
-0.014101259296420697
0.009545128033675142
-0.010155452674198488
-0.0042583446967093316
-0.0004299959586084863
-0.010366308575935396
-0.0032235552616447427
-0.011773629449934092
0.05988638523334703
0.0033340094057257618
-0.015686960629818187
0.10971854893845946
0.05870802828635837
-0.048448756391885416
0.0289256587785851
-0.03506734757230867
0.021453441614770148
0.043769110458649785
-0.14733832665305704
-0.0250169374663086
0.06090368017475809
-0.0020876566171803344
0.01872880575535036
-0.032579584189845336
-0.0041591338216483515
-0.028496271303427554
-0.016769213013012183
-0.07773753196810507
-0.04019364199550009
0.002476535401411358
0.04924348676085732
-0.03866970585620587
-0.07086456961501698
-0.00687357525472134
0.056532208581750024
-0.09097929022540367
-0.05325019361939535
0.012687262436827242
-0.025289424935261713
0.039857028137729705
-0.007505824288035511
0.04283768337378111
0.061343446067775156
0.025984591912943878
-0.0335160447949113
0.043187316415808794
-0.043896096982883104
-0.07588814962372097
0.06734238610745998
0.1770154720833095
0.07899271730152763
-0.04376415168082754
-0.11020049615737869
-0.043882191669995116
0.005145111331848153
-0.024695952958524153
0.062284041560015775
0.054150331191388394
-0.04966674106579758
-0.0177585727297694
0.005874855856944062
-0.006968633895651995
0.0170855346857242
-0.007057338019921191
-0.00221779349811962
0.029109455038616106
0.014408816175180842
0.006396739111579154
-0.008421606296668471
-0.03196341816575845
-0.027998108616705698
-0.009864109639139605
0.0011101596860782267
0.000760139597107593
0.014922987351701767
0.035451517178329284
0.03337046277041378
0.017235811391698073
0.0017437257690521564
0.027159986874889564
0.00834925539543041
0.039690505215624824
0.043319345818773385
-0.0803345968648394
0.005774182278560563
0.02858911997226483
0.003964432140042583
0.07936639135182304
0.0006489452729854054
0.015412715023230356
-0.0056581878271909315
0.006780024893123089
0.04081146711056084
-0.014913860174533665
-0.010177578201433363
0.04560147414295236
0.015443942295882493
-0.03558764549318951
-0.09689416999550929
0.02997884704553891
-0.04694237781253961
-0.1252549164480471
-0.07159556939387371
-0.015880461686389583
0.013074944608786295
0.02409461509382293
0.005938998430151187
-0.0013152435662388234
0.05374648384769977
0.01644520320608792
0.008646426716316111
0.007021353665380645
-0.022204832716704332
-0.09567472309163765
-0.06046035997577098
-0.029531424625835485
0.0034011999421315236
0.015207624264660127
-0.017685521885285004
0.00436595675337088
0.006061425143102232
-0.005734866441938005
-0.006858468698461249
0.015915563563899008
0.02067259563641409
0.018380557355551285
0.0015383293145542405
0.006133693862324812
-0.05277660827283548
-0.033405072180004124
-0.027119708212032963
-0.024233477244738247
-0.01194520296965109
0.06489424104812512
0.04057545442285969
0.0455008740128241
0.010476810695007678
0.02277144884355165
0.07238977477259864
0.030227533156810895
0.05987962228527235
-0.008001678310536827
-0.030702861665904725
-0.0023779620270469406
-0.019925001713652364
0.00574276692897655
0.028549674858736798
0.0010009385687911481
-0.029759696520796082
-0.05134299110544231
-0.045065050421756646
-0.010496508240918075
0.008346447438424026
0.037309449793592506
-0.01894213907908194
0.003134962934307685
0.01649765828199989
-0.03447323105186447
-0.02629699288382612
-0.01933797860384927
-0.03903932720355463
-0.014293656138350404
-0.009782004650087732
-0.011550162221682092
0.04255285337720941
0.060792139748624
-0.07452669577594502
0.1060514595151899
0.08096517487245762
0.006210801336476743
-0.0032942002425374165
-0.005709808711066896
-0.04145483686271702
-0.06155410487807613
-0.07378955904920032
0.05445484665252559
0.037866822789343495
0.019993589622955103
0.026114272436428186
-0.02067160677889962
0.03257632121151819
-0.024867849609642504
0.012470743872134454
-0.0004381204052708424
0.021929238638399576
-0.014795226518559693
-0.031494760173334954
-0.007374772780361307
0.028631582395378597
0.00497388946956919
0.14855816812511097
0.04500814473612918
-0.004840522703514312
0.021710216477224493
0.012202588404295679
-0.008495721797477127
-0.014271774839688297
0.021455360688604586
-0.017512454412736033
0.0009995969658512383
-0.05312965824056466
-0.10840728366735151
0.013563157130868307
0.011289028964833683
-0.03751322579480311
-0.08015392458731128
-0.06424731258323003
0.023861321920808344
-0.027097830896856436
-0.021177806353805798
0.015557039556858712
-0.011905931777809561
0.0370938683763959
0.05735409169416774
0.008124981472036866
0.01207172326907205
-0.0053466419150466505
0.024166903623144997
-0.0027404196076534367
-0.05671144509828261
-9.161484145151686e-05
-0.01172560770523735
-0.009450497241238283
0.027750511449326845
0.013484064557718846
-0.008877626939776074
-0.004383708707390033
-0.0791884017464664
-0.02008615479229696
0.030761737763932536
0.0011054490005563188
0.001902743518919154
-0.013035800167092817
-0.01910829302107975
0.04374065943619893
0.001506767995365931
-0.029138085220322175
0.012011406411286849
0.1016412457185144
0.0255323987040475
-0.039251794707751725
0.002782214714146017
-0.0038123300148760635
-0.0559497165524354
0.007923095360484854
0.0419999759150391
-0.014631718847784126
0.006540461518369708
-0.07204514112661911
-0.029577949421683923
0.009988298481501564
0.08018600576855983
0.10059397601667752
0.05645013813466865
-0.009993566608703479
-0.028006157729406525
0.040484042307290725
0.0663496532275225
-0.018764268104647888
0.014594375894110943
-0.019752054263909146
-0.018815518520539334
-0.019593520736811237
0.13374756708214267
-0.04012561568474139
-0.0775419029317107
0.05848247901810844
-0.02961103451756448
-0.16044963406432
0.0017427902713867136
-0.018808632448683808
-0.025700170105896623
-0.01008953409758017
0.025117429252321043
0.012523785481829449
0.011829876265858805
-0.025244023088458425
-0.005688988650208818
0.06472545179615564
-0.0921834504412625
-0.0022975089843499936
-0.02678891290245728
0.02766810013838862
0.03512908770835896
-0.01516994754853722
-0.035594217174543495
-0.003914865997642194
0.013564677890301684
0.038577118542797655
-0.0004804042945418628
0.02463350598069922
0.010932980717632514
0.013801507257330804
0.07213291539836619
0.01399896539510834
0.015833527431451565
-0.005911053142416786
0.03901163997882305
0.09394826868490926
-0.07546123266765667
-0.02792498848305338
0.005091682058468073
0.032836462608495376
0.011497788020818469
-0.016994165056398378
0.007360973268780486
-0.033507162814829856
0.01829363742281619
-0.0032606932150363224
-0.04618019165616608
-0.09565395426138736
-0.06438957112969221
-0.1041297499356768
-0.004053435157634669
-0.002995639255294538
-0.03716277816472897
0.02130691897330618
-0.003239521044201539
-0.011353919809735434
-0.023802814701006928
0.01047944297401372
-0.02291880458568976
0.027313504095469055
0.0020232046418567494
-0.006657674290561313
-0.008315861381808723
0.025089487944850473
0.012797650880624954
0.041339667952343166
0.005622062361186119
0.0316672328967485
-0.03173733000463955
-0.027639058092196394
-0.016494940917807444
0.031477039075340864
0.034077843262340736
0.03365832620736455
0.08319482585594953
-0.008079976053078777
-0.0011777258952184381
-0.004661485467774006
-0.041227512306603625
-0.0051614176022579655
0.03912968821547487
-0.012812939770088596
-0.0049509989878317884
-0.016076242706364027
0.026658125909618115
0.043757667074818374
0.05439552301454008
0.023770675481973653
-0.005415982737952708
-0.014992569328900463
-0.022348919109282755
0.00421628878716952
-0.026256909057910668
0.0384063735098295
0.0010686586900082698
-0.02508716823431079
0.057980279660946786
-0.01599873515453315
-0.03336588404403143
0.019893017185049003
0.042047833508670515
-0.1020923329271143
-0.01336267922609962
0.04366895824848815
-0.04528340199484755
0.012151380798724642
0.04647713917232886
-0.014112838301081908
-0.051905501328827285
-0.012131212827631885
0.008722594929983276
0.020118516701940526
-0.01809643356196357
0.0006393040486065133
0.012101916159731805
0.005097360770698581
-0.029708991300834615
-0.014884435370014847
-0.02244028655804049
-0.042882197742598535
-0.010736445453271343
0.0031767845720425056
-0.0417107131167183
-0.010825717394358239
-0.00019162023683671418
0.007553879946747257
-0.029354941217030934
-0.004477759722843053
-0.025301181314532347
0.00039623218245676703
0.04233545777281312
-0.018194421917345726
0.036791629541564376
0.0035410016300789953
0.021048617945716823
0.01481734664724784
0.02316396651631312
0.053406510643764185
-0.01922901627787171
0.03567575707291378
-0.03250871356901471
-0.017440152586872475
0.0028226235506045886
-0.01861325190435762
0.11391854957098928
-0.027485350734795334
-0.003693216797650492
-0.01580007454467158
-0.009785678607654507
-0.00037663560481126905
0.05142980976718102
0.0193734837880821
-0.013215211140972096
-0.018302740714068375
0.0957015200108965
0.01706511578796591
0.0015935319456765078
-0.05135112326680394
0.011732870403883515
0.08736922107653605
0.02135550600113804
0.12042714131403802
-0.006086991390809314
-0.05662856527876192
-0.03895189270751469
-0.015437060397046422
0.00976625075354929
-0.05683610485468233
-0.029676101612731147
-0.1018072777601122
0.004333924359808952
0.01435026455947505
0.006252054981047316
0.024054182749176447
-0.08472512552251105
-0.1053006304800132
0.03493354273533442
0.05136384269191321
0.0018346971279151875
0.02762347996877805
-0.014605401213483464
-0.06538189929236267
0.02374010871742929
-0.030859603105754276
-0.012367323184157118
0.05575260679675977
0.06872963251285003
-0.07955860591014861
-0.03574229372723688
0.007838621502827485
0.009810814289662914
0.04369322212541986
0.040669662395348666
-0.015346906645524162
0.014573442675049402
0.04307952917671883
0.013510476675983587
-0.0002273737509070475
-0.005342362361945316
-0.022612253461527936
0.00704167133251041
0.025912353014571617
0.013320201918379883
-0.12015823486140141
-0.049365924128253046
0.017578021935479127
0.01881465259749382
0.038679777800258865
-0.09071797869757933
-0.013986481173435109
0.04903305978551588
0.07579646452544282
0.032649823678036136
0.012481261111588591
0.031085977416435182
-0.05856400528752939
-0.012832454488179943
0.03600812627895374
-0.050069744125628646
-0.0476143045543982
0.061536304249157035
0.03638705067313419
-0.05432241082805878
-0.016857075969163682
0.02666247343870541
-0.01039509202556849
0.0005511061769875524
-0.013559205184658718
0.012991338222508435
0.06348747349271787
0.03736077216299512
-0.11191975315866041
-0.07689580472661353
0.037796350031862325
0.01780972584800075
0.034692181633649344
0.019259635887589895
-0.010797016611102087
-0.11293922211922658
-0.07116108846531044
0.05686564261749449
-0.001016420629525724
0.0006597971137684865
0.010903050015048323
-0.01740382229888616
-0.035139800102723086
0.028659783810779067
0.027750161942862072
0.01235675591361654
0.01983101021650877
-0.008853676768474022
-0.015918291642957393
-0.01896370363942113
0.02560447703649976
0.027426467754861714
-0.03819220890890371
0.004618170731379817
0.005175456622821153
0.01695315266553527
-0.017825895856528835
-0.00921901548511859
0.10530428328567863
0.013691908525214763
-0.03203678085725605
0.016786882977744274
-0.02326777421535382
-0.02423055732937603
-0.05398265430311056
-0.035475091734668535
0.026702647127069545
-0.04974054010838062
-0.03169271408085106
0.035710893475418906
0.04179042898787704
-0.024399943866394835
0.117411422490736
0.0900424544677345
-0.06492327777396761
-0.02472325194341936
-0.031290586824029874
0.03669806284718372
0.09275075331755608
-0.005457362744200316
-0.00613212997490473
0.0025225736018990377
0.008023445207812584
0.049739046109081905
-0.011903718248213818
0.008312705962006364
0.024312205542596197
0.0006347005908750423
-0.01648696957158951
-0.008238078767685855
-0.023447834143078782
-0.010574093231527037
0.00015091175759564273
-0.015541855309393253
-0.015402187686615101
0.015707789505321767
0.022334788833757037
0.010251492383551625
-0.04688393486631673
0.003085701336111609
0.03362475721422093
-0.020970582969189612
-0.013416142077940724
-0.02285166408369346
-0.010572465773314403
0.022710352048666595
-0.061127748260930724
-0.0506589683889946
0.027036966608449883
-0.030892086578650987
-0.0023502052363136967
0.05069183674799569
0.008896317867910624
-0.0606557887989
-0.013658887958657705
-0.0069178007727365804
0.0046812717297664876
-0.0007200267316183918
-0.008360483901548997
0.021038806649944237
0.04966830816199845
-0.04153755434630727
0.0003045971709191119
0.05622162029795503
-0.07266808028588279
0.008018577143508664
-0.004705005186619335
-0.01419336193124635
-0.012806712882026462
-0.0009241829658519699
0.007827400852344464
-0.03244573800376776
-0.023773803933266835
-0.005804583814678074
0.003342079901400681
0.007847506702903479
0.024449655281931743
0.04472044780002495
0.02460897287400265
-0.004963362965391116
0.00716141876174832
0.022053617930418486
0.01980843325849297
-0.017380449254857804
0.009457236375732092
0.008839031377609765
-0.007803290639694443
-0.004562214828746915
0.04188767618335119
0.02407515141121836
-0.03283157139800721
-0.012815216292377628
0.04694425216851779
0.01658698838729562
-0.04060524990113082
0.0667018610771244
0.020411677463324972
-0.0171708630649311
-0.024480720430524947
-0.02881616741346316
-0.012998540830831972
-0.026287159011794955
0.021650711691900863
-0.0653863005227021
-0.05470063096246229
0.15993795552568713
0.01431333979301201
-0.003989981595302711
-0.0038846515342231503
-0.021329010836075447
-0.021934099419798164
-0.004153161393918601
-0.012465412278474405
-0.03766188665308545
-0.013748578071637518
0.004048255699381523
-0.02479046195985247
-0.03717443654774692
0.032557739445377126
0.11019316733005875
-0.01125449910827962
0.07311146227012191
0.03860135738699675
0.0014659982064264467
-0.006816544498236843
0.05321275530858878
-0.05157450346605425
-0.13173549183373173
0.022421661013512593
0.042981305718321
0.05321559100641078
-0.005103930983392176
-0.028124374502549405
0.0014663089229961126
-0.06667374311029281
-0.05696499901311037
0.02648547995079443
-0.009107159172642536
-0.058387035377825594
-0.06869445102539466
0.00819321439244965
-0.02282865895318854
0.023593725616607667
0.008326042293068051
0.050067176682408045
0.002364431364825917
-0.0209255807001742
0.013879994263164712
-0.004743061529562689
0.0004823111997463561
0.0011179770213933424
-0.0074476208081814725
-0.027630110963394287
0.03624426184286993
0.031091643959743915
-0.010740615083595037
-0.06504583697957372
-0.013983558631093962
-0.024640643506281916
-0.0031846519643865577
0.020144131031897303
0.0019069905828995872
0.06734480789563355
0.022509225459883146
-0.012186073068199492
0.029751241833713537
0.004456262287638734
-0.010415202819290585
-0.029322100705197512
-0.016291330132515502
-0.012010985705030022
0.010709621071854927
0.025933049785840784
0.010993540823912532
-0.0023370512341930765
0.025758221896688378
0.00811680449747111
0.062131331838258114
0.0773266842852703
-0.009121027026756358
0.008841273650264601
0.09712264679593724
-0.10474360740246412
-0.15240591973757336
0.023381979664735084
-0.0008590466223973683
0.018565239562151448
-0.011981020672573416
-0.016322430512765752
9.382277328540175e-05
-0.0013156034692515027
0.05295385122252411
0.0254730833467228
0.006778335064738466
0.05388782020442529
0.023210130701382788
-0.017089536827050528
-0.053314108831498584
-0.00965788019823591
0.012435166035568034
-0.011615429885263902
-0.038656720124763295
0.020391004523170497
0.04658962338328734
0.020238479766863667
0.02083154328180182
0.017812888328362888
-0.013691208902506156
-0.05706672066423875
-0.02026650594725224
-0.00862785110131127
-0.002845620367947698
-0.012143715924644192
0.045512463115618844
-0.009152837130293858
-0.13169563226124661
0.012151847262594277
-0.007082207865827841
-0.0219444672237298
-0.009786729242922712
0.01736670605893096
0.020827036979395613
0.01878611707203471
-0.016860973280294494
0.013772510886479683
0.044112880997836126
-0.03914063738884934
-0.08315661207765912
0.03316873859014883
-0.0003770115700756716
0.000660238602073624
-0.015352105134267154
0.00018288451255647382
0.0063065219814339305
0.03840315936146229
0.01987817790887837
-0.02881424786924981
-0.028310859437403697
0.025483049373244363
0.011563795750268445
0.001667870278509195
-0.01202471176145668
0.014647632073455994
0.03140100460045854
0.0016072778333229858
-0.00635871953954386
0.020767056012176703
-0.010702115546881906
0.0018162094569796924
-0.016855736602843566
0.005306490575211719
-0.03030942628759454
-0.021341850783658314
0.05089150543756144
-0.006213357840055594
-0.021768234979721596
-0.008837825732606776
-0.017452176731696398
-0.01668791587430168
-0.007798463221982421
0.025936516760077275
0.01815185037698006
0.016268211351078872
0.2845535207400212
-0.06928514591586316
-0.0409183286399059
0.021947810618719015
-0.01958387003252682
-0.011593349761775725
-0.01604143632242979
0.05507722099811504
-0.04052551976108031
0.032410098108303115
-0.11289039010062232
-0.06106710215552969
0.0217088271110178
0.0067463095288280185
0.032845081488298074
-0.026429192274692197
-0.028775479385190563
-0.02699988829465684
-0.014422555465540821
0.013691642784633822
0.0024447517440838867
