0
-0.012182731345149996
0.0095903291276039
0.008316677171880744
0.009804474041375499
0.020819250985825998
0.0324919885999415
-0.002950542679125017
-0.019198378248403057
-0.008888907473499122
-0.0067238829699242005
0.01071431625965637
0.043999163815106296
-0.001050789797209387
0.03262748954244578
-0.017792274228452167
-0.05004062079962458
0.055194919854757114
0.030042822160409526
-0.005738324412541245
-0.013400094704534855
0.02355144993720359
0.05221460428102891
-0.001259331713431863
-0.012225262543120717
0.014884485313359664
0.029241226214231832
0.004788281169669922
0.026378695848612743
0.014175017704216702
-0.016106053488304305
0.0059299841823219545
0.009272653833227546
0.005878410703383643
0.002200959865812537
0.02873815520574354
-0.0785433594605861
-0.18238549456847103
-0.03330419736370341
0.019359591009055127
-0.07452562527876994
-0.019123304957059783
0.007715351043270321
0.029514127164775646
-0.03433628095522185
-0.054214949602423734
0.04882619193949174
-0.006464607463696798
0.018600987312161733
-0.06295000880362076
0.02035602089783422
0.037574977581878076
0.019071411563358197
0.022881136512796205
-0.01429780035966561
-0.006882025620665046
0.016644664994946233
0.0029041419687098925
-0.005737690753506298
0.12484281604335397
0.047005914120199055
-0.0063442153186074905
0.014358918234169724
0.00431257815170182
-0.005622204932789565
-0.034807831979761145
0.016653659843920036
0.01204645619210617
-0.041899490694017806
-0.03232357110143131
-0.07442193901483646
-0.03641294076887112
0.02052398305581105
-0.038962913689941786
-0.04537308970590997
-0.0035282320958140326
-0.0025018659715527873
-0.0029559278465944062
-0.002264334307128554
0.050601785417784366
-0.009404375682166578
-0.05018328463173122
-0.010186873424422318
-0.031715727005005113
-0.040917174292748035
0.11640954979019662
0.022786494748887054
0.03896427471012353
0.19989262714446787
-0.002696202768564142
-0.005385252898234956
-0.1215890773686569
-0.12610142033320598
0.12255282697874385
0.08727779586071266
-0.01355533433850892
-0.00256556215263121
0.029409963709934057
0.006199750883420665
-0.04069428734841547
0.03763263230798576
0.026934082074004755
-0.00845199929173785
-0.016255938649088825
0.01269015319374139
0.024312314457518868
-0.013070982382210451
-0.00031579692803064736
0.003043210446172042
-0.005236688746702855
-0.01845305115979672
-0.013742934166084998
-0.015723154978121143
-0.007986864241329755
0.02452510606522122
0.02261194360913134
-0.018690814027217163
-0.04677095500259913
-0.011732060908260207
-0.0151487216786947
0.015420142396491799
0.05371758211752996
0.01987074302326385
-0.0125077508706972
-0.023220906785745593
-0.03133481795799923
-0.014314939622539597
-0.0013433530615644556
0.029258906868698233
0.016365560161744803
-0.018331977536222923
0.02296090484905147
-0.0045722162039541075
-0.00712603308563968
-0.007594835242650136
0.018119881106574996
0.024327316416948068
-0.013802915630137332
-0.0528228461634604
-0.03152624782046002
0.044784882610819206
0.05691253531630867
-0.015472652022535494
-0.029322711910589005
-0.011174479802711156
-0.0274389986109018
-0.09765899190829469
-0.047763960102428
0.013418640023782515
0.013450134163210316
0.03633453994253579
0.045997568501098623
0.08315231017048048
-0.007714125136472883
-0.036975926411520275
0.021623544652206908
0.016772783516041
0.03718353689826815
-0.019229467887630105
-0.041362387484101384
0.02362847744765182
0.0030646707334358735
0.014792752064806713
-0.0020149916076772703
-0.021209496277934406
0.0032181023435336317
-0.045194181639827614
-0.03522164732823628
-0.011260100199191771
-0.031242483559118267
-0.016117654337604797
-0.017910103060840534
0.022281877940984914
-0.002159597023749755
-0.004078037239807596
-0.005254484927372798
-0.03326199989836177
-0.028815296787979564
-0.02724612935028766
-0.012025129755155864
-0.012821132058004999
-0.005985844193146425
-0.006870575387630934
0.016641772046442998
0.0047247727810446815
0.10776966339416592
-0.0337596551978594
0.007220099596957079
0.004760814379369137
0.12452089962070746
0.08341933063737007
-0.02939018698673307
-0.0026445371548944286
0.013286544240576624
0.012416787180236493
-0.020173683843855556
-0.014066410309535891
-0.034237509055910775
-0.029141521162447757
0.01015830370687667
0.020569390814217145
0.010507623966086496
0.003882565981275462
0.06902447170136329
0.04518740689820305
-0.0035536541861493965
-0.012686432060305492
-0.010215098111904757
-0.0175651208301619
-0.04696099971802049
-0.08726702663984577
-0.060178642972537506
-0.03751851429728182
0.0720475507544538
0.05514173637085596
0.00571657554929149
0.027675906359697355
0.026063118670407108
0.08116216297251566
-0.04386436242375522
-0.0109512884136136
-0.011997322917410505
0.002175363000702165
-0.0037230064602597744
-0.011033382079893414
0.024647007159487873
-0.013090941489051777
-0.022615152586406204
0.0030106012329572497
-0.0130655095296767
0.024048212498307867
-0.0025230430438830543
0.009196366237176576
-0.026458046683896255
0.015300140731053336
0.006637551720803846
0.0217775882548677
-0.04310457799924981
-0.0462247342904127
-0.025777424312905736
-0.023389666729812793
0.0613524535429401
-0.0018952011761065584
-0.04170801192298372
-0.018816642380456303
-0.007817349864034314
-0.006420506751482318
-0.0010620236176216535
-0.03557735570378588
-0.040816419752373524
0.03870797145993803
-0.009499182884331174
0.031958882750035084
-0.012924793535370826
0.0072573693793245644
0.010550919842714345
0.01608667145874528
-0.01313545169457832
-0.004294589591260961
-0.017073661948028087
0.009387821602222618
-0.061015852147725994
0.11012733399841905
0.12038654386578139
-0.05958228984049069
-0.0005378864862580689
-0.02412657541573692
0.00029505370264710726
0.01122193364582586
-0.020891524548223562
0.019311185711038417
0.1683046373505958
0.03365204169410669
-0.005743260762819703
-0.025865719408076433
-0.04295552489903915
-0.006896183568324285
-0.04520339498737454
-0.009942507632157118
-0.030247344884723602
0.027386545412909837
-0.02167989673820107
-0.017074690731821416
-0.0022375229492688077
-0.0020432020788875203
0.003061889738956631
0.07573274673922677
-0.09259472530749233
-0.06664354801300254
0.027322744402159357
0.031959289089837535
-0.011266181645657451
-0.04173524360088703
0.021737083851485674
0.004855611953161342
-0.008009665926581078
-0.015001094667880405
0.03834849400323883
-0.01307798663971987
0.009787133803412059
0.027384002668984567
0.029493109676051357
-0.010898692969372459
0.012028164073085408
0.01903662018327053
-0.01926380386869421
-0.03447199847528445
-0.03975139904672353
-0.034778369258399666
-0.010392909363599804
-0.0033099944377888674
0.16130145817579258
0.024003107961024384
-0.0022527260729144644
-0.034533660382593936
-0.011942562084642656
0.012254302313720688
0.006914956645069017
-0.013076724331295978
0.017656374981218616
0.010187085798499876
4.803754285340402e-05
-0.022496288297238504
0.0279416719663587
-0.060027643509201395
-0.011277314888849622
-0.006978552346148196
0.004689955911997117
-0.05226798520912935
-0.14693885369484105
0.026235742409148624
-0.11745626001543094
0.006816538793962661
0.1242661781040589
-0.02017328836402253
0.01388239954399027
0.10240206610706815
0.004071455645521872
-0.0185398327982826
-0.031215808809694254
0.004631420322628547
0.002132791684541818
0.019488162953729356
0.04478211154579151
0.013840778831183292
0.008200871781537816
0.05940458284078057
0.010669218114738786
-0.03044782540707618
-0.00017494691574441513
0.04694260037637937
0.016571257067255502
-0.017251008562117708
-0.011584731926980169
-0.007188961343481535
-0.00012097069986096439
-0.02303995786138621
-0.015897054586780566
-0.012789701388740646
-0.04276204644318355
-0.04655760302092934
0.03594247855375765
0.0028426223563851613
0.021941891950799965
0.03457051301665156
-0.024653242936449455
-0.015344118883163137
-0.03608783515187526
-0.08176206147661459
-0.01738157543603378
0.0072131194479009165
-0.015376229263506468
0.04017892461494816
0.024442307059702312
-0.0034682109423597547
0.04350770284532701
0.001768072388991755
-0.021390468380474755
0.02290249148089478
0.009770715930647917
0.03893726346310829
0.01926169297035014
0.028477414541833404
0.03331565426017688
-0.0040560834436285985
-0.022073922152240806
-0.007970014874465099
-0.0034326306755546702
-0.014543084648686479
0.03709203592032796
-0.025030869210817163
-0.027457726179007658
0.05911202954753967
0.04662015345936535
0.021155610590482928
0.033711173582473414
-0.025176867061083172
-0.016875310877764227
0.007174089458193484
-0.0013329099046864017
-0.06577660847159336
-0.008876180878285157
-0.005504060495431582
-0.03531193789696908
0.05133588762411078
-0.04851054448715859
-0.039591415235477954
-0.018281349749036353
-0.02472998111764331
0.0046329094663055525
-0.0023477292405262797
-0.010529809468053392
-0.02149605612864573
-0.020257116915582327
0.004991914370790945
-0.045997566851571754
-0.017016942188891226
0.0056371499296376465
0.04089063769703354
-0.04984497780675406
0.08738927789155942
0.07633130524562472
0.009845880613636292
0.004354356595179564
-0.02579808212645478
0.032109143868082154
0.022797781350855008
0.023070707934536482
-0.00414300479932165
-0.01589008541148873
-0.02465501987544714
0.00548718892890246
-0.01278684865874135
-0.0608462088302601
-0.010164576203405449
0.0013464014100974214
-0.03981045647743634
-0.0008467484045978035
0.007607246396189446
-0.11564177368485742
-0.046962948348268724
0.032836184276937054
0.11068633464959358
0.03025663016278971
-0.03262573063406711
0.08327558264560025
0.007271706108662708
-0.028704069313327453
0.13716835091175364
0.012378071402336514
-0.023578875955060342
0.0038982151150676234
0.05946505615953749
-0.00987928596024477
0.019753487239507258
0.020682352849143402
-0.0045247336152513945
-0.0010040779157637668
-0.06990027740866932
-0.05160887143525953
-0.01598052297946812
0.0626668845207424
-0.00710666188019878
-0.038646114521350895
0.015301660107700964
0.03602000307164393
-0.020948804901896188
-0.011306034978881233
-0.0005640738479255255
-0.008808971273343475
-0.019958755800394287
0.06603836662718399
-0.02224019367855727
-0.001875974404893673
0.01187894310693476
-0.014176094618026245
-0.06691810054865814
0.044651485942454175
0.03970950028970607
0.035027161708000965
-0.020009125039669926
0.005088796594624935
-0.1711626897247925
-0.022162825870700488
0.024255898980686984
-0.01843171209306439
-0.014814722416879186
-0.015996328711933162
-0.018829409943062182
0.008479257376774692
0.035275421156284875
-0.019361286947708535
-0.03376438056197552
-0.022449341498590875
-0.023998489302674123
-0.0006757001286109128
0.018035461027520273
0.007969564839517475
0.07160468191546261
0.0436056639832184
-9.56687524447455e-05
0.013512980042784561
-0.01773424320088126
0.02688005654579318
-0.0020041955498314853
0.02228885268146063
0.037473618570129236
-0.014158050898036536
0.003308680286943852
0.046033008181488075
0.0023435432369712924
0.01119204157644671
-0.017067075158142122
0.020947863485838682
-0.0071130924584459545
0.01744164418641231
0.01861353759646443
-0.014811162129937236
-0.016952804401422276
-0.016187793607899424
-0.029813056119314896
0.015547200480393281
0.028886553961566808
-0.015410738555804052
-0.00915519950875561
-0.007642620567991688
-0.0027027949300191868
0.011145530315765307
-0.07558507396506169
-0.0448711775832651
-0.011176385061118557
-0.0029764257148420696
0.020430395732797518
0.009253711908190168
0.018297767146758598
-0.04335478578473132
0.03756353534371405
0.07120439578249028
-0.03530192341207656
-0.01905914099057051
-0.08865175484427835
-0.032087749213762146
0.054841316343210954
0.006942185081875352
0.005728416880958522
-0.005781983881290415
0.017467976213196998
0.006425776837876826
0.0232003791056994
0.0315765114036636
-0.001959000650782758
0.013762219629126273
-0.0007296410051021478
-0.010056497401557792
-0.019497254613451233
-0.042930672078258535
0.005594657820971397
-0.0024451907674578974
-0.0019464299186636488
-0.017435666868149884
-0.009587881598330936
0.019799326971926826
0.0033458330335204506
0.05139536156956488
-0.017971987392118725
-0.07333889808083514
0.011427687458446033
0.014781237897489922
0.010042814951850925
0.008169265660465864
-0.026278575915388777
0.01416800670680649
-0.00976591638327654
0.1971241144656835
-0.024052311610461004
-0.14947537659023163
0.03580139088172913
0.0023384830046055374
0.06907870386768593
0.015278443159772516
0.002723885467020173
-0.020200286923027503
-0.008302691183420379
0.023174606619573462
0.029772586068767617
0.006497093398307164
0.024541787752722793
0.004922222657729401
-0.027463336353776027
-0.05633883631229275
0.021843157174327204
0.02019986347302261
0.00585306192599818
-0.017674963042542846
0.0006462079864587385
-0.040038170512342146
-0.0159086197522308
-0.030083152603192925
0.015880078551876134
0.014011322708644308
0.02648572452299695
-0.017716103093937646
-0.013243774697353113
-0.004862234684966853
-0.014639048307152328
-0.012899219392741166
-0.011758632445895166
-0.010020710990470581
-0.0299524218730228
0.015137411993693567
0.05300307993924397
-0.009131715089066949
0.002002964967372044
0.019150835228620426
0.0009800388597602206
0.026421669615618575
-0.002616066399357371
-0.010131486440743796
-0.0082365068959265
0.015384494640326303
-0.010880871900517956
0.06494348225487484
0.034799190028081135
-0.030459984390417135
-0.01629545530202103
-0.009039870011732358
0.0074434526602833355
-0.02916649338134692
-0.022428307296518877
0.02015934185759334
0.014254124203910295
-0.005710877102805434
0.013063970534310557
-0.009080071370334798
-0.008872286026074774
-0.06311898265691272
-0.004860590362198466
0.03395158425761013
0.047598757419713436
-0.008496797675068196
-0.0015275321662963593
-0.002219629736061721
0.01888187017352517
-0.027112164607775494
-0.07826250396390001
-0.042661035775498686
0.02547874356268164
-0.041045908540523056
-0.16824809390826514
-0.008371967226688556
0.022399334415909133
0.004606608782523988
0.02308436813251173
0.020735990087437546
0.03128984000352988
0.011464788749093279
0.0724478663198832
-0.03859276241047899
-0.031106818236585773
-0.011669292506832045
0.06419621892152083
0.0257915864797497
-0.039425854325130016
0.005367486191146292
-0.012116062568031431
-0.02800751745585179
0.0427094807406208
0.037679892913000626
0.03609148857483423
-0.02864110024534638
0.0946218457934518
0.03479995156775099
0.02427292210465209
0.019573720999697727
0.029344493836425827
0.036641450487709414
-0.0231150989052335
-0.011810576772091779
-0.031697572294377356
-0.0467276481947142
-0.00352195335604782
-0.013157742445950315
-0.0031825218253644385
-0.02709576671452728
-0.003021580781849137
0.0016474415313949395
-0.045128691549143014
0.0089957882452911
0.004340305393383817
-0.006604081057138044
0.009449880978921393
0.007051441268025001
-0.026343554919774196
-0.005626446944071763
0.06846046926493306
-0.00473643468361828
-0.027146688837139273
-0.008952432682366234
-0.023364916215078208
-0.03793623763802828
-0.048434185288454425
0.0471755532117387
-0.012900433849936383
-0.01170690233555096
0.008388161365808266
0.013208189339280725
0.01749911000217714
-0.01636432545316924
-0.049007936218535685
0.002005354860609264
-0.08421716318005486
0.037221589791361885
0.1630281784907791
0.05614844231665268
-0.018588625545102898
-0.0466066077663563
0.0225163024713203
0.05788212074258851
0.010336593879552426
-0.004034273051986108
0.03740111014120508
0.03945553824543614
0.044335517850341545
0.018810712895419947
-0.00826131039859849
-0.014914924403660006
-0.11771453746606815
-0.06330931584070937
0.027443271873386608
-0.02035329949583654
-0.0013185223540533545
-0.008472875633708826
0.00921075622371586
-0.013876814274820078
-0.01105253634118601
0.0035308658467985603
0.016119003957916156
-0.02319070015050595
-0.022339682074421406
0.04905149233767836
0.048652867878215225
0.011505417765191966
0.050863543896032225
0.03187010960421153
-0.007541047149420911
-0.01119840677382756
0.004707709348637236
-0.007705553818369124
0.060811367263940014
-0.037638260712750005
-0.0920361710607452
-0.03505640642445908
-0.1011864450420441
-0.026172474450255567
-0.01795342727967555
0.035704988053993345
0.027336034692596767
-0.03702818961789187
0.14328003489223756
0.18082904159240798
-0.06861768013319729
-0.0438249207065237
-0.06059869812762605
-0.09686195397621714
-0.00875153391905781
0.06076083563653949
-0.005289347672500529
-0.12168341165871546
0.023748391027711976
0.03621589759305763
0.059042821747236435
0.010027367156744467
0.11564143392831965
0.005861335194181412
-0.0687088336655872
-0.11342972192783417
0.06480685374786282
-0.1456058679220199
-0.10479875142639851
0.04808486903811677
-0.005210386052630271
0.013201083404911567
0.030992221482382638
0.08170515991907355
0.03629876575345653
0.0016496925319323863
-0.032829477643742534
-0.006761807508244839
0.01592109974042293
-0.002763303055360115
0.031243939000934688
-0.00612852677843634
0.0012438021012472441
-0.007762539229486783
0.026611380550726017
-0.053403997678240896
0.10064128733953275
0.07576457281961171
0.018946813763315157
-0.0281475190268478
-0.07076680198103354
-0.009734925384220569
-0.07014304106422778
0.021339009156136426
-0.0967902213135397
0.004539656877917107
0.027632529295765904
0.021594277241430003
-0.012962771470106967
-0.05687142313895667
-0.026027997772565478
0.0021678918880046276
0.06049339793847692
0.0671622364927721
-0.01782560250706924
0.028486271603961204
-0.008389382482831501
-0.009016326926145837
0.03700159225458633
0.043659602748953995
0.007070111546551266
-0.029590666455032243
-0.018494786186561796
-0.004763404514054519
-0.009301739932194747
-0.006872988703212635
0.008489147112759604
0.015418488761341153
0.041655230720900285
-0.0027021089110082328
-0.002771329437976615
-0.016323860299785487
-0.0026346078545130586
0.014342021773989768
0.007962801727667283
-0.0415846715576576
-0.03447638139902608
-0.0022767950446410078
0.04196717592180763
0.04629273441497711
-0.034734447706252856
0.036604725836602965
0.018139812339964534
-0.016658440122172505
0.01406493532598189
0.02093802148320244
0.0017937000344744353
-0.006104022149859451
0.002337851351728598
0.012789507833662218
0.04517423769835449
-0.06290742699839559
-0.05870233358364459
0.07460689258471638
-0.037127548979436986
0.014982246117339225
-0.01701206785303401
0.008567329629011982
-0.050866019349790396
0.05252242653125692
-0.0949710930318915
-0.14911720528432817
0.045051227581648166
0.06200219534032925
0.03888105550816531
-0.037862962867762424
-0.01853814726885907
-0.013580309766805557
-0.08428474121647449
-0.0187397000620662
0.016825383206452594
0.015534833292389114
0.03559000882254685
-0.014623990566938756
-0.010933134162111398
-0.028610730115752468
-0.06530733962745529
0.03153709714774281
0.004120588165487376
-0.06320093914792527
-0.042212739199635786
-0.033650971104832596
0.03181757309514608
0.024922952292023348
0.242376133367273
0.1515557346383058
-0.0059749810971137535
0.028007316373590718
-0.004606085950165995
0.028006998805134915
-0.012859614397686093
-0.01973973075309946
-0.022843563494205438
0.015814668289540743
-0.004084905898645123
-0.01824263354602707
-0.01015422656995092
0.07040000384639464
-0.0008458082813610101
0.0008716683904440696
-0.00925433642663892
0.0006227026485732403
0.01949894796854471
-0.014436508079258555
-0.11928475956341573
-0.017549140709756637
0.04164684293483583
-0.0045673150655534105
0.060606863629945294
0.030101971808978847
-0.021441863621038705
-0.035493893956274405
0.007395066680731573
0.026800164874113134
-0.023684563309823457
-0.0007343519314647113
-0.008140399955355048
0.0036645264068387237
0.047362350906708234
0.009797832109863049
-0.00862697382165631
-0.010552963277268361
-0.02393508792464308
0.021017443563109844
-0.05260602421482755
-0.009877402859288663
0.0051439107344660425
-0.008812031618964655
-0.022648805227236616
0.005222156288548724
0.03517553926116416
-0.02165826553853332
0.026627961493765864
0.016687041148760875
-0.044931916826783866
-0.043388177066250234
-0.036958465608731526
-0.006904577620511787
0.0029839807684764056
-0.0011575635181213296
-0.008471790666278232
0.03460855658494576
-0.0003580875114303126
0.007530751146656566
-0.0283360241415441
-0.01037041370716638
-0.04776661810074527
0.016103340223283198
-0.010994888675809644
-0.07014705055185175
0.0309706990758588
-0.017988221402900722
-0.12512322684713162
0.01988267510613899
0.10722988710199922
-0.0703520235909254
0.008514684258780896
0.06227475236997323
0.01898595458642183
-0.037831984210906715
-0.012492371770941455
-0.016326318080607756
-0.00470947921004576
0.03177638020006837
0.07126433842992881
0.03370601798832926
0.015224082514639215
0.011065798620666353
0.043292928220632736
0.05304009228013073
-0.009228599518775247
-0.02378028764612178
-0.03207683976235633
0.061899480722026015
0.009928805403056646
-0.00541545925581599
-0.008539691316796027
-0.007770234448787905
0.007911191822297005
-0.03611691260917884
-0.019182892664619765
-0.03136435339950326
-0.02876316046254171
0.02603967418505933
-0.05248202366407025
0.14760575639403173
0.020264723948857963
-0.08369424326155812
0.06452747757773405
0.06406304937884841
-0.07791638674974058
-0.02054042476842396
0.05041394402903674
0.014977591840999413
-0.028983175863025883
-0.020686583406750378
-0.009474623979026448
-0.010550651528111193
0.03212191931734514
0.03867875403805313
0.03258326265644351
-0.00395334983560854
-0.0015525229024827953
-0.0014560587422169987
-0.007889728866122792
-0.03508052185598018
-0.010175559797970128
0.012938750750236747
-0.03606574656778877
-0.01354528958727773
-0.018771828023832152
-0.07412440796345843
-0.04061904868799788
-0.010196424849073243
-0.012179916900654226
0.009067465864958959
0.024984018633701466
-0.014846428416963226
-0.04025654344789874
0.010453338966755727
-0.03782866311583546
0.15587592044410814
0.06387771346769272
-0.02920657055226268
0.008224899748597697
0.006779429529931357
0.04344301842570647
-0.006957588163943393
-0.039248521068109415
0.010064956863233896
-0.030652530177985502
-0.09585645787706448
-0.04301361089960843
0.02020778522240638
-0.022177440717131503
0.0015752640614005733
0.07538983852601909
-0.005847111135546974
-0.011974970723339706
0.0452557046428492
0.02327923056624341
-0.06985919436260556
0.020257887582991164
-0.0050663004652378996
0.021282697599967225
0.03038220669205527
-0.018628501542280206
-0.007397808241949727
-0.005582318465188504
0.03183409655296069
0.04171383956587556
-0.006237854347703733
0.13953546506516365
0.06434541378010783
-0.0017940492852763332
-0.05807027829249377
-0.031739161361786804
-0.0040516052949987925
-0.0064529597518526854
0.030296735734720737
-0.018141630063568115
-0.04528174071914457
-0.01596003753368177
0.003096750297439089
0.03227681281945555
0.001817510412752889
-0.0047251641357608344
0.0029531082967719008
-0.010306712160496884
0.020719041387088515
0.013102854793068717
-0.13615308089936637
-0.03305407659501866
0.007367834180645425
-0.023014223122908236
-0.0584764692833327
0.057542889228999194
0.03630704601430621
-0.0300381579632934
-0.015632862651445027
-0.0318076129712414
-0.0006952646837997455
0.055973340582152885
0.021252347012954274
-0.009324105884648628
-0.01658274520126611
-0.03306359852273534
-0.005099483046991089
0.0039457241305463405
0.007451327593130192
-0.023004841359520377
0.007114304985973221
-0.005590613502307569
0.03862292315015829
-0.03034556761355919
-0.02513389636046813
0.015957603044835254
0.005589328113991058
0.1815480955600786
-0.022186113280861803
-0.07005528210930498
-0.016950855675296583
-0.024201263383643208
0.008937159211852463
-0.0015989980693365826
-0.030145215590275807
0.0739676338066757
0.0016049311559230383
0.0191246403417825
-0.07987164898009501
-0.12199145332528544
0.04486012485918422
-0.05451647924274315
0.0014226125064728445
-0.04010348777762697
0.09445647178859841
0.04162344002813365
0.023232680497629426
-0.04614579315612686
-0.0035617978803948397
-0.053472043409255876
-0.029851245907416286
-0.011945155360846905
0.13856297639206858
0.11951887564264162
-0.023601070086632245
-0.00372428661114538
0.04643585363724475
0.019292246307030244
-0.030293608998694772
-0.0066662099381677295
-0.012001395315722509
-0.031604529210560554
0.007133088443889577
0.05269762256355978
0.01959555700299435
-0.05431659071111282
-0.024699525387765587
-0.018829127277141335
-0.01896784553049414
-0.008104075641339605
-0.021774071947422164
-0.03691997594719029
0.03007820575418601
-0.012297852253117476
0.14658688931843789
0.10966451959380012
-0.070283454173684
-0.013462088163051961
0.00030886870477492533
-0.020598202484704658
-0.02894611705192322
-0.03681917879630141
-0.03702638231353709
-0.023442484033168304
0.041091274159050374
0.038930135509727834
-0.03361889554103247
0.002876578964204266
0.014637044078580795
0.054435212356320345
-0.004506895864881532
-0.0027235449901788474
-0.034930983465574696
0.004506922026860609
-0.04174232896735703
0.025813051721443155
0.003933446281275968
0.11346918928519306
0.004579251055378049
-0.07082409124476581
-0.0290206208531524
-0.0014679521376562137
0.04799008048031292
0.02726511086844667
0.0035373401783386524
-0.00020176639734814132
0.005853313226441847
0.07133483689292441
-0.08909142847242019
-0.04816027106545145
-0.00624098553190913
-0.03108870807543531
-0.01697102078420956
-0.06580073365042645
-0.06250992108379005
-0.014908324947420257
-0.05436409769802229
0.004661490962236072
-0.01851778683723144
-0.025003339770760323
0.024387952800514912
0.027061085210646995
-0.028455653081533822
0.06341801514552389
0.013339489551452659
0.040991865363939256
-0.015806744316629165
-0.024537689254370106
0.01842424733541231
0.004074960295485165
-0.00020974435278141938
0.03216017478431381
-0.006599241879162046
-0.014902894365388648
-0.0006023504103685162
-0.015875007519945895
-0.042185104480999366
-0.028088553703102453
0.015393110236683466
0.19441885390085456
0.060501452462995216
-0.014488223977790177
-0.0022466869086819195
-0.0007879802944215878
-0.0007390925925520784
0.015238408062999937
0.024741150898292243
0.007986654546378457
0.03372096610167984
0.004539154245758341
0.042037995258148685
0.038761234594116505
-0.08630219036015045
-0.007963886765506035
-0.0017899000616311929
0.03902781889194334
0.01965345094363314
-0.09265359717446385
-0.04484714075268376
0.028493153641960946
-0.019753683786185083
0.05447556900724542
0.002254799623935656
-0.003418232207371985
-0.08206130602510188
-0.023387840589130432
-0.0008706487346042112
0.009337643275206408
0.04729214886204103
0.023160328280621548
-0.003296994765635065
-0.03331735210287627
0.0020604997858239622
0.015334265207368844
0.03800369218974847
-0.02075862934492534
-0.242584955470322
0.03178333581535329
0.004409268854437177
-0.007546126529663713
-0.008311394425235466
-0.04725605385317156
-0.018123157967488302
0.05471710969618957
0.035348520779412085
0.015696641721898563
0.01863163566663327
0.04627276932577886
-0.01541716784918287
0.009726739501742555
-0.03901684029175077
0.07542078721098365
0.06903074822735134
0.006364201378663415
-0.023151576972386973
0.019665350182247476
-0.14295002672332363
-0.10866092573438582
0.053069826639547006
-0.01201693537326532
0.042191901848841334
0.0169077640104507
0.006319972787265954
0.05059938843808138
0.04123580945948798
-0.00839875937005526
-0.0017024415370330368
-0.009483503720090481
-0.0051765961303542945
-0.07228713101548484
-0.007088514108744855
0.048864450732547755
-0.0095732527293201
0.059045030003768366
-0.09156780354034978
-0.056973847385934376
0.07282310917991512
0.015148811539971222
-0.012247893844095388
-0.004108734079993783
-0.020325776090260796
-0.04211923861906404
-0.015130732903743652
-0.04019638119705839
0.03352805133209043
0.049194668199690574
0.034509737327930404
0.023835428614738044
0.03219185478010967
0.013998253936126746
0.027201772318770526
0.011210891343075692
-0.007741448563523583
-0.014764426792982357
-0.024877002371013115
0.007766087537001381
0.010598820711245288
0.06612279181696717
0.12434417264828858
-0.021291267601834675
0.011592171032218
0.0023509144919078057
-0.005918893593409896
0.005213395547107537
-0.018056738656085418
0.02648659102448949
-0.10996292869930963
-0.07291736332281862
-0.019665132389568202
-0.0508619966612408
-0.006678945166899176
-0.03191123721918598
-0.01937484159881492
0.036931187376462817
0.0194304332339236
-0.018075709562810592
-0.013440095461232045
0.0022787363621649516
0.02689098822842163
0.03622321651571745
-0.004357242848251159
-0.03881901371646069
-0.0058640630772015135
-0.0020813386711606534
-0.009196336360412227
-0.05254106041282229
-0.007004897876920216
-0.0009047190634289549
-0.014127214132744325
0.0003376048890381894
-0.04032230517840323
-0.01832753028822466
0.007012118464321786
0.010648185762813142
0.13339452406606628
0.03893621797436258
0.0638559019756736
-0.0007592643390662036
-0.01575580344796295
-0.04278604779517856
0.03223036330698802
0.21305515234864428
0.005391328789190092
-0.022740897762436645
0.01400957072095211
0.006827350363497007
-0.012619880375700271
-0.04559920956368732
-0.011212950431580179
-0.012177499076335004
-0.10438796290788434
-0.05688489933567023
-0.021470440446437814
-0.007215867074872301
-0.018916344676068106
-0.06588496182273273
-0.051718152235887556
-0.028374464511908955
-0.04147289926761994
-0.08385449753491368
-0.003505222190071977
-0.017420687734075818
-0.024542095530130703
0.0004398749653667512
-0.008235355815838686
0.06402117904423658
0.01577573577449429
-0.026813271905266556
0.007086782665925438
-0.027811229341856012
0.11700882086616614
0.08324492990818157
0.07248976888590411
0.0022946490920753965
-0.024353224808741806
0.03779470689993174
0.09439233385739114
0.019381307978691253
-0.04860600996352946
0.10382094224861683
0.052573347533985945
-0.07970018885392634
0.04611387344999429
-0.07476448407192772
0.019871711149741133
0.13030942358546807
0.041049761151948874
0.07580764351419686
-0.011449261676300488
-0.047957681593298405
0.03292776079500042
0.019578464362476296
-0.05884112366840901
-0.10272984825629189
0.08831221448789481
0.12764838149879576
-0.06306224502393017
0.005536611100087823
-0.017031882814243025
-0.014212589866585513
-0.07175792271374289
-0.18933866281052425
0.013587108427215762
0.01016857600944035
-0.012685852961960356
-0.025603385415856397
0.06114378580097893
0.03317045602324356
0.0003789701305704963
-0.06495624687397208
-0.029898777484488607
0.019530669698159222
-0.005978891130690852
0.050461557677880915
-0.03536782452276039
-0.020052798486963064
0.0662389520071648
0.006393651526359581
-0.04851673835403189
0.02770921547368619
-0.005977684245132461
-0.029377724643594016
0.014719963213887322
0.045806726574322394
0.044192123373818296
-0.031671610075562275
-0.0037689494273309273
-0.002232004406475752
0.0009921373026989238
-0.006159259659281259
0.034614083006108645
-0.19366541775097804
-0.28077348849249634
0.052071035895982665
0.014299422972835643
-0.009986202536652318
-0.035240925385782176
0.03284664803458035
-0.009333061769787808
0.001142050587615657
0.062070709212244356
0.040201496075310345
0.017553094072363107
0.043218671169868404
-0.06751973776005155
-0.06850375916767827
0.04403907427817952
0.04870770281711157
0.004047378865516438
0.017611835825091876
0.01045938350621264
-0.001432304629669663
0.005476604902473644
-0.03857403423674263
0.0153176148834786
-0.014784882226707262
0.020499040906810824
0.02630302214901705
-0.0016163178929319332
0.039720316291874544
0.045597231887296974
0.011167106502765362
-0.0039646100660243495
0.022978421182272384
0.010998348611360738
0.004465047021682129
0.015522402334691383
-0.012536985553176727
-0.013325112817190404
0.0025331069190141745
0.04279091294659513
0.029884052324626223
0.007506758526822443
0.0168156284242345
-0.002145629411002356
-0.011804684147828133
0.010418905859541673
0.0495924351798924
0.0032784452913762296
-0.02045169786591381
0.008717102259908552
-0.01953606056152358
-0.024516867554130493
0.00014473629810378782
-0.003762317646886165
0.04443213147762786
0.0060537247235810015
-0.038376165530881474
0.005765345398771732
-0.02176025608255994
