0
0.04823600883299555
0.044443462351579505
-0.032968604939680714
-0.03026410830845212
0.024139460504540272
0.03810536473085465
-0.02122274859860745
-0.03349744426307961
-0.0029793203493243634
0.020490175062438762
-0.015274255260276573
-0.005349573693684883
0.00977243781400421
0.03542949955937184
0.020757036498162053
0.06437258799972052
0.038212009614659086
0.0025855321147190734
-0.03695730247260625
-0.013184801143403957
-0.04474206277984607
0.009291893260628894
-0.014647522431269776
0.03143139782181319
0.0010708334186182056
0.012732453898290969
0.0270649391629037
0.06870415742053627
0.11373366151834166
-0.03664894636743889
-0.027463743151748207
-0.03389580374310035
-0.022464101692894787
-0.011132027190268533
-0.002481025077747809
0.04645240697822221
0.03757672505084807
0.005012268543131983
0.018389898909638915
-0.0019126158765390368
-0.009679942252021657
0.007955952828743602
0.009519695248175877
0.002382485093211441
-0.02733580262297
-0.0241008683560641
-0.21221069042957133
-0.03723475233569392
-0.0015664611948843314
0.01196052393374707
-0.01021689706333174
0.011742766155873191
0.0274049558658283
0.010724015523823812
0.04862373038885809
-0.016698599941568464
-0.04527533904827778
0.004402558371391796
0.0028231601582671723
-0.033905735400077935
-0.01876021415475579
0.01441952066110786
0.008039082561730672
-0.0071817752751628
-0.018033804150378124
0.06023874813113335
0.04877659907724376
-0.01823777078526081
0.015135395855248411
-0.02120934828434566
0.018013501661310237
0.016393989438107697
0.01731377165227845
-0.01175841587648474
0.003428810527536811
0.01838903416362419
0.03393848233857461
-0.035064601170830656
0.007909059637206265
-0.026654727184838585
-0.03638244522631216
0.03318052462906833
-0.0002323024675281892
0.014808202602154003
0.03074702840030285
-0.011901447350506092
0.007090685920812272
0.01457377531039565
-0.1491791551468063
-0.019474412428300107
0.01715311667296982
0.0398246581068998
0.04055261127913998
0.05731275693443942
-0.002937070720695486
-0.03893839034137686
-0.07721534199640967
0.15987134785475637
0.12716846922589534
-0.036931774512004224
-0.03270680337625928
-0.04606528658641263
-0.003638736388681516
-0.010912968616120086
-0.012386117017945784
-0.009444728452054747
0.007704611692252545
8.862676478867609e-05
-0.010816830909969379
-0.014440777216402969
-0.019255401766374577
0.02220918780690084
0.002492791972924894
0.0020894002576713777
0.007792923182645164
0.0374425745672959
-0.01243984132395627
-0.0047072069386363624
-0.13919559428461858
-0.0534203246372772
0.011986920713237008
0.030211904490022614
-0.018398414553923024
-0.04672884376868497
0.05433973599742886
-0.0022659725349446743
0.012349524287711284
0.03599307306034116
0.013624884064123231
0.02554812445264621
0.0004041516928795047
-0.030455139001253836
0.014681286760452411
0.016339723366797523
-0.024576305757890233
-0.04722644538600443
-0.033877759372441925
0.07150612565532499
0.023831056947022127
0.009031056983882303
-0.01714402997818014
-0.05904115814806331
0.019775197992196302
0.046664457348352874
0.005323728587030946
0.010659204851932237
0.05329082630849214
-0.030530067510152532
-0.040647177393302265
0.0029970462396911256
-0.028496398011623493
0.02682337871037124
0.008143901216225734
0.00814973680064748
0.020501857718750686
-0.03468108739800852
-0.0028185602227787667
0.014074797384052321
0.013433951324918519
0.003412104189838485
-0.015541974963803754
0.02672641651012677
0.006849565321641639
0.006183679322487072
0.013732382766368704
-0.018636620560995628
-0.01569237888969068
-0.004134021101628458
-0.002509064064850219
0.008081133645040057
0.03310135589617232
-0.020548394448309897
-0.002552969639330777
-0.008322944655690837
-0.06604007154936799
0.020089853547701007
0.002719928252990572
0.025751310627034226
-0.021908901049268882
-0.002014837200003239
-0.059949721881962056
0.004530974675760925
0.05872036512265415
0.014740587001497642
0.0005241484227958397
0.03811035358997022
-0.012943696406412108
-0.0033592881344647273
-0.03255658808879569
-0.010322926684636614
0.020962402632765068
0.01921519969108142
0.02904725177622031
0.02687580156571842
-0.01926979296044941
0.05053371988203608
0.05290381227933273
0.15786965737788825
-0.04827195314031278
-0.06632667811866845
0.032540234443853885
-0.037072030028842906
-0.05630246733324362
-0.012743446575283342
0.02737002166623461
-0.009133832004235603
-0.019760745848914997
0.010657017306137034
0.011626081474481154
-0.02626527337049902
-0.10745927367409436
-0.1347212346220699
-0.06686105683075508
0.012578169426201807
-0.027841630089829667
0.04532516318078585
0.03456189208654397
-0.02608755837849785
-0.01690608931023239
-0.03074897494230156
0.006615982596691383
0.022555701646166486
-0.0404205377662149
0.018049333449444992
0.04503480112649868
0.07438406223755158
0.025567008160643875
-0.0189566314079302
-0.023909820079158317
-0.08909030546121019
-0.04421937660156268
0.04332954656184705
-0.006587038583698367
-0.012627724847575952
0.02355591030739935
0.0119739863917135
0.025693058820705966
-0.008755822215667371
0.04021361815601477
-0.007167273666157089
-0.014978854278476504
0.14843363748965305
0.1255591624021745
0.00689226317259028
0.004286696610580376
-0.021400332567201075
0.005380459089052425
-0.00927925073187039
0.005993604677361402
-0.045069789853939425
0.05471889553243107
0.06609271218325836
-0.0245152778093226
-0.028500290299533722
0.006833106285055337
-0.004665119486406954
-0.05895579983823739
0.021730800898431653
0.03824903741514859
-0.010888588429648818
-0.017779266482559817
-0.00324214443561142
-0.010913966158907577
-0.0407207954829368
-0.001826328588727599
0.023826796963022128
0.05741737274579272
0.02890845754781415
-0.05433379154390585
-0.10473302084773398
-0.08712387527779022
0.013433911356175058
0.005986598394319818
-0.022888862968267733
0.010656627076321716
0.02550998953058247
0.017116788226258395
0.00989182028716997
-0.017955025770993963
-0.02649822364904458
0.015954303397570993
-0.051170815047791335
-0.03839099301813449
0.013498007506616505
0.021235282534665625
-0.014349242601702157
-0.023009076367433903
0.002014735570269084
0.05430963612732224
0.023672478458374537
-0.024777050711666023
-0.06194333055239748
0.011126757185658809
0.0376906213629848
-0.04475129852114725
-0.018551463829980065
-0.03084399281960943
0.049769718491602985
0.039612479832254154
-0.017534532622309033
-0.013876520594374853
0.07169219839215406
0.027152986314704544
-0.053079744886137155
-0.0518391190444973
-0.02392079926658708
0.062059205513203285
-0.016952424219726606
0.07616020242349955
0.03999515944825322
0.012010749455975734
0.0040814446476904725
-0.01434498621123446
-0.0011125575056130587
0.018283109226887476
-0.006809608087261243
-0.027082072771791324
0.023613729424887334
-0.02865044946892219
0.012749738756452009
0.021202878399941033
0.020317078835834227
0.103394743237203
-0.003524159182173172
-0.04250363294261647
-0.040201402203947745
-0.024113026595237667
-0.0037506928239023915
-0.02808756859570809
-0.03585620052422808
-0.008735485439942759
-0.03044134016212417
0.017295721950338495
-0.003466966155177547
0.033464600796812204
-0.013177812314082264
0.0007849197373008437
-0.007961511325436184
0.022752622643414697
0.0777734692467254
0.06614362378393977
-0.04138622389723468
-0.05133961271844133
-0.005505383544922676
-0.01949385319378307
-0.025634869086967712
0.0069545952257310355
0.032963421543731296
-0.0022906034201353146
-0.010186194246971592
-0.017084280667729188
-0.015622787673025924
0.10451981666122398
-0.006499371264928937
-0.01870817759458866
-0.00795759671030449
0.02976722195701002
-0.0008001466903111873
-0.08183178709342526
-0.16364240466755106
0.152120789510235
0.03954460614423329
-0.03685287439626357
0.03209645011214108
0.024127225435855507
-0.050817512931382015
0.028605559555174166
-0.006428286417391855
-0.031081912312876454
0.0001939639418005651
0.017056041672310337
0.012842953606461397
-0.005805097112901456
-0.002596278813192296
-0.00621267898901616
-0.0032875884323311294
-0.022572011287926522
0.013845195157442978
0.013110000973896368
-0.04239104172637532
-0.07650768418672277
-0.002376366890380373
-0.044477124598037765
0.024177090045841166
0.016001089850887253
-0.004307965498743211
0.020424983779574014
0.054981565001269425
0.01756575124044363
0.02651677423818764
0.00941869529059878
-0.018887749934669518
0.027851322129803395
0.01686658885382388
0.05631121908464845
0.03712214851671931
0.006950782837089795
-0.03369102904923574
-0.007022916370378577
-0.016721928997038234
-0.039284110957602515
0.029559060797488143
-0.02776415595044548
-0.0049540146897998375
0.01581456266128987
0.02070381808436756
0.0025847934179227395
0.0003254604936564545
-0.06585183007882528
-0.02111022601697335
0.04655980078069233
0.018496929480945654
-0.0059544303433324485
-0.007785574651209438
0.0273188204874827
0.004912170623060617
-0.03147302632458853
-0.002474509474512137
0.00488162110043997
0.005503657050442694
-0.010793102383788448
0.01721570591091034
0.0069655452648039315
-0.0023182822247106833
-0.002308133938751854
0.02408936424926832
0.059995894113561536
0.08659429747258604
-0.14966840513038993
-0.13833163180563068
0.019662631380349672
-0.020788678020738968
-0.002199310984528358
-0.004898972201033746
-7.25869674801837e-05
-0.014240000555324669
-0.009488407542748392
0.023397676679596517
-0.00211121243760483
0.003278407890602225
-0.03776527828983143
-0.03415213160018899
0.042915454257317784
-0.03428591906995091
-0.02820933450861163
0.025809617202953657
0.0750552118150072
0.03601575188354903
-0.0028634396529150018
-0.013498972798482608
-0.02499962190386768
-0.028983982221073595
0.014852305408740975
-0.02194494662083143
0.015939497554904477
0.020910266849074943
-0.04206200707574099
-0.03039140974526484
0.030690390847405276
0.016194012753062186
0.13865459320466963
0.05639168414162285
-0.031848392045059536
-0.008899621481816599
-0.0022273992303466095
0.020417618589043826
-0.024473846088560465
-0.011993888965916783
-0.049079953835421304
0.01597359144878768
-0.006489557283660747
-0.08310661003359733
0.025302693155150928
0.012313263281097421
-0.024031384934167697
-0.0338229306821184
0.0009409816806301019
0.06591609416667753
0.0014770118395085229
-0.055378784811127464
0.019513248519759174
0.08527645088980278
-0.028162859084361176
-0.0027929873399816793
-0.0025871798257204705
-0.008260698842643409
0.04656252276649474
0.015525111473789242
0.05462746064709196
0.08396279471114686
-0.0037525475506292143
-0.01508742844622239
-0.023571405632073113
0.051907436788253575
-0.005396802248552322
-0.1017934161329333
0.0010939704101988446
0.00015959060185757946
-0.011180735721070032
-0.05874414170845995
0.003732657582840259
0.016322678276250568
0.0367733289466893
-0.0131801807267879
0.03707098402900272
0.021424367333979812
0.01209216175529037
-0.0068907286512427945
0.08057256010561684
-0.1071832501398985
-0.08188140282446689
0.013547475303513313
0.0018445976732174973
-0.045958014918759234
-0.05361831959523493
0.003480655709447483
-0.021863586936487586
-0.05158182082730737
-0.04985570828564118
0.009463505831075981
-0.0055164414789746685
-0.015494048605193786
0.016058807043998456
0.023527214725815485
-0.009660215634978373
-0.005089976366272428
0.012722548131604672
-0.06212570743464605
0.0005526316255752531
-0.02712763920271229
0.12688780897019386
0.14418780292335115
0.006802836884319924
0.03805574282053527
-0.01761215093262636
0.026303579730295137
-0.0018463253417703388
0.0021845140055234643
0.008460798744532965
0.047604148174789924
-0.013162312528763069
-0.032659031195490504
-0.006709570412173447
0.011322538942867694
-0.00046726749470411654
-0.05652844903879913
0.01920275033193253
-0.01770496193839712
-0.031237215800706482
0.015782907993516174
0.01936333711425009
0.05060967214747839
0.015112153531608604
0.013837180298095842
0.002806647517993594
0.039726296856141007
0.02579888364751393
0.0014770527991097924
0.00674403639523181
0.005656688261411571
0.002295418975751768
0.013129406510686531
-0.03506194438064816
-0.005713599578286225
0.03096525623248104
-0.027620588175829387
-0.01408525924169958
-0.1603361065661883
-0.0038971339890400882
0.036379885170126476
-0.05251909773181832
0.04320714764354614
-0.012202589963950537
-0.047697554711713566
0.02938956053125354
-0.010340188147851564
0.016869746342945035
-0.013604791108189178
-0.037967617573631776
-0.012538477829358624
-0.03347670366583821
-0.063982608139421
0.0012102517398629798
-0.002242395645268921
-0.028347419562574635
-0.03442186102719781
-0.05623166605156026
0.03272388372277981
0.020676178742792536
-0.011335343333749887
-0.0006290898847369357
0.047412172647576134
-0.003251940121697931
0.05462500759790238
-0.043402872145662505
-0.09000355217357707
0.043295278260798035
0.013700161574517604
0.012379911573945681
0.08922570841711315
0.037061816602402264
0.014651589309222293
0.0500347649173165
0.006740755484471068
0.03626840082336589
0.020220210570709413
0.012801846450553316
-0.0003466015507350482
-0.014481869698632367
-0.004167292531984095
0.05554177225656353
0.01778508436548224
0.00872262525142813
0.010172907284898655
-0.036804000062426886
-0.03721680262222311
0.0017017009555789797
0.01744280470995984
0.025622507828008692
-0.0016438691079392245
0.06343339563207648
0.00468170701172522
-0.10521041685029715
0.016135172508092033
0.027737948240156456
-0.01900942025477496
-0.009709615714013893
0.04024623092201814
0.03955918145751711
-0.05313053212996679
0.015837105273474816
-0.01654909954559034
-0.0141723974224876
-0.018650681342740946
0.04233117828193558
-0.11379320779599604
-0.12873628902048284
-0.03459905431926827
-0.018578464503176413
-0.0110657440438431
-0.000751392750166576
0.06087211918975733
0.013562083567888064
0.014613893509611278
0.04639814926371889
-0.03310263174267828
0.028571840151231976
0.058080048210301306
0.033125561637937104
0.02651625650008588
0.01467524941475437
-0.01135489068352912
-0.011546725005197645
0.06138893957303355
0.03724786533180937
0.021534915633583875
0.010626841882956097
0.014973083673559684
0.014345274314208598
0.07697484431287151
0.021891896728114115
0.033727936557574355
-7.186366206337443e-05
-0.19511079587040323
-0.04825426403399501
-0.017693689140528792
0.015004528818364305
0.021800506699679194
-0.17497357245211692
-0.006147279490638074
0.02883530565278597
0.02802312602549671
0.002021468686298932
0.0018412176848540645
-0.09575065582421917
0.0007132110906600265
-0.017651065548301422
-0.016448432947273845
0.00048460169523679357
0.016439723142391987
-0.020662233995711668
-0.02378062229617316
-0.002845211283494023
0.00859303270138834
-0.023615121113499025
-0.08811398926288036
-0.07500253702996892
0.08174924841722621
0.013248615693754963
0.05579654630308644
-0.012292573287816673
0.0006619864121697649
0.030765898648212567
0.0027019414805939967
0.028293566349618406
0.02944144646143715
0.05074373431437701
0.11648388410778021
0.05293143882920583
-0.014796875098209473
-0.026158137943937766
0.05445559290539221
0.024364815511595243
-0.01581459990969856
-0.023222116398410445
0.009293483954733445
0.00025082816704315213
-0.026412985966004318
0.0011077489262223631
-0.007887642943771169
0.017214175649511387
-0.004914700459945827
0.008526895133344651
-0.002073305959846195
-0.021071274827921278
0.0011859634384313443
0.007421129843339821
0.03835921869125054
0.01717107777592716
-0.027684466512802496
-0.025135798359654557
-0.021671225922466137
-0.02362383612326778
-0.012631419181532199
-0.046128712281884074
-0.05480838839143674
-0.004203825508597191
-0.010464925743506336
-0.04432065829458404
-0.03977897038490889
-0.01399487997396877
0.0010652019754640442
-0.01598390852237208
0.00814321618699753
0.05177728459127571
0.05852539352924469
0.051274316741929546
0.021196517541153554
0.004673295405039332
-0.0087348589894232
0.00659555635070812
0.0030510489537342654
0.011557601414013456
0.031366605972652256
0.0009033106549934576
-0.015158256141002751
-0.00142320888817225
0.0027433694872843225
-0.04839702698145758
0.0178764887162628
0.019425621198437538
0.0034081808602683867
-0.03170218565583845
0.02262339711775506
-0.006681689947043031
-0.046135751742962396
-0.04820554648394931
0.18821818385055877
-0.06546848493227458
-0.03148630972375443
0.05614724180649087
-0.04030897615867019
-0.02233270362033687
0.002908317973973057
-0.05948519427497747
0.03986735636760277
0.11537874227820387
-0.09361207012469933
-0.05440578435536697
0.03583470578428784
0.02427796382719579
-0.010818008511856466
0.01737621053639238
-0.0027180497640677363
-0.05982550183635936
-0.017601082844839668
0.017100569504934517
0.01959814090787724
0.008191499082201082
-0.026863436397952387
0.0020370837806054243
-0.00018575598342415378
0.04155853590421136
-0.022799788461383735
-0.09739220811279709
-0.011696266215701969
-0.009041980205413877
0.006283058259893415
0.02308649769157738
0.13359595470786964
0.012437862954329266
-0.0025789254941143026
-0.017012280195500582
0.025541989251696946
0.10469690355513514
-0.004007895007799843
-0.014804101636096242
0.052175429579597955
0.06348420809008423
0.019103405303576966
0.02067663823371972
-0.02827018574727132
-0.00024221398766786876
-0.07081010486731722
-0.09754174586359116
0.07920647453289242
0.0069681074491942845
-0.03645930570909051
-0.05676102866589762
0.010017727770701403
0.0023720408182331862
0.01947804959451167
-0.035137975522642584
0.004855665210555466
-0.15305195723543785
-0.13920827064351507
0.024746840578388423
-0.02373160842387986
0.044649244322696124
0.04175879140858744
0.010977813604823184
-0.016170414697959844
0.010843297790838995
-0.030777345113131398
0.02261841406043656
0.010540164051670253
0.010431953193421417
0.04347728872979796
0.01510044918490896
-0.013861781405429246
-0.0028534330313768922
0.011167183966074025
-0.039538585636169576
-0.03518674749873109
0.000321687528628374
0.009676300102317636
0.021009883147493247
-0.024208866887667078
-0.08818644969631885
0.16900672699717112
0.019866095151632564
0.016631960780053523
0.03676502098681233
0.05391613262658266
-0.006587455991252539
0.07469411779558513
-0.009944986950274109
-0.09378770691388896
0.05105895740709044
-0.023682144749919847
0.014884720335140232
0.027773464800842147
0.04107492050561209
-0.0511970242391349
-0.03625245520533673
-0.014216051928878166
0.053545658183443715
0.0028553590816686233
0.035633924393461434
0.022396279743064417
-0.03698900530482419
0.0026251129433131834
-0.04409652394541995
0.012823749504072121
0.00010713460239257801
-0.004341320745144033
-0.05247139372444914
-0.005563204778979406
-0.0020732006623400525
0.012868685546606194
-0.004972554116872014
-0.016846803200350015
-0.02218538188357927
-0.013684502910025995
0.0166635183903164
0.02404318202398838
-0.0777742757508802
0.00983265923827809
-0.08214799079805377
-0.0507911563937318
0.005922445881395741
-0.016705326395740024
0.025447795652718496
0.052427435690378624
0.013997362792862938
0.01891344580270832
0.007816093216224547
-0.011349703026114188
-0.0006712615523476219
0.05032310980873063
0.012516724359913096
-0.0197464780507454
0.0012213959940066705
0.007095510172364172
-0.016640145399073873
-0.0036843833920019078
-0.011340808113379867
0.0081508519441834
-0.07316222788449143
-0.07255489911413554
0.023124084081570333
-0.0036761801313374078
0.018308854460517707
-0.022809642688558736
0.00222382796386538
-0.006471983881790708
0.060603646631053575
0.02354557239998855
0.03138950101339078
-0.02731605920629251
0.07243365187791906
-0.06621183461709919
-0.03545725849703703
0.022616135360021435
-0.007159049359153528
0.033669056647091876
0.004473377146576293
-0.010413491782526365
0.007810597518562316
0.0014457593838578548
0.00010149546350926163
-0.059478834850852175
-0.010758988410174426
-0.008220535927825538
0.04196513854646249
0.15413537270650954
0.04626428613174945
-0.03517913308778128
-0.021576223272451893
0.015791293636153076
0.14843233706448597
0.03979999689165176
0.01775024718539904
-0.0064383854076584535
-0.035315777820912615
0.003254865902867931
-0.02017418991199447
0.05578862343044318
-0.006489756391669738
-0.00472111902091217
-0.003557197423065594
-0.013306871063324411
-0.04205593206487997
-0.0826537717404089
-0.053400982935758026
-0.04360138540857958
0.002871079924378956
0.03266522282176458
0.046286902888161806
0.002581795812892712
0.002662136783718706
-0.006900002847038297
0.0018908809340460648
0.009172742331582447
-0.03321317145823714
-0.03875175896507268
-0.019859938539125373
-0.035156223371281534
-0.03425391577350211
0.002910331170039414
-0.007177037898079649
-0.02359488356066596
0.0002640436215858208
-0.006896234225521692
0.017334168120858116
0.08039506384896453
0.01932766229823763
0.003560473792495413
-0.002286534033494301
0.010268403232226723
-0.007896559472257475
-0.014049992615040002
-0.033999971736175104
0.027101086959293284
0.01319874727000353
-0.020980508808783112
-0.00639414988509577
0.06429073599217713
0.022952617931503837
0.00834429906484096
-0.09034363522274201
-0.08703112712741978
0.06013394911066828
-0.02017634557652532
-0.018912292251565686
0.012230243350144526
-0.04164904379048349
-0.06610176517290686
-0.02150144307143922
0.05039558409825733
0.02185221859526698
-0.052566308331835496
-0.004373619547211172
-0.04381290950311316
0.02133669632771146
0.0041528993440088985
-0.0403807614900801
0.023057352449624337
0.1223645794185906
0.0370383103029055
-0.006826515853279796
-0.03331239696955068
0.022865029888368665
-0.014345738985520738
0.03100072681340988
0.02503196355612206
-0.025838406237017622
-0.009018255334670162
0.007445003260761724
0.005537598377015815
0.011538337701292423
-0.015834777906158618
0.03091151011666002
0.05296882216205236
0.004976289732129697
-0.012849191440549497
-0.009100742619236303
-0.03966925041295988
-0.03135548060734907
-0.0448313869104969
0.0666917517075508
0.016472551338072936
-0.007127638422948661
-0.007158685349595366
-0.011458885255892011
0.1787202997671731
0.09335077751892522
-0.035109513651979715
-0.05476303486007597
0.010189976225452377
-0.008478106878715091
-0.04275203456801181
-0.048260778544019514
-0.0068432746846979
1.8278783036779247e-05
0.08220099912047371
-0.007726739524665017
0.03816437663330807
-0.02872302990575314
-0.06661699317785345
-0.0413527339175178
0.0029448157355838125
-0.026953053692527727
-0.0684738216513334
0.028936205147407093
-0.009711731223435643
-0.009579682471121469
0.01697525605194437
-0.0547454000575239
0.003077358219090333
-0.0039197570413684255
-0.014361215806725393
0.014494808176082698
-0.0022821437830473903
-0.03288022898354638
-0.018703095429905416
0.03059248286808831
-0.021087109026926693
-0.008233521982916044
-0.007973538266965867
0.01556463402058661
0.02125162871319058
-0.03756916440169375
0.019399368340389616
0.07184776280232603
0.013752767254321006
0.017616105173723647
0.19251093906724048
0.05179034144276815
-0.03630725409190027
0.04715608823979071
0.008042292375965411
0.0007177819553348284
-0.006557069935734892
-0.027971475473672222
0.0245792422322074
-0.003188274370268007
0.04554049955596671
-0.016717333197205975
-0.06629534126837265
0.04365037578541689
-0.03443848114745119
0.02751818337980004
-0.013050651972926259
-0.034000876559180965
-0.01249375453294368
0.0011899518100739522
0.028528972777858617
-0.07838310959928481
0.006102044261686416
0.012997012802870796
-0.04589290231838019
-0.044783903982955134
-0.07960057823597409
-0.020748431582507262
0.0029064222976232577
-0.006386705488181234
-0.02650303260908398
0.004615634435717425
-0.016636029933536634
-0.01380316789631143
-0.004513479555641133
0.02586302947920462
-0.015453028851035977
-0.005625447808288661
-0.0008699261333931583
-0.011741836338229523
0.0015064820221064165
0.03373729330999926
0.032063961278468216
0.0121348164794692
-0.020715468024462433
-0.03170931609328775
-0.020094162881240437
-0.017691385391562633
0.009663989719140642
-0.09795622681740497
-0.038386709455947216
0.08111218101096848
0.038763866113782054
0.004760981669213674
-0.057739249492805914
0.02974042485048833
-0.007653151993416763
-0.01554628542786275
0.0029246519681832514
0.07761770542025223
0.0381506692661924
-0.01795071372183812
-0.0192469069002174
0.01823629926568398
0.020124268261040905
0.0018955365296123234
0.03398788674327264
0.0247254350096341
0.13664599798812715
0.003302794435477508
-0.0390056802769972
0.05033710251042138
-0.0016015549327358174
-0.03027753487468358
-0.03986869434777434
0.01610562379059942
0.02989255227922163
0.0032772716674875366
0.015448983309030932
0.008259631816796526
0.004487659505828417
0.01253502206519967
-0.042414857512898425
-0.000770613055475592
-0.020113458458697248
0.002848828394462026
0.02302887703060462
-0.032693194671502876
-0.016054626936995598
0.00015389076718736017
-0.05499767028172121
-0.004951835390573056
-0.011719402481155836
-0.00899789387701914
0.03603070898256182
0.0020811231753631583
0.03947680749703175
0.036351814847144864
-0.01469770126909983
0.0003748271080649194
-0.038149448757532595
-0.006674633178909317
0.02438825651522389
0.03794367007352742
0.008590621417213035
-0.04428327683705089
-0.008550871433079484
-0.045803007834348
-0.02484149594364096
0.016644612602337416
0.004780459951220245
-0.036698755249999826
0.00837390035335379
0.060238768579580194
-0.08841090612658838
-0.014826665648908435
-0.011052451244356335
-0.010503898071252803
0.04563208021203514
0.0028297495861325664
-0.030929164777863234
-0.00874165879099796
-0.008581114688081943
0.00757603853716937
-0.03112247355866002
-0.010305085942566027
0.04538477752242963
0.0053363024361136446
-0.026094496129508746
0.06489586979345391
0.031027178427882447
0.018175747395802584
0.026670632341009533
0.011876683779014432
0.050521660790024826
0.01133648880002881
-0.01516735332350486
0.007296125184546683
-0.022260509767435762
-0.003286021257334175
-0.019579501498494287
-0.020103318059879277
0.015598195616509844
-0.0021190041260325783
0.013362340079697724
0.018996858172253973
0.008231838117785379
0.009206947773279189
0.0006749894953019193
-0.08663873237185904
-0.006853267106748897
-0.024413862862571002
-0.03899839809075413
0.001608872550129643
-0.023010876048464874
-0.006248467525579739
-0.024029292534475336
-0.020826606011491475
0.0044548449984308115
-0.04912894157455662
-0.0009783952736354005
-0.024136327131003357
0.06882977917718025
0.10576218454490205
-0.022180933804918358
-0.020809665142893542
-0.0396737708381822
-0.021972166094246525
0.04796910340332183
-0.002533291900257107
-0.034483892507129986
-0.010069407331768618
-0.07489648360843328
-0.021330368957205227
-0.026730208231651217
-0.01287006126962738
-0.005551189945271941
0.012153463041277287
-0.04650810149161109
0.11017746403274148
0.0851886685720762
0.058186800395396844
-0.010700311675014415
0.02897923824482942
0.04485419447705465
0.029770907956327648
-0.0019105848014476458
-0.014665522560690218
0.003297504777249787
-0.004392917215289196
0.028528547785246213
-0.025115191151393053
0.171240638380575
0.03718838860452154
-0.10728596258987362
0.03348134091560345
-0.04468207016474374
0.025127569516664658
-0.010447458847322346
-0.017800385461510967
-0.0629118723880433
0.07804963662673371
0.009837113194661887
0.017172930265087382
-0.001673604391738221
-0.042309063920396836
0.007206947272676962
0.018923889870004155
-0.025457101051637676
0.012257016096471379
0.017517776201645983
-0.02098172062264041
-0.01681444051755229
-0.03972175166533505
-0.03466427236849164
0.03352234484015275
0.016929862203515767
-0.021271185950408774
-0.21792784935340587
-0.08905842937653122
0.022502137649108706
-0.021798060560674702
0.018496032909975736
0.044908559808163356
0.025704041857868072
0.034539912484046885
0.049973611503357517
0.04092890918309573
0.030528367594412433
-0.009603815678307015
-0.0020014377522562144
-0.035827156748015086
0.008119152121936552
0.07545282103727029
-0.02761293438539581
0.003981609963184941
0.011390221166397587
0.012726512064387213
-0.05068612728828904
0.014649684485838846
0.10895581979243624
-0.04127574561540715
-0.01786579743135502
-0.01152336727722953
0.04796975594903022
-0.04074313016321908
-0.008063285113524148
-0.010673144216856235
0.04379697666480105
-0.05572306896497044
-0.002170880187359251
-0.013932476004741474
-0.10413921073248339
0.012097882548094945
0.008774578205351163
0.018827423978026503
-0.042481759168596075
0.018179524649772003
-0.02634257316624799
0.03477376526652857
-0.01372696898726878
-0.008962759765065552
0.06802458619259388
0.014052853527457212
-0.031437446574997925
0.023273576564575196
0.013620007955714815
0.001078567437146117
0.02433395140975851
0.007144377244588517
0.001653618538209643
-0.00392357087922426
0.012707022929801894
0.04935915783845243
0.03592731323521374
0.03420112198298207
-0.027471073384083184
-0.029982205404513882
-0.005026091595352706
-0.017260712827534663
-0.08575722737333123
-0.01376419914684337
0.0076240607055532116
0.06273543677305318
-0.00021125064348074225
0.00930254904468121
-0.008393982036423898
-0.06761642200850237
-0.0018610187907608612
-0.002454145239329206
0.004688026099429128
-0.018175905998391573
-0.059253624652564715
-0.007915488475878835
0.016334486784114196
-0.0050669510846182465
-0.01809606285529318
-0.026673207579846207
-0.06904628069663865
0.03495473529231801
0.04349277098729819
0.006650896582662386
0.00473932341397895
0.023328655755507154
0.052740322056742936
0.03031317354480058
0.018203966339668004
0.003772556488585722
0.012450310660851881
-0.003497589953628694
0.06956817068273555
0.03183976444332452
-0.0011238169879900564
-0.042269412375441205
-0.0019433088856930243
-0.02674124370341484
-0.005094847273461152
-0.014220025858696642
-0.07466802075704204
0.015665215639926764
-0.0006952130823400135
-0.021035879419698072
-0.00975395959722446
0.015846960846719254
-0.010363965842801678
0.07879889540889137
0.016099358500810398
-0.02783655463970138
-0.014048623744236897
0.025114636023850796
-0.019012549335146376
-0.017357440037724044
0.023198383977947833
0.04562292425375532
0.022640262892914095
0.003913721273658807
0.07145334815903395
-0.018821758373474738
-0.055949435671821125
-0.015179379281309701
0.0022408784532067243
-0.05807624858180192
-0.05085663325874049
-0.0018348314231869424
-0.01819611049579476
0.013739006934619144
0.025775983527925136
-0.07588259915477444
-0.10894534325150358
-0.017941768702555493
-0.04727089611778124
0.02798845601869726
-0.015084550835984806
0.023126214534140273
0.04468188291323517
0.14790825596920668
0.010936481848634239
0.009288493873462618
0.004069481870338125
0.03118178746952837
-0.028493142725720365
0.1268824722551707
0.04844734356714783
0.0011664013457783685
0.008477056331636493
-0.008064847043922036
0.004514530383752588
0.0193076855717244
0.02656460251474501
0.006279917674323095
-0.08321668280393402
-0.14080801682178584
0.014492424715643956
-0.060467317210823095
0.009435354447054945
-0.013899650307080758
-0.010737324963665588
-0.0039039503582524795
0.0123274766092072
-0.013477044254360387
0.01322936866866655
0.06871891129840958
0.0005624199337341191
0.022790187772239026
-0.0196099099257596
0.02068554266066244
0.07021049456163346
-0.027648598373901608
0.010985840838909215
0.07086391683433962
-0.005402963140319513
-0.02741305391397767
-0.004102283868685283
0.029982844325526767
0.003608860703768414
-0.02107842646878849
-0.03316552444168396
-0.04394586922541517
-0.13842281355323277
0.07269130829486503
-0.002515640624713425
-0.049304640699274586
0.0030789727470267097
0.01654709661313295
0.009126928069612641
-0.05320552132448786
-0.018221447616999144
-0.002875203120106896
-0.032619952309808825
-0.011766407720287659
-0.02138467941356569
-0.014636625157837035
0.014394312896829102
0.048966417634193515
-0.0044152573115693065
-0.05339422793297588
0.050748767747935776
0.007360941264328404
-0.026755926197309893
0.1819674181821567
0.0523087022038503
-0.03099161287343257
0.18821486683749183
-0.025203832319770733
-0.19602990929871403
0.01083445980133545
0.048620388774405277
-0.010902836517470399
-0.044698867884590654
0.010930423002507813
0.006245359502379467
-0.023124563160078875
0.006043870529112721
