0
-0.004568010472624996
-0.019316809638248392
0.06140813910308638
0.01958600844439265
-0.0679450045146375
-0.11758356219422642
-0.09410425257290009
-0.06433558818647295
0.011159281672614286
-0.019223528283043807
0.05402818507206507
0.1364391273505858
0.00720745423885
0.0278189601009454
0.0001600813679732736
-0.008238105115972876
0.04063811278104035
-0.018898650743508102
0.04817628965068161
0.005168223008618956
0.04791201666477077
0.0034016107185868907
-0.028103395261535494
-0.0013763907784566114
0.006007561161081481
-0.010833705794230361
0.001133349391233802
0.035292991584276054
-0.0017906352800349321
-0.014452992198900488
0.020695769244036356
-0.004111735144119888
0.011597855798041474
0.005049153586712129
0.03306928109492535
0.012402444832109063
-0.02430174073277988
-0.10337360677663396
0.0007914449071468205
0.015050224768856956
-0.002192637534472113
0.0043129318476202985
0.004851447393757631
0.002349090017836647
-0.0068494457138773635
-0.036261259052419476
0.037923405023783226
-0.023174863335732425
-0.1501150076993963
0.05854291294150314
0.027975205973338132
-0.1446487820803308
-0.07451565211900008
0.00584390751408542
-0.01357413205496785
0.04244886785410594
0.0456771795611976
0.02610279826439911
-0.012316398053059022
-0.004176179553557765
-0.019872697366403888
-0.05505546194040053
-0.006727884964455745
0.0333081197631915
0.015074920883983187
0.016075347337853815
0.020001987655968428
-0.03168774554823121
0.06342554051924887
-0.018682714327426162
0.11214714081341211
-0.0029313240527430104
-0.05980202324031416
-0.006709023560044835
0.01759813540562015
0.013065494423383279
-0.0872230647421998
-0.015399610089429121
-0.010347102122562157
-0.05222450487983932
0.13565567551311777
0.13148166555161872
-0.016306831103131456
0.021973107609579445
-0.01638883183481422
0.017442910337141272
0.0053436109271194085
0.008070921757390529
-0.0009196450990020843
0.006899706875992654
-0.007206300654964769
0.019168753156587986
0.004616677433738868
-0.006348474014560776
-0.033176337473536564
0.025692453036889884
-0.03646845910677889
-0.016066840750044293
-0.0048790483878163315
-0.0294695299350226
-0.005325059275082703
-0.006139252633553988
0.034812264958371295
0.06452809934687775
-0.02347868482172147
-0.03130401938852831
-0.00015717550145886498
0.05937131761212097
-0.05875750335611369
-0.05602723850186224
-0.02872171521909169
-0.02537967916482126
0.0004020722582338415
0.04745307767708625
0.008504610536390029
0.014608655940673215
-0.00380383335641842
0.02749374882461438
-0.009025371591982776
0.03026618209410065
-0.021769610473895043
-0.042250252582140255
-0.009139528132704917
0.007164036724046733
-0.023020628182997
0.050305226324216655
0.05280732602502468
-0.015819697236791868
-0.02240651049745344
-0.05780346302204524
-0.03330909642810667
-0.04732929538912636
-0.02547131396012745
0.014571240932380073
-0.03285780725565122
0.03213764028576945
0.079147515426301
0.14936933044940032
0.11858113382190472
0.009500669558420756
-0.015583084341068682
-0.03132622065165607
0.03143771521023704
-0.025832708162404704
-0.004495881169688733
-0.005211376604367824
-0.11223325007547104
-0.03567391402179404
-0.024172896251164727
-0.005908569922419643
-0.03243928167325536
-0.03208596198275754
-0.013462921241441293
0.07495827766851
0.0923942928031787
-0.014269649792402996
0.015165348986426939
-0.0009354955674904039
-0.06052934051272654
-0.027841187789736398
0.02145240054727071
0.030328963679263677
-0.02179414587247837
-0.06862456668571218
-0.06729025247011479
0.002046121298422323
0.0031095584338499925
-0.006606291135147817
0.0578457857116782
0.005986821636152286
0.029923234800037005
-0.023011079043299663
0.0492704574616289
0.03687287471418005
-0.02131780866835856
-0.0031333242448139055
-0.028440178935970076
0.018781971882975323
-0.00986336432123841
-0.022878496868989958
-0.007100578606150771
-0.02127440885815453
0.020480093280030025
0.017957107508200877
-0.009338675333595912
0.0021069534583644306
0.07124061118356438
0.013425480628838903
-0.07231414858525624
0.017864980134915262
0.054244070263784104
-0.04540738200684518
-0.023762428500217134
0.09968574240570946
-0.019431297119011915
-0.049816156032661346
-0.05313866869428362
-0.0068459646800176415
0.03553179047927123
0.040858869447256134
0.04407637934520126
0.009510563270599329
-0.06611796571944235
-0.04302523300570898
-0.04395786760793948
-0.024657327980116817
-0.0606150839521822
0.011236850249369247
0.024664593562264834
0.02582076341547147
-0.03691991904614405
-0.007039895762912185
-0.031505558759553236
-0.009064786651388624
-0.025994569206548367
0.06613955469508441
0.14819569299329866
0.026696899335395353
0.04536026168624093
-0.04487540318371672
-0.05970021857442095
0.00836063086726741
0.02957261607739675
-0.006866018806389977
-0.030077935684455614
0.015102243103980803
0.038573702771807196
0.015218882047724995
-0.020607586535319664
-0.033759611649985394
0.02598198158199624
0.027479615431582914
-0.012403441560232023
8.624541413663169e-06
-0.007956422545603106
0.042266011508465456
-0.03344196536633885
-0.03312853835159428
0.03511672644844734
0.02989519063120521
-0.009757001760681382
-0.019687592040678666
-0.027324308749686277
0.015997412242406948
0.018267973953195425
0.003587336139840276
-0.026325873961890043
-0.009603940860130413
0.06741517675748702
-0.045386767378577934
-0.03258641562523415
-0.007118660042473825
-0.018213581400463426
-0.011803961935537217
-0.018112363325220256
0.006212854260924662
-0.010970056603088805
0.017235531784451346
0.047151852250664025
0.012816751875761274
-0.030739609528703728
0.032567814021378
-0.018799590598543577
-0.04203030172158861
-0.062920823015056
0.04992219559099761
0.13942950067366652
-0.046882599362126
-0.008231601527088944
-0.05679496864335126
-0.009570970345222182
-0.017814410556451363
-0.019172848414054085
-0.12552436772080558
0.01571154255722771
0.013646367607888257
-0.03012745787817568
0.007139734951680306
-0.01240852142453776
0.01636966854529882
0.00811977443056535
-0.025805935692592912
0.16538644934477933
0.015822985411643113
-0.0037711395394275896
0.035565920121228015
-0.019260512434896186
-0.00046880099494425265
-0.0020835930280794484
-0.034748095847933744
-0.034691230412070596
-0.06065834330096152
-0.004175820942271148
-0.03676926254584754
-0.002255625680176182
0.03065932681917977
0.0825724361272916
0.0069669654634176344
0.007645547139288721
-0.024410184677259823
0.08786341706263012
0.04019266189950317
0.017355859320468656
0.01701426195220842
0.03985380023744213
0.1347926687581378
0.014797970996833497
-0.06343209431527369
-0.05566515130422779
0.004362626637208829
-0.005922649713384824
0.014363562948002674
-0.011875383657673863
-0.00417314621064553
0.03515581106886511
-0.04370444767056551
-0.021652043762073334
-0.01550569372793848
-0.017621376008845672
-0.03975173823687576
-0.018289841167580565
0.017416547382642065
0.04316479050226372
0.012581843849097343
-0.016055758710765568
-0.04161610907923738
-0.051482778497047466
-0.023325029036680277
-0.014911719026141782
0.020883625804366573
0.024200615888449014
-0.0129551675594981
-0.01823816820880168
-0.03992042250357512
0.02151751674194456
0.026948246219615127
0.001968203635425029
0.0022729957953079986
0.03564331159296353
-0.016042431896810868
-0.0317977544483358
-0.017098168781273435
-0.021157117175586767
0.08301098044826491
-0.007118142086921578
-0.02004751620824808
-0.030102788905840786
0.015765800796918517
-0.004265944660674062
-0.002081042433410408
-0.008121031035728664
-0.004687271127255941
-0.020698549483410367
0.001556272375578209
-0.022238716503472814
0.011126613359351644
0.00822195987166337
-0.04090326891991644
0.0157057165895368
-0.0028800130937977745
-0.006458642729351407
-0.025626254980626293
-0.004016985267849692
0.034013112730894746
0.009695379970617516
0.02704918032449758
-0.0025006208340797005
0.012058798075860284
0.05419283865994751
0.001225410931206161
0.017084524884851127
0.00926800466687683
0.009772457960170958
0.03421607839794129
-0.002332529246977564
-0.011032925125187467
-0.030280875813440716
0.013674598141255323
0.01210240451224704
0.0034364872366981695
-0.05246588841685551
-0.02323822884839989
-0.0021506866101910355
-0.005232591740379844
0.007312046575006689
0.03285663201542257
-0.034477855176485085
-0.01121679792908983
-0.0056834189922430655
0.02860722433143103
0.008020523010223426
-0.010117045493619721
0.01130573378251278
-0.012445072394335717
0.005033283571407867
0.004983624885003432
-0.020092022643680416
-0.013328237451948236
0.010176508730704133
0.0345344225222902
-0.0018903476112423273
0.021745955972517328
0.053699166999243965
-0.026684923469745558
0.02927329242823412
0.012126664406512671
-0.012021585627884466
0.002627826423723833
-0.014940344532418019
-0.03146119722364439
-0.049200216988373124
0.06664725080702333
0.05678192966696406
-0.02228896508384995
-0.009513082283092304
-0.007650804324624114
-0.003963671279153868
0.04309189601859298
-0.012100969243755862
-0.18221617958809466
0.01443433616239577
-0.060449523611086256
-0.11294702225783627
-0.0015163827186423652
0.0207161701275735
0.00915123727900183
-0.036608654847203756
0.004216895580149207
-0.007505519810296453
0.12975761972793112
0.01504881894088597
-0.040603172996746956
-0.008370587891316436
0.039608307848601136
0.03846753168600838
-0.038811983036757265
0.002589593135949658
0.0003900206961879858
0.08903774429760149
0.004075428454228032
-0.019235797503840912
0.029247489178303703
-0.019290269313337393
0.00464316280935551
-0.017995243781137194
-0.0006890850548148523
0.07589658327143048
0.03657139525064357
0.005049496060280215
0.003397802911628929
-0.0271021169820193
0.00822105972437774
-0.020461370811037716
0.013996027601077822
0.0695109439929057
0.009341491196489022
-0.014027611230124729
-0.005397873356255788
-0.007673413602947374
-0.014052965222310245
-0.04030159746989162
-0.06238792231358765
-0.03049438249853722
-0.022074514087379846
0.06972270027167288
0.014627118887203772
0.019898281035451788
0.012563478687885512
0.08872542847928697
-0.0002527103839930297
-0.045009856814189446
-0.14068221800749808
0.03032271338346361
0.02563465568372358
-0.0017182186367254416
-0.013359294353396884
0.014616261060278558
0.032864583217007214
0.02626524852846854
0.023062565063249003
0.0358714904077427
-0.01418344214403658
0.03425934706338251
-0.11721925767798172
-0.10367131820641265
0.01719008782906399
-0.0176898687430699
0.027417691425426268
0.003920414094580627
0.021700137983439127
0.0073306734809867515
-0.02831270411079211
-0.00613328398647368
0.02214276246094261
0.015555287896619896
-0.00422741079115327
0.031537496769756965
0.007947863312717917
-0.023766219936563707
0.006843053616743696
0.02189866117693717
-0.012670096733973301
-0.08173815166475883
0.010227554398714445
-0.006597773474491214
0.022805120528538392
0.014069155251395748
-0.01782055351098111
0.020662093861946354
0.020671672837972385
-0.028054702060181454
-0.0007928239758024047
0.009033535853353716
0.014064858304689915
-0.008430176702282176
-0.006818105814381027
0.003840803382709837
0.04385547340246145
-0.0034618190087630156
0.007333663531693286
-0.09181435118480517
-0.0015494692883163067
-0.008628748394796678
-0.16266725834157134
-0.024198663296484405
-0.007557782685859764
-0.03559490464598108
0.001227420316814128
0.029391738122834278
0.04674393148992753
0.020902305300212348
-0.02005344097336224
-0.020595367449857873
0.14591220814384126
0.11744883369796687
0.007149423607999532
0.016900166380129394
-0.02973065242895251
-0.038865763270490135
0.0027681557447622952
0.0006467505491805765
0.007391086613533746
-0.009885577582912447
0.02000129051106464
0.08542953182679922
0.0387188523636394
-0.005769943569644019
-0.0002689828479453075
0.014848357685025418
0.011615249023218982
-0.03504001260346269
-0.019752596124902336
-0.0022221984158022168
-0.004072085215353967
-0.04376546376416573
-0.02447865363083482
0.0014830797872563309
0.010942948957215677
-0.026656891004129477
0.019312509722619928
-0.015065162533911616
0.05165978387557549
0.07083107216592668
-0.0019038751970982964
-0.01107560582736435
-0.019186142519034798
-0.035178344154815376
-0.03963125566384455
-0.02456761641592775
-0.012599459636605788
-0.0015823935615255828
-0.011017598936949771
-0.006770434088106223
-0.036196922259585505
-0.02007774423453936
0.010632169323609619
0.019383594531656962
-0.009433756659991169
0.00030777118970194424
-0.005784997538939313
0.026526278697555757
0.015586097563573657
0.00017546022679544563
-0.014855101375060365
-0.01215767683835521
-0.024297533912206452
-0.035898190950881134
-0.0021833958393883005
0.02092656474102006
0.006851371646523434
0.049337647562238705
0.028499531182123124
0.0995569993050072
0.0945156700638889
-0.01986576409718636
0.00840129746859257
0.004481870720871013
0.05912763024101777
-0.07599472878816392
-0.11634378224892702
0.028894995263716562
0.007666541265993354
0.0146716356340011
0.014405818791388766
-0.07200634886671575
0.008765378775887615
-0.04403287743136441
0.01138949664406585
0.021681777349960647
0.029188142320254244
-0.05843148809895701
-0.04563486010066709
0.06183215372068275
-0.03399003130649828
0.017316403948176996
0.019900800675545505
0.003333672212196534
0.011886298632506412
-0.020202540309464955
-0.005258193703767584
-0.03933518114636671
-0.06126033991759818
-0.01928938096813635
-0.02968113258944032
0.03043466318988903
0.04119302318732849
-0.0174929419381401
0.011716535035612591
0.033252572050391886
-0.000505900388367386
-0.024891011669870504
-0.019107806808405868
0.019431115791873208
-0.004674408330555961
0.013681113932365561
0.01866413202052061
-0.007215620369688356
-0.0076115613507039895
0.014759953189427175
-0.021106044766200444
-0.01279107808674037
0.07786174050150345
0.0013940638376552287
-0.03620445439290753
0.007837170697616476
0.11015063502362119
0.0181782592741394
-0.01631651242515072
-0.00996836445123941
0.02618133097352349
0.0049504573214558464
0.041538651576186664
-0.021236025665727732
-0.11206203379564768
0.009749462865304814
-0.025087553230870797
-0.05207333638145149
0.011441822734959315
-0.026878621511510437
0.05674452229973117
0.050514832201036586
-0.010549455937602155
-0.011492676008588373
-0.03622571487120247
-0.045557483505647006
-0.11226856490436773
0.02636118993098745
0.015079019835299787
-0.02774461771341259
0.004069810164857171
0.020843653668241976
0.0333921860097569
0.0011080663679653752
-0.013965024504092751
0.11868167577514621
-0.01906763221504562
-0.04392502099054905
-0.0016039822108023833
-0.006935266662603847
0.03903806489524682
0.020034057078078805
-0.03968874566071736
-0.007017455576616665
0.06367306005379167
0.0466924062812073
0.0485764596816454
-0.008087096920288094
0.01882614566683807
0.0344740002536878
0.004949697441940132
-0.0017503958509290248
-0.09457864613746314
-0.03629017567083931
0.012032462935780357
0.005742856096810874
-0.031539083947762434
-0.08411354526641904
0.06008301833116608
0.021369587063347916
-0.04511205334860905
-0.0001707223152855678
-0.0351725441937692
-0.03862673657707873
0.051375153649043076
0.06049216621339586
-0.013695126004955724
0.006568018194893123
-0.01641101602302545
-0.007558037751287065
-0.0986149718635099
0.014865112503856035
0.0835426004406779
-0.022331352506703442
-0.017364657562580498
-0.011391984397679019
0.035803813655654396
-0.029333963889323928
-0.01645620168891892
0.02700379981762177
0.025583046494348484
-0.004348902059454778
-0.02449615760456122
0.04856295903521866
-0.015249385179170485
0.0142995072240275
0.016642431681923114
-0.05347354845120179
0.002769546488276606
-0.013883821491991237
0.036057616183647986
0.03800950596201128
-0.010425825758973762
0.007328712607148022
0.016056493388966933
0.015446375470096174
0.0033490996341923947
0.13742724100481726
0.021091678552376585
-0.008400400682208101
0.03354878834478406
-0.19360836231611564
-0.04741085851650588
0.07819004811035728
0.03335226020710607
0.00943578735602018
-0.032860324738306405
-0.06319270251997262
0.011673928027887448
0.05008202786844431
0.0358748031652767
-0.01424001006405211
-0.04146704432304876
0.01371643454759014
-0.012836740270741182
0.004790556564295231
-0.008887422540200234
0.007952871662940786
-0.01066563524860156
-0.04436090034757025
-0.03010924641043685
-0.0035342054860444034
-0.10375139378268199
0.05365695546995949
0.061397513881978054
-0.017403884895322578
-0.017312327576684303
-0.02057249464125206
-0.03192982346157492
-0.03592124590648218
-0.01772367596971073
0.015267455858945874
0.11437723733339639
0.05009082678430037
-0.010820806344173848
0.02203473089046982
0.011927414590076952
0.025396179102684498
-0.0299199150388179
-0.037177348091829314
0.018169938647475993
0.046135556816497725
0.05652337083898368
-0.05367273694968348
-0.0422097092077053
-0.05684699869123632
-0.04773439245359792
0.04232009306084569
8.957356664943051e-05
0.028653307242743627
0.02681462957256639
0.04705098870410828
-0.016188429605668547
0.017353885100660958
0.01195296853613635
-0.013775603829833784
-0.19308135994456335
-0.03191092206192719
0.03816158988853089
-0.009043130855263707
-0.006064860219220009
-0.013806761071696877
0.057666899597574386
0.005021099650752463
0.007064849674777142
0.04295841765829407
0.02361487510727457
-0.07891868859439227
-0.022079050883517803
0.014009673446358306
0.12599479763172433
0.08600001483049613
-0.00813375530530063
-0.011749191433246764
-0.0010717116246884539
0.007708844328439546
0.03343708607653844
0.006263354293013648
0.034786559051148636
-0.052502922924219986
-0.03049360014597927
0.004665931024981256
0.01537349413654994
0.0046696398806924866
-0.07108225715916842
0.0529446827885106
-0.045972036391400066
-0.007215964348870107
0.031417381964882425
-0.021315959101177496
0.0029718431085885813
0.0016053327699880786
-0.015515035221036345
-0.06221663105370037
-0.0003675600929082543
-0.030898748562605313
-0.042098797784743944
0.03207523160845047
0.034566094474843
0.011386409609573794
-0.04440438509137979
-0.0027245869609256418
0.005494924816635571
0.016399050295086422
0.06477648014611186
-0.0045335008366345075
-0.011783477901922683
0.01525459821345331
-0.009239328987489245
0.04849172736228987
0.02616673007423175
-0.004535053197584582
-0.05460458476294354
-0.00044867158264793287
0.02392604260424802
0.06654158561921279
-0.008664300913045988
-0.03140297007522461
-0.012812941470559206
-0.03152855590201242
0.0036905112752978783
0.01664919531230847
-0.026203501053552868
0.04394835044966074
0.02594252123530107
-0.05246707831116332
-0.15875202788344997
-0.023219658116200855
0.013035531369424735
0.019426638922311962
0.03804954304966758
0.0125689077321039
-0.016086364222615925
-0.025399241988691895
0.008858936040453336
0.04279190937828656
0.0049955027728593275
0.014686026617970457
-0.016482155790935198
0.01973992473685047
0.02530962622720585
0.004419780490726877
-0.00411199349358458
-0.0238784912074519
-0.05429466921286656
0.02942848309406404
0.0859678935604549
0.024510744880651185
0.0310378768905199
0.016046097075401087
-0.16034164089699995
-0.12659061920501682
0.09372883918620231
-0.0132493990597878
-0.0423129580396069
0.00896906211679701
0.011819236375259324
0.004568177040210673
0.008837068612901575
-0.037671328487130784
-0.02298787623307314
-0.0051961249530075426
0.038289241082342045
-0.04869490720400771
0.10958065396954803
0.09228044433289033
-0.025086834927522426
-0.00028616163206471307
-0.002191310908051552
-0.024951419510418037
0.0863038631233006
0.07008863458245486
-0.014011867899420542
0.023747951155535806
-0.08840967129815532
-0.00013423844875110158
-0.002590763242180647
0.0002280050147786831
0.01951518194502841
0.020051889515806946
-0.003288067665075502
-0.008624135636320657
-0.01727354447525196
-0.03944701636346503
-0.014389445532167887
0.019071875338695882
-0.055420929169373676
0.016528368075380818
-0.01176547960455914
0.0011813814157034387
0.01904825210385684
-0.021926930512162962
-0.02110218928762157
0.026554627506413353
0.02313294919621716
0.03290948352726929
0.01445087714373408
0.017305102103538608
-0.0028355776703269963
-0.007781965235748546
-0.014434118903082552
-0.09122568145608825
-0.045168482814482484
0.023185124922559468
-0.014085613558723736
0.019655136786626046
-0.008846420723264034
-0.015550653142992013
-0.02437241409788571
-0.0003061413128555435
-0.019096907469775815
0.01103312374358664
-0.04576595791647949
0.1491605588796223
0.09571572892580912
-0.06269182304434241
-0.09955228288124941
0.14733454486122527
0.05001257238811369
-0.028176514140912153
0.008865267185039811
-0.058133832370092245
-0.014011966203297165
-0.005567720326018149
0.014828217076220463
0.030865957280860702
0.07030601092537507
0.01314302346089397
-0.005480104628289811
-0.0062579738224896615
-0.0039771672822348616
-0.033314355056173
-0.049468442606453715
-0.00891583964053912
0.021532407942019684
-0.039285034503160884
0.046341609426476894
0.15630019462155242
-0.04672151464394938
-0.018906843772560165
-0.014056325227553939
0.029225192935671114
-0.0694051238100016
-0.09118375885535104
0.014761776136639818
0.007269006012778762
-0.01033109929522271
-0.00907021298117892
0.012777162186795647
0.010328110396379155
-0.036311813068611
-0.022693455359738362
-0.015519400879388849
0.003890368369163931
0.008501920058311348
-0.053092260713979426
-0.013820101580907244
0.008972564681131764
-0.003603988881649231
-0.007572626857205636
-0.022317789665780546
0.058272772411279046
-0.07144034658719872
-0.09990799374266741
-0.009960411529226615
0.01980297827574404
0.05619513745548737
0.005457669431406361
0.038948540253779196
0.0038381027302780506
0.16978228143686713
0.04341911965694866
0.021129051942756105
-0.013117767499809425
-0.03389990268750389
-0.03599613578324692
-0.003843434397324657
-0.007901367978378645
0.012653558006325264
0.004030006762071403
-0.020963644933339732
-0.02520503604131275
0.09463983271664025
0.015506786042963353
0.010459912621741395
-0.04676828879190507
-0.0271104584045447
0.011890069750908717
0.0051831370700919765
-0.01770863434559206
-0.017925470423121
0.02073984918593889
-0.008792499982541627
-0.03266459784241806
-0.0045640731815082885
0.03808356169573821
-0.051140703566832445
0.06069378999902913
0.06909368461916303
-0.00640465259864297
0.009707307596997535
-0.026987737041124744
-0.0565697419787481
-0.008751416786376814
-0.05384796549921506
-0.02245816828637949
0.0035620011026865966
-0.009113406240906058
0.019111330116371655
-0.08154470769959317
0.002480692324466393
0.03131650900531606
0.07478085800360895
0.019556649130706164
0.010693837619482945
-0.02656662756160441
0.007838821154212111
-0.008485090199972825
0.007062752664865252
0.0011312746937328386
-0.0035318353148735874
0.007334174270772362
-0.040264201873794786
-0.057893925496289994
0.023181588548134274
-0.019160414635675645
-0.006198473704800178
0.0672086920852388
0.05307258365366051
-0.029056769985478733
0.010271369555381517
-0.05770108896623525
-0.01772432079788368
0.03135622805911558
0.013912144217645655
-8.307613627255753e-06
-0.015954533250515553
0.023026627573457553
0.06734212780586325
0.01772442162505685
-0.01192896836096726
-0.007490592746216073
0.01289059080183059
0.0038890613703621434
0.014902628280589636
-0.01153275222751794
-0.04621278672520855
0.012913345928290519
0.02915172695623796
-0.009801444404238446
0.004482921245623538
-0.002449540790094471
0.011191427317481547
0.040692290367824686
-0.029042595945227283
0.017650214664327167
0.0331908269040188
-0.0016156703519695414
-0.04545672110613306
-0.050372250463813134
0.009811015886694295
0.0011237869575153954
0.1139804243992139
0.039256088109005355
-0.02336711865786252
0.03136630310810706
-0.018443791710946195
0.0071945735984215945
-0.03296495760812777
-0.02392840054271621
-0.1135179925500236
-0.09358061927007592
-0.1281378169817083
-0.013759769727333063
0.061042621373919935
-0.033508564525792955
-0.029888546358573416
0.010036891683110111
-0.02974973061385169
-0.03642886285862201
0.007471250604991987
-0.08804441929752574
0.0508400040445801
0.17591824867615055
0.009553287589846015
0.010948943876517124
0.04100092900297931
-0.0058942582466363184
0.016648593767518257
0.03697484681427972
0.06203596257481952
-0.005919486938286654
0.052395120862195964
-0.0031901359808335105
-0.025925694596529946
0.017595220296289415
-0.02665521457119317
-0.00866808726035739
-0.0032155230118589605
-0.028551173159078146
-0.023794638949645196
-0.03371162340592602
-0.01997590419686182
-0.021263553347406438
-0.025652189894245177
0.01340942270001406
0.06989606131109735
-0.0018299019475372554
-0.07614886766338055
-0.0775842302834432
0.0578177901628067
0.04636791186978365
0.007955141290008015
-0.06234190730800486
0.05227911161928518
0.21280048612774433
0.03798873664390959
-0.11768465116396921
0.015706262970169024
0.06676639040642172
0.023185276284602343
0.00247950370451005
-0.013745749933247281
0.02164680659506173
0.0027650172237032446
-0.010510128651797379
0.011379110997505952
-0.040390769699886885
0.014577851091812293
-0.029569083505596956
-0.05531430565739762
0.005600105466170245
-0.000910458454128281
-0.019660850034017956
-0.0016227659917323822
-0.0028633387541332723
0.031778920784873224
-0.01620979332261757
0.022215488019481915
-0.05407096681303855
-0.017903241798301196
-0.0032647582033921182
-0.050469417280692284
-0.05202140686116887
-0.007735091421502633
0.04431336769935909
0.012830704867593338
0.014012766678184078
0.0011631970151047403
-0.0021562315437524283
0.013357438487178758
-0.0465154803477456
0.040177464860514864
0.006084676372035916
-0.04637163561103501
-0.014782086890363888
-0.026993134240681248
-0.0340627811263125
0.019448072499929928
0.09765048049160327
0.044409395928811816
0.026218706720420502
0.015845878238281996
0.03194931732356404
0.028632745691806672
-0.0272019690282159
-0.020639003135798705
-0.024545321473605827
-0.008946549179687468
-0.010089869447822962
0.00737283155339526
-0.00012354240499133154
-0.022016398493999532
-0.04476276807365844
0.015660533289291605
0.04254127252604419
-0.027900202742544462
-0.00696484164945722
-0.018373117720561254
-0.002587664003899327
-9.592132140844374e-05
-0.016021147164191517
-0.030915631728596
-0.06901395925562019
0.17478443178127215
0.05008639224966036
-0.054140958586854394
0.00585062438232283
0.0013891903820604584
0.03611607304036385
-0.07240147802872884
-0.11655344651674508
0.019589490319526417
-0.012986403777005745
-0.019922572765141325
0.020386386031488898
0.06634162440277033
-0.038022009497636594
0.08292504283251301
0.011707226678280478
0.013770470303613513
-0.03502717480084984
0.07658328791897785
0.0854618468043014
0.04710531125676793
0.006634483241353689
-0.10439991869577227
0.0032333157473283278
-0.03610148872665775
0.03649509891268292
0.04362832556025634
-0.1349061134876654
-0.06845842742627198
0.021285657192944733
-0.055983360956252726
-0.03092862850433929
-0.006084435555660681
0.055757821353143125
0.025958959544929435
-0.03758045407097787
0.00027919681810797573
0.027947437853490752
0.06861010304779577
-0.019224691973757597
-0.02593656211381719
-0.006250361747383007
0.0006901745378921605
-0.01730573110463465
0.06842776514150216
0.09219822777817599
-0.01666572613858395
-0.03411163241725745
-0.01471138937473236
0.03375342363152123
0.009937272151254681
0.002072498440998204
-0.010820186651661304
-0.028400131411245356
-0.004081571390273531
0.007785850012994784
-0.004439242469327571
-0.05501309458406948
-0.07209623911095711
-0.0071110606837780825
0.001176944668564654
0.0695955583481293
0.06957713801888306
-0.07867484315697851
0.13652218863212312
0.05803179160436594
-0.21314104621419394
-0.004372590600399486
-0.04700835410331692
0.036077813736789976
-0.05929800331379903
0.21501750223544694
0.04136513280039876
0.07798700848603664
0.055464282310821435
-0.05286139308214812
-0.03129281747353887
-0.024479404162609658
-0.034713762316464516
-0.03340511132364998
-0.046909899537115864
-0.026146921703785082
-0.0005832132298611314
0.02347710774749387
0.034947553857855806
-0.025701885510594245
-0.03431428373253592
-0.006722665515719953
-0.10248204759670422
-0.08993611647531632
0.00020870893286101927
-0.015536636640279794
0.007765002229368575
-0.01623453052202134
-0.021629328251457407
0.02939243047850022
0.010430594648111018
-0.009142261373281882
-0.02950148278125001
-0.028267348816284232
0.014559952611749909
-0.04575958344810056
0.1429339819215373
0.22626918985508457
0.03726154809266627
-0.016405256995423414
-0.0077884489501345334
-0.05335973228979929
0.0032805008214504784
0.023488074766921677
-0.017523681486444075
0.00029645979710067583
-0.004184878866309046
-0.0007643509210362274
-0.009597100993468928
-0.0016582215111930788
0.03213232171572389
-0.012760971320659457
0.004236905436566918
-0.002666060172428173
-0.0014361920215438817
-0.07576727286661451
-0.054718097515109275
0.09431843963970178
0.03520600019588147
-0.03848773579318823
0.07714612540126789
-0.0009218294588022851
-0.013729443817712322
-0.013053594320297946
-0.026854256600403838
0.006234829691402345
-0.013071354284258926
0.006483517330446861
-0.0038959929064795173
0.010504050577952385
0.029736203582580688
-0.063026997746161
-0.02883696610123453
0.030318823070352566
-0.036430959077078585
-0.035681617372457834
-0.04769553480061241
0.022966452894269913
0.06787780270685702
-0.006122285011462924
-0.05214134025418842
0.0017144787695511214
0.07052698275645991
-0.0011562166563954606
-0.03485868105291089
0.03904129474015932
0.03482477338598926
-0.04868431406314303
0.024943416802253537
-0.012315481223031534
-0.01508492664655694
0.01134758750456559
0.008992132495984646
-0.012494311069574906
-0.026378358618794936
-0.0043660385853412495
0.00910237709274948
-0.01100867554744323
0.03152969098375594
0.013748521750098202
-0.01992160415547471
0.03435409376754271
0.02774500923138539
-0.021376929454850386
0.026253949951444262
-0.008811506492313914
0.008506929211989563
0.003959224082505948
0.001918453663705612
0.026036990671769247
0.01807761368887101
-0.0014115099402256335
-0.01722134425602103
0.01275516200414903
0.02870895217549316
0.02847323425727184
0.030164332150043296
-0.006655396215210597
0.05332008338246619
0.0231497323937548
0.0194869890262678
-0.007535371800748812
-0.0007427984226477981
-0.18638372064731218
-0.047014102880271295
-0.013035181453183038
-0.08437020259573137
-0.013716904707747295
-0.0040510885608156895
0.009337703925374245
0.031282440847485965
-0.03154981641798878
0.011033741043852663
-0.014459017532586183
0.0027070063834422602
-0.005526912691280949
0.03245961390986461
0.002667060514160179
-0.0016231011845065336
-0.0503456869241455
-0.04169238268913694
0.03215583777600941
0.025413490288400564
-0.0031953540428088715
-0.019593497134353984
0.01022653478641735
-0.01796962958956265
0.04961276197187034
0.052632532520980865
-0.027918917774389127
0.06736801224702839
-0.004537853543014634
-0.003533055398260219
-0.007974900132891946
-0.036867403748433517
-0.02276219941501795
-0.030177724072081625
-0.050875537853729745
-0.020829419085175202
-0.0344181775900191
0.024035754851258473
0.02122201584010289
-0.022930572381696497
0.007818903785218155
0.014465106932013581
-0.013304819718333636
0.013632575243286617
-0.0017767844583817917
0.0005733739632427688
0.0084553178196605
0.009838858997346808
0.010879525976614788
0.0018788375841136112
-0.04271283827856233
0.14608262638770836
0.0711975751782201
-0.007122128943275521
0.03096257353997484
-0.0381768607684854
0.04826753580886755
0.0048086472269455935
0.0045078772317701955
-0.0025245650922198193
-0.009120048756696336
-0.07279592782867958
-0.015299756141400516
0.04433351391207511
-0.007572856101217188
-0.026937244952191238
0.01873508634912301
-0.015366551670810137
-0.02115113909730498
-0.00028838167214394417
-0.020295689160581904
-0.03471472803784784
0.010934784117987402
0.015025822442296482
0.007355978730308178
-0.002812925140416841
-0.024948084516531355
0.00670141466046861
0.02712606772808126
0.03450830504265568
0.019206824435148855
0.030531851383952004
0.03334000832498838
0.01934347871495263
0.013223640209140915
-0.026556887826418466
-0.057162382782447264
0.0931329578274529
