0
-0.02373974559779683
0.046815443541110335
0.014930726294753921
-0.00685024529974721
-0.014938056272929894
-0.032464861340110604
-0.020397024726311365
-0.024153344513820476
-0.010785096141716397
-0.01921959835825954
-0.006247876481598573
0.06499104279997708
0.17664667295527023
-0.003352742341554689
-0.023248528845022435
0.004527255804585181
-0.03556809885854937
-0.032397704795098355
0.04051491924175902
-0.007279083117193576
0.01879883094293753
0.024767793668884878
-0.039591352337194206
-0.03744428691546343
-0.007106168373285725
0.01201559745100152
-0.03983064169734998
-0.02476395524155756
0.03229354719054146
-0.04605529217493115
-0.003454736516115714
-0.01563079908431206
0.03472905883428386
-0.016207409539703576
0.0030397566568587777
0.0007643698228279104
0.008618755778864095
-0.008720723579776508
-0.0019339133877800737
-0.019648384676653398
-0.04365350621961047
0.03221059120748712
0.04888113336528678
0.03922955173572524
0.008936453431352196
-0.04687012006204552
0.031250339800982095
0.002337323331460437
-0.020298019813175226
0.008937969226399306
0.012070550708938142
0.012487111250672001
-0.01616498799256584
0.06303796676524047
0.09214931788639297
0.014608567264617291
0.016913481052239714
0.0035021585532938764
0.012157208090558522
-0.026950036484644058
-0.0027079576216138277
-0.05527172675303151
-0.09535312856897944
-0.02135573649019174
-0.017169165921620703
-0.040319233167654144
0.016599041368966547
0.06336703615938384
0.026836602426523696
-0.018833348552487247
-0.012184956510446342
0.01402785906798316
0.02161744693126703
0.08276671073334957
-0.054667462614977166
-0.04622653618040776
-0.003908897389815791
0.0063217043830458754
0.00588957867210208
-0.0013861205349101273
-0.006491404474035008
-0.006906202186809258
0.030897294784509286
0.015705082823891624
0.034212283258499315
-0.0380237159004621
-0.08662493533662033
-0.016837567322367263
-0.0385020487165657
-0.044320656373676395
-0.029505363506555415
0.009478059601099167
-0.0032535073298296732
0.03895773489812819
0.02248670141069871
-0.006835044420278021
-0.0010754724706186223
-0.020668292156767326
0.0003220768967334629
0.05415556943943863
-0.014898002272392583
0.005998679680521619
0.02232403682401176
0.018376393735429156
0.0032762567288839414
-0.0057798284641524195
-0.014728232755423077
-0.013098199766737356
0.027312446789500382
-0.04202747245728514
0.027105373201215772
0.024079292084535863
-0.02021862084464377
-0.04981272931837244
-0.05984752814344941
-0.013399615008119686
0.020493933838106687
0.014117223115926586
0.009987932009227103
0.024679044116530702
-0.04081149600828472
-0.030938175084611247
0.005837362687598806
0.029602236768060265
0.06907357434630959
0.03151255921431356
0.047184570774695726
0.04119949825415494
0.05115270209687193
0.05990224694711368
0.0008038103336357546
0.08368913650656402
0.05984387342068517
-0.009662752222510146
-0.01941088393344818
0.026034349402736745
-0.003250741975698558
0.027539904262610056
-0.007937337922348015
-0.2149157271125225
0.017370593292509378
-0.02931839676208625
-0.03493911138353293
0.024012243416654366
-0.005919644933083247
-0.020348789634502134
0.003895819309450175
-0.037073429008863026
-0.00762405815372765
0.011317444210391788
0.0368529053506805
-0.038725659696283554
-0.05478205793405463
-0.08594157654690462
0.014359852602015376
-0.08496830716598801
-0.0016249997827433426
0.021470534216494648
0.01785379884761383
0.01565566748789649
-0.0006787627084311417
0.013386388067402524
0.007326956317925601
0.005054964746554779
-0.041329597829221125
-0.03931828897426113
0.07076477752833826
-0.022465745835838973
0.004075102463573824
0.014346589809159845
0.004042048046740719
0.01034192822669192
0.003301009557119397
-0.003659608418344908
0.005919033874990668
0.022571489411918676
0.039980389657120835
0.0013946629376097143
-0.009035239624350086
-0.026726755859431368
-0.010743381315096895
0.02672873190766915
0.03664695218430742
-0.02103965007714084
0.008376587082535612
-0.01243934812081568
-0.15982712014257203
-0.015835150177409076
0.0011724826043777877
-0.07674767151472948
0.07104160786708982
0.09765072814653433
-0.001909091175229465
0.033977132197955034
0.009975239575896532
0.01745465140205463
0.0005522636984073115
0.02916379059625715
0.024226753213070638
-0.036365056839415585
0.017325252930363605
0.09055522966555057
0.04546158576466048
0.05858495405137603
-0.01039672845283084
-0.009459365917660148
0.010069245732210397
0.08598012538468405
0.003287411005804687
0.03247789478046314
-0.03600834583857373
-0.032621004348082856
-0.029524750868861468
0.02879559439674846
0.018479011837291923
-0.0031238631366062386
-0.1664220700802322
-0.09453845188802659
0.01836283290866604
0.04583895391385149
0.0029901274826596687
0.06191413182152748
0.009922817173796592
0.018589338971234243
-0.03350458210028254
-0.0489296296630786
-0.021784724938251086
0.09368405178869375
0.13564823849125732
-0.061215508168289905
-0.018957576312203406
-0.06840930471046232
0.009391894569200504
0.004867133251004733
-0.032176725388466096
-0.0324191858601807
0.007014237159176788
-0.009332177729131468
-0.0008393907946815817
0.030016248068868635
-0.036861267737228864
-0.21769513428538928
0.027535238296358656
-0.005977391334337862
0.011730155966994116
0.004674342721679564
0.039068604077271245
-0.017258359131165777
0.021253797634093814
-0.11105062234649586
-0.046814535183385936
0.029719357927527806
0.021541217832487143
0.037598138739711205
-0.00608535237802305
-0.05611661805367384
-0.0035040997691454566
0.02738645093315935
0.04456893021783038
0.05241450469775312
0.004782694327462878
-0.01620279004882008
-0.011478763298864516
-0.013875428512901876
-0.013370341315403815
-0.009945857118485635
-0.021375421862758013
-0.006840393713255176
0.003215649169482477
0.015300036554228263
0.046097842276340686
0.00869102615887811
0.009052428295619471
0.008512218066268378
0.06519394785961095
0.025774938973562082
-0.03426616419451489
0.014375103278767024
-0.04940052706894816
0.09517329924428003
0.15452985449918114
-0.01174233208224208
0.012075003256995545
-0.025164566364810893
0.013358730028473893
-0.006618290058504546
0.022248045318828524
0.02442711798310223
-0.0011507725132253995
0.00030495880643217216
-0.009269336864687743
-0.013448247857779433
-0.07833379138567409
-0.07022906526757518
0.030959530188147615
0.03966867667998718
0.013067623097775677
-0.013138554240573377
-0.0038134363761615675
0.007844740441769901
-0.002097128277499932
-0.014218805859667484
0.01701061809050565
0.024562119982994332
0.016727523257991612
0.03655247555778343
0.017890124888395538
0.005512990064316084
0.0071192639672420874
-0.06643362704224039
-0.08854112491452945
0.0011615893664490766
0.006291363536303449
-0.014369104458635557
0.07179398980729186
0.028485133308777347
-0.006075242823786001
0.025968214014670064
-0.007499964792226006
-0.021408284837513933
0.0006114679357158799
0.01245293583551445
-0.011453669305045386
-0.16608363153942657
-0.1166172755409285
-0.04626368482131534
-0.016463991796395926
0.02869543765613942
0.015715622982828813
-0.028618544846202507
0.022945334351141704
0.020797545897797254
-0.02182798558535805
0.007746490306150587
0.01499964271472069
0.03432824879850227
0.03751330158635239
-0.02048970903996632
0.00043799724532909236
-0.12430354905882031
-0.034086096161754544
0.01561677020163434
-0.006306986709629583
-0.00843516827888691
0.021996467585876246
0.013060537350766701
0.04341138481443684
0.013712561595816977
0.012553413531165354
-0.00966812231107003
-0.02795425657249914
0.008911315275095682
-0.006318814889687086
0.005788047873257611
0.01678562377499103
0.05481141074183392
0.0626704382569973
0.029199718037255427
-0.010744258942574548
0.003473092864921985
-0.02862996447557666
0.03637585687445415
0.0492079533097368
-0.06478192402901675
0.013993420104102358
0.016076977935468556
0.05638026643805198
0.05029159737450093
0.05056433432086049
-0.002203696853889985
-0.014375396192407833
-0.019394915854520432
0.014154300353884834
-0.00745916645844116
-0.04175239440335519
0.007936082912833469
0.017580086426816487
-0.002924892990538387
-0.016267283608377224
0.08085900133332588
0.02286618600410066
-0.034928214258516575
-0.006056713373495964
-0.014643373914630298
0.01680203732761273
-0.041884829651952935
0.06590894987656751
-0.08373789699808959
-0.036763240764746456
0.012575570397470363
-0.03572106387731433
-0.009445598634160814
-0.008042455241137988
0.011777660453301792
0.00574120211915793
0.013126953455104147
0.012944731897641573
-0.02822481319063255
0.07556637843402203
0.048368160833328906
-0.0004540838822139158
-0.0171500472009777
-0.00897485460552172
0.05478266721850423
0.0022230148325681812
-0.19806534614924523
-0.03337289957720096
0.013505090625749222
0.003355977280509201
-0.16403668551273198
-0.040968789420562375
0.1200498118765205
-0.021577434708028972
-0.012569846974916565
-0.00024992552508224094
0.02044846659110245
-0.014041313588211228
0.00984707000668128
-0.10723074758698331
-0.04680549815521796
-0.011316840348726898
-0.0014806860613959746
0.03056747160129732
-0.010873737193345877
-0.03709893923676859
0.1327899008120292
0.12010539588738238
0.15131101919247475
0.094147350136157
-0.11525381099211192
-0.08667394397976655
0.02900071694986535
-0.026522592893802547
-0.011371094236934108
-0.02668351256638545
-0.046099143148808024
-0.0006843772029530376
0.006594758598931264
-0.01733630801529184
0.08454217964515255
0.0400935549976367
-0.01773255234047024
0.08521123664538302
-0.026076515360961696
-0.07250412233758385
-0.00821872625861626
0.0075358072024699204
-0.004136958862713816
0.03399244714791298
-0.027023322851565144
0.10148776610300163
0.134892313310961
-0.038402800272816735
-0.02721110032051345
-0.01761597097543902
0.0040605440359723745
-0.04228356456054044
-0.0691846647565646
-0.012843832816751437
0.029192593437756667
0.016244724297836587
0.016086688614815
-0.013893417085019177
-0.023220805877819158
0.0070427070741799136
-0.010623440516116417
-0.001060324153311797
0.01732456266914659
-0.0013002521090479699
0.0027623171852630564
-0.02632687652505002
-0.038802154733238683
0.017345759584233136
0.028210431345586436
0.0010643166871484202
0.002742438870628984
-0.04168637671930478
0.028541531064713736
-0.010945661731647278
-0.01504515495523536
0.017691653250829772
0.034007331060473656
0.04244886682463182
0.003315819744336832
-0.02968542728747673
-0.014895634679507446
-0.002314297653010853
0.00021595720557196968
-0.03249605235682863
0.032187199775188635
-0.025275849696161663
-0.07472833466403202
-0.013137388678518155
-0.012710620190378457
-0.025983210470035427
-0.028738485816015666
-0.04198212916763764
-0.04934805676504966
-0.015101608725199165
0.07036876598000055
0.15674057633402125
-0.016109055392229336
-0.026203326354133735
-0.014529642789363006
0.006422723732170139
-0.01376474965992318
-0.03458271723583196
-0.024765841172818794
0.005342248613658717
-0.05225180416806327
-0.005057440165843965
-0.02608837487056157
-0.0023992406348442756
0.11089579243157201
-0.0368507246655541
-0.026431886050078984
0.007942051553012698
-0.020484712199794166
0.022576455665668894
-0.003976632426840016
0.023716536594514497
0.2405281023877869
-0.02495480835087205
-0.026741913636000626
-0.011230606891393343
0.03571410854727803
0.015705177016036267
-0.04248032956154579
-0.00444861103585333
-0.02182392005806763
-0.03278100437523557
-0.052952858041180884
0.011026359625431761
-0.014216703641855658
-0.04119473626111615
0.01206256643160893
-0.02391645907674779
-0.03065993879275288
0.08874093615123393
0.022709577299223724
-0.07585429627126217
-0.02937541900424386
-0.03609593780715571
0.0151572292790153
0.10096792451189324
0.12018941741342515
0.0032370372501640235
0.0029933292606115084
-0.024439378397136002
-0.012491107720338667
-0.062037835899030135
0.13538866362717963
0.07017687466755378
-0.06945340557105054
0.014677908477220857
-0.016012401032733197
0.018732513712993178
-0.007097424424224836
0.013662548745829768
0.056334269217090865
0.09604319388516065
0.03908921795030296
0.015459503765427596
-0.014051765450085211
-0.01352748422041389
-0.008763724966920202
0.024183525991031525
-0.03893257264365641
-0.009063192203377939
-0.08055659088023963
-0.0929053294154445
-0.035096650446282046
-0.12780305634620978
0.011069941030220026
-0.01463940351623524
-0.009956772069354441
0.01091892722632016
-0.02086737594384071
0.03182878124019608
0.01675867181671562
-0.05236322516765076
0.009140882248402883
0.011216003201784548
-0.04721582869147484
0.007164075168519981
0.005323066966038185
0.0020898638835017244
0.04901120557039248
0.003859940742855619
-0.014134141138106942
0.024086132000878686
0.0027453589593536202
-0.005980296206384999
-0.005068522886859243
0.018687896705898283
-0.0024328331466377784
-0.00856335936256745
-0.015060976684086224
0.02001850219392211
0.000858123762736074
-0.0196118400446935
-0.0359485220942976
0.009576714636290494
-0.006443027436770594
0.06879582397640763
0.015536036822982447
-0.029150582322048143
0.007624900859129051
-0.014518266661878157
0.03030575742021913
-0.05657379515377153
0.020140325574081044
0.029471392461662662
-0.018135485435892523
0.026710939703212165
0.01760210639670075
0.033071294074090894
-0.0012198560456544419
-0.014586061277398693
-0.020727773523878574
-0.03451975659149639
-0.0034038290016121017
0.022933956102389536
-0.021660671682650852
-0.03317424949357607
0.037701889078816476
0.04694775509946718
-0.02853663103945548
0.0067889213435285865
-0.004872690214972522
-0.007345782917466157
0.011188738804982517
0.016435897842148432
-0.004817558397822523
-0.031015265501842988
0.038020075132831954
0.02070782219239707
-0.0883427850753488
-0.03593714260884707
-0.002408304388158296
0.01666406337471409
0.06499682031062799
0.03609689859841964
-0.024716698964570485
0.01902094482067951
-0.01601122942389341
0.019140117999049678
-0.02821647394196109
-0.026487190477549185
-0.03149549540435596
0.03775222026949053
-0.007734457445606213
0.02573929632129533
-0.02393891286920013
-0.07076065070857954
-0.02249456821914343
0.05203073584504952
0.008351861235171416
0.018792015982314815
0.06010357439450219
0.062177970148228706
-0.0010883747033679058
-0.04698199587804529
0.007532181590436877
0.027819332693604305
-0.010504992457158129
-0.0302779266791448
-0.01754038318387369
-0.01235234993880612
-0.03374482775914559
0.019489751914949636
0.05801052853422867
0.01870903816542066
0.029524750600485313
-0.019778880170198663
-0.06634604899881762
-0.12083666553833824
0.04974965627243849
0.029700949716302917
-0.0044548701728684414
-0.005097586696047484
-0.03076646553382283
-0.025496710545965463
0.001159597194204079
0.028395553691853297
0.05708649065661562
0.040076115251102495
-0.01267249336415628
-0.036130687472328275
0.004222567734133095
0.04536284690449428
-0.031800641545528904
-0.013212300311218573
-0.0033141804165685925
-0.0167156353154103
0.0033027846666381483
-0.005973963657413059
-0.02228137096703905
-0.030958498028287575
-0.0073696444220242
-0.013515847010896363
-0.018220860018165166
-0.018694674327048046
0.0006933982747576042
-0.00272029067167456
0.005994444478341204
-0.06942770794661804
0.023388765658189835
0.023411656609571833
0.03023160644985863
0.1103429152962097
0.11776725636932826
0.024154102383183468
-0.00956907718623255
0.0007787497164816434
-0.010007707484663071
0.008789988066437994
-0.026465029706010418
-0.04298589918297664
0.005031285096389413
0.04715994974756764
-0.03308528381120392
0.0008411281703621134
-0.029198536855394242
0.02567032185643216
0.05482232182084072
0.003665455635207964
-0.0005152944997911948
0.03509123249237893
-0.13667624001735476
-0.016772331392129754
-0.021754074396032115
0.08204620744213573
-0.03936373500584375
-0.02738720696489508
0.03034740600233071
-0.004235358964513293
-0.020992526167104425
0.01135904952049988
0.017575474980683962
0.04406537219134895
-0.0060788670571238984
-0.06852524898441402
-0.013554068705152331
0.02210302935636872
0.004800448844126591
0.04602911732855754
-0.030934016202898353
0.015656322107507573
0.013700665223544729
0.06873217263204769
0.008386385400359693
-0.0501285826384944
0.021083288100332154
-0.04368507415168351
0.017470358762214207
-0.018608898783805103
0.07106907626063273
0.05751601270675312
0.04196118053078207
0.07446568412507379
-0.050456310173357624
-0.15953910493671383
-0.004673038994768021
0.008218349745943132
-0.026888742237523064
-0.0034790603869738904
-0.03333740559224272
0.001436117181519589
-0.020047673378870482
-0.11326901934971102
0.004717801827720535
-0.002972103716755687
-0.005672569280492997
0.03994452570833782
0.032887665039839274
-0.035312629614524506
-0.014478746757989436
-0.029165121684889227
-0.009937597696762664
-0.004052529294561706
-0.009723986984824734
-0.0004952585467021613
0.019350963522875474
-0.009905236395233311
0.008168775445432458
0.0038125376522963055
-0.05535818309791994
-0.017362019171329412
0.010054726173600996
-0.005111610167317121
0.05708562646852302
-0.00037215241881688075
-0.013695476184360397
0.005270284758614529
0.02156546652317124
0.05226609000208881
0.011954991063909334
0.03398039018969745
0.05097917087980791
-0.03498400367978898
-0.008152222322249443
0.012482163005645827
0.022452128463548045
-0.018701401403294432
-0.010843010931004784
0.01641782775985781
0.023849415629281532
-0.027694715158359962
0.027629107184204877
0.006193749152062636
0.001023454844851639
-0.0008127594952374477
-0.023367566581624425
0.0011658788301850556
-0.026076959763775418
-0.010415646726438032
0.02048993641946427
-0.03580895537075057
0.03535423590585826
0.040399237849692064
0.003962941298696848
0.027398605376386005
-0.052007947846798915
-0.018745423709965528
0.04385982559970986
-0.00618526053999403
-0.030188256390416068
0.053134647808764764
-0.018018017296577208
-0.024108103663011027
-0.0010852552669096396
-0.045069267223096045
0.028226697253304983
0.15341851627474684
-0.019636124900508152
-0.013330185136109483
-0.0032171401694474767
0.010176460112501342
0.018818650335187592
0.0100034103634602
-0.04726150957559904
0.03424845660772908
0.011193597124591632
-0.022109056030313462
-0.022985945312591904
-0.027222860297539973
-0.017308202946807814
0.01703388257396871
-0.022385867152777017
0.000664251898248217
-0.07211415332973745
-0.0979789215810177
-0.011823785426670825
-0.03494515853006757
-0.008888898055713723
0.0015063297904614552
0.012102454168374409
0.010769154648099874
0.03998482399129464
0.002368464655510899
0.02391272633075404
0.06823954044151619
-0.005850020606206277
-0.03937644952329959
0.013283736209361323
-0.03141490626530869
-0.07868562876450566
-0.034954947139961105
-0.0013785645870134989
-0.004187045151263569
-0.0017658106502461168
0.013568308360821766
0.02807027071593907
-0.0384828716460635
0.032107252620096824
0.003535892348111652
0.07456442222302426
0.02335804931966919
-0.002243558130190928
0.033194789576309516
0.005104853934701818
-0.03005312249004796
0.11847642268059587
0.05280039330827434
-0.00992199001325701
0.010012430143951801
-0.006049477865317407
-0.002055995123233446
5.7014145625405025e-05
0.0010762071420164668
-0.017141020052674226
-0.016553070328009976
-0.030731935381603622
-0.04668032004573047
-0.011624355587599595
-0.0054267700003445335
-0.006835797643636074
0.014148294763889261
0.024076126485844798
-0.00505227176083007
0.023611585829137055
0.024574601076639915
-0.002742788876254502
0.00890374148835418
-0.006083993457784901
-0.005333838530109473
-0.008284983399729204
0.0015591235104893235
-0.01025139979847917
-0.002114447606657389
0.03709052938050079
-0.039608252519751454
-0.014239636221836287
0.046933509627327896
0.03395684569033404
-0.024019808568546325
-0.017024224955929635
0.06827985877011933
-0.03955905898407487
-0.12277187879348313
0.005989171452776839
0.010142862399975966
0.011020160668765168
0.024969246619139965
0.00029679505130886046
0.036611247776036665
-0.006507374876787666
-0.01427180442501685
0.022370983909923346
0.005442781380252807
-0.05036534723283444
-0.013562424247723125
0.009718654086048408
-0.008391503910794474
0.03376127697645033
-0.008953543594421834
0.05188317953062052
-0.09945392246453451
-0.05673778248775042
0.025413934946289168
-0.00528395891908545
0.04102738560282344
0.044163751710746144
0.06129334733822163
-0.007145634787431842
0.0005552875500584003
0.001604268301747759
0.02376318359335682
-0.03577175472428081
0.05267065394164991
0.017065334890784
0.0370919154262481
-0.12889904079838257
-0.1130760426154072
-0.05341521895188195
-0.013264716327869911
0.08186478231217088
0.0007086301051607266
-0.051147445944382315
-0.012263400801897065
0.02579438142027604
-0.015104550266072663
-0.006239086918220368
0.04127115039600468
0.010104997059473576
0.04964208206879791
-0.014154516016088595
-0.09413691279920162
0.08652323425126987
0.024116751039947395
-0.013983496141289449
0.010713477869124058
0.03165495605086103
0.02119402431094142
0.005935405034697847
-0.09281308424750949
-0.0967654204859313
-0.04363886711453819
-0.029442657307853812
0.035686046104202215
0.010358589093989798
-0.014004549490930987
-0.029655323459215305
-0.017198503003025903
0.023285238287460652
0.010429294412929741
-0.016428826648516262
0.019183955854139203
-0.011119582637467346
-0.008860846781949148
0.03210200129888981
0.032622796642922995
-0.01614228453779518
-0.048572709061560915
-0.022627793521171828
0.010232531619806357
-0.017674048595569092
0.03783954506012113
-0.012889358332657272
0.011197874304411782
-0.02086409432808643
0.005003442244896849
-0.027110820651089426
0.017770034013816514
-0.03471563710332238
0.2976031843334778
0.16218638845317077
0.03078339876412118
0.059492163594867906
0.10119940404522997
0.08419767901628186
-0.024907016925981223
-0.10749016688677658
-0.06434697643788824
0.027395702073003354
-0.04024596055469644
-0.009899078065132188
-0.050168534988188636
-0.009280808174354695
-0.033070404234843455
0.008787811597704136
0.013577973485863667
-0.039110750420129424
-0.0039673617661614155
0.02044870446650721
-0.03176817929380446
0.014679658989332047
-0.005258095642628275
-0.03692337564829062
-0.018019636531242687
0.0128485149444165
0.05048916975354831
-0.06352991993997305
0.04103106803175958
-0.028307004667680914
-0.09911902017383993
0.007669545701557315
-0.011149608283501826
-0.0028244995198502564
0.0076152487755074974
0.027434929966951273
0.003224298871345704
0.016475686617617252
-0.015182446330658433
-0.07027734007281318
-0.04355248614550716
-0.02099499431027887
-0.04250031190623882
0.04451514061454795
0.01613370113974588
0.04344849802286761
0.047474150917903676
0.01594021875703107
-0.004825958168305705
-0.006803884596974051
-0.037626598957766086
-0.00681287697593512
0.03788832385437773
0.007903124291321572
-0.0030406624904580196
-0.03330652160082043
-0.014709102367282375
0.007701675160520652
-0.043225491399086866
-0.01920295776301773
0.023685190358857466
-0.04469022699952028
0.028264858524497585
0.025851933871928665
-0.006742439145695372
-0.01163687076092621
-0.031299758315926525
-0.015193165676470098
0.024830396583321514
-0.02206832087259355
0.04505522297608302
0.1258066953596008
0.12808318292556914
0.038965337550246316
-0.05965143080833658
-0.0316528980910697
-0.0015027363612453075
-0.01436069402273514
0.02524589815997491
-0.11590738859849295
-0.05763662578332615
-0.0761759301889572
0.0207949320259167
-0.020057963432700523
0.00022896870979331822
-0.04541904259615869
-0.038743100480868924
0.03537244075344431
-0.004643521652602204
-0.0172725437878712
-0.014901287170661354
-0.031242384909871686
0.07495940906804949
0.04150884672963444
0.004827840353939302
0.035695240581108345
-0.005633420888349215
-0.005971972075761341
0.018377939276926318
-0.018215664399752703
-0.012483878210468057
-0.01729470225418757
-0.00142931218328661
-0.002261837603935014
-0.034410004275956696
-0.015433743985909262
-0.027954595638085677
0.10655574472259768
0.09446228039390653
-0.08211097543621229
0.24396293316577378
0.06749542935491719
-0.025042170111601845
0.024640232102923345
0.035038846260916745
0.005735698392776445
-0.009269801943745047
0.008325085868285684
-0.014795047685927818
-0.031840041081784745
0.0032709943027685344
-0.06875809254680629
-0.03568906156588541
0.05224913239852746
0.022726817902699856
-0.03546166198827824
-0.03591073621830637
-0.0068289453452659975
0.0006665277377500767
0.004565803561270697
-0.09252092906729215
-0.1351933622019637
-0.010361686678076803
-0.03138277466881352
0.05269854045971706
-0.016098420757757224
0.042007460519298205
0.0637061728756827
-0.06417489635412986
0.07957147249009955
0.05273175887858041
-0.019507137128050026
-0.020321183394761175
-0.015264829545879878
0.02128465773122808
0.0002082764593722418
-0.005671965427869218
-0.019755781823411617
0.03894172351184125
-0.04534692900227938
-0.16614196561592207
-0.019400115642805423
0.08256694002451548
0.027910665155656204
-0.04620717165684891
0.007653666787554068
0.03501210900816231
-0.02894650432005088
0.013905020064229792
0.05735152529904753
0.005443325003332897
0.0032902313480836667
-0.009323051383832619
-0.023880885087273054
-0.009965088430864346
0.011615802275608418
0.04339234502582724
-0.004236016986930126
0.02323908495810116
-0.06760775467717763
-0.11823015769130102
0.08876949106897809
0.08614960362177217
-0.012512780562959213
-0.008659008474793077
0.013922411720284642
0.0009100984260747522
-0.0031218068444082035
-0.02427129694568576
0.010268117365000894
0.013536664217614939
-0.00142389506358284
0.014985517502456696
-0.023449282980985326
-0.03520381832704559
0.013687957526346245
0.049963982281280336
0.030282573495576642
0.07063919718168638
-0.027788565955717746
0.034786972274637375
0.012601247002176777
0.028515580391279133
0.03749058903859207
-0.02035205348002334
-0.02993996131578694
0.024127051415376473
-0.006081907710139264
-0.04831817015720436
-0.024860279473639765
-0.00029825660465364345
0.06257499998921429
0.04560226908398665
-0.18170244209601946
-0.020125806412489355
0.0019967125822557994
0.010611298306815104
-0.0837864935291364
-0.009090551403668384
0.023170572387060114
0.013389896963032413
-0.029643818284828323
0.004977069332893842
0.0019439632330176006
-0.0072834969581230665
-0.040698537703268124
0.02481401830409362
0.05361338045098101
0.020562029839714793
-0.03265784054818499
0.010165886307277003
-0.03411909823600543
-0.05086119523896257
0.032528941365513375
-0.010905671808791036
0.0063808332118073735
-0.020104718189016976
-0.023243719042551656
0.1790192237980434
0.06450119315079267
-0.007846552425005242
0.005485326666839317
0.04287917177629631
0.03860910775130544
-0.010746148264315792
-0.049979042923102096
-0.07259586486592325
0.029178235238010337
0.036611488656149174
-0.016265967274807086
0.002257076013713025
-0.06709210770317836
-0.09842508104866474
0.008123507791104304
0.011999115118167415
0.014663272505862333
-0.02383714388091238
-0.05060466075133607
0.05415329314091963
0.01905064370303942
-0.020885786159451795
-0.021631813160884545
-0.02160707538942809
-0.023897828334372522
-0.016009113365202627
-0.007785276645703735
0.12407585913042743
0.14051900020176
-0.05848980272233735
-0.002997527256458578
-0.013587376445948263
-0.005686615068261289
-0.020603269930106746
-0.002459820602053808
-0.010723755743804653
-0.014362691845564685
-0.011038920064256915
0.0029526244543865063
-0.049915200220233345
0.0008561007477434178
0.019050476941413767
0.04080762408757777
0.0192324869190486
0.057242311759247225
-0.010355159268067357
0.03519344905263958
0.017520019907404163
0.014601899419895724
-0.06557751353730078
-0.06663421716420757
-0.0024185203670354888
-0.007861666507873583
-0.01100784021508908
0.003907982244881407
-0.017050444723826632
0.006824235594057388
0.004448967912525273
0.08437734639693152
0.029059031104273464
-0.012927913786577162
-0.052081583643459724
-0.11445639658510495
0.00248748505434271
0.03596117523546454
0.09341997365666298
0.03651840647741933
-0.02232596506854317
-0.03834279069659279
-0.0106638374939446
0.0275789423491779
0.024470268763988372
-0.0025672988180377313
0.022171135775796474
-0.009574062231199578
0.00333360019888841
0.010052878146702835
-0.033015471227925176
-0.013957291138846578
0.05519642031499884
-0.06682782990275546
-0.12488314435634479
0.03946536706084177
0.032809096735028256
0.02822975681982705
-0.016486689221504106
0.018998613075742205
-0.03403784002363661
0.023426245636399962
0.026417262044281565
0.05654591129820662
0.019997279187182162
-0.0029864019602411514
0.04932248198444542
-0.04244521919791423
0.01062419812124588
0.024551712618010577
-0.007823586834020914
0.009789258338489672
-0.042446385481871726
-0.047896232832050634
0.052420949781432184
-0.03679980052168183
-0.02248511340174711
-0.03190870471946487
-0.11088126774667983
-0.07978296900610791
-0.013195171576699633
0.026681833410135494
-0.002092200853736457
-0.006150498511884356
0.008682423306645986
0.0027720760874801373
-0.03097924327161143
-0.0227627349786192
-0.040170606155797754
0.13063130739629106
0.028203599848436615
-0.016700440166278464
-0.012460685756614041
0.0016499861723497278
0.012104697937792258
-0.024719515945310886
0.03367970746680207
0.03663122584839649
0.06609819209491524
0.22029788804419356
0.04841736279297236
-0.031364066645440496
0.002505199847146439
-0.06011828615165127
-0.08433898652914677
-0.01747486878935887
-0.016082375340615653
-0.01336551644411951
-0.01198807456518337
-0.03467818168668395
-0.029110447979655233
-0.02128346727139383
-0.03442319758610774
0.007956003129808153
0.02878559795519908
0.014086069085098513
0.022082512617894894
0.02143783216683499
0.014248281578568316
-0.0025374729416462916
0.02823532078179256
0.037337942964841574
-0.03411628012542873
-0.023613482707666708
-0.008451794296732474
-0.004517347350227074
-0.06181347249521259
-0.010359316084061217
0.054273039450415526
0.0033545253510073856
-0.042438155661067345
-0.0025285156899434538
-0.00992311811546881
-0.02323796353384188
-0.012678920111945841
0.10181368059974912
0.038228293496811644
-0.00485396959649597
-0.004955962567699258
0.029059954995856258
-0.006349120091270115
-0.00999643112286825
-0.008317311673097459
0.04182432247135757
-0.01526869027282499
-0.017017746829719987
0.007547374331564774
-0.01305046030636956
-0.001609757002666585
0.03544326258664593
0.0445495516777288
-0.050185295150229195
-0.012046833097843778
0.017090620748217166
0.011986292468012668
-0.013182737307755238
0.04725834078025243
-0.025423722790436098
0.12166088387823218
0.046755758599748704
-0.027668483634399374
0.015409477610315196
-0.0027357759484261264
0.0007450051706343354
-0.04193081156754589
-0.16194177779728888
-0.03688611153469862
-0.17935459539998008
0.020590250185531504
0.05356607712375331
-0.00023096581078075625
0.022641591685488544
0.02557507613920576
0.06172022477750272
0.03623596918926871
0.029880367221335465
0.033194815057236496
0.013398643918408932
-0.0017693046268416996
-0.10331066804782116
-0.059881263965268376
-0.013589544139785874
0.07595080096341265
-0.009054007281661832
-0.10379441525671919
0.012918137259160255
-0.014651171627923898
0.011649083594932996
-0.01686758583774527
-0.06661218914199103
0.004815735034667058
-0.02039997920088509
0.015376023818030025
0.04075293262306667
0.0004346649076463246
0.04070591890911074
-0.023250732093980486
0.031367350652676235
0.022967169364998416
-0.054248895162616335
0.017396414074899585
0.02277690098127639
0.0656964652089035
0.047230907479785415
0.02329582266413926
0.000144273452550682
0.010227936944819192
-0.00679968652298439
-0.023226633063047283
0.006835423302615694
-0.045992451835081
-0.004389813934135814
-0.022729521668911613
0.009587271068743275
-0.004953756309693328
0.03422656380938407
0.012698349184866446
0.03259285796972357
-0.1357189658773992
-0.08098757089893716
0.01372396395102197
-0.006775067961952542
0.010524935223747955
0.004065017544941182
0.03746048014100764
0.004297486966334851
0.012880533120481966
-0.020348415009110492
0.03132469930017208
0.08203082970619381
0.02244892283557814
-0.025652876481967155
0.008675904801669623
0.008643160496789202
-0.0124981200456999
0.028426663191408713
0.012933019875584133
-0.005742611336753804
