0
0.016849865413661246
0.06621779622829368
-0.02816277062028457
0.006549083620226138
-0.036043013950894695
0.0015044413492894405
0.007768689749865113
-0.02531358025296563
0.06192763358259738
-0.0346773629079435
-0.13204432428045512
0.02599230787225174
0.019786389256170638
0.05904808006486506
0.03800261379174487
-0.033173382541473596
0.005607278007710168
0.011456016561433236
-0.017974177695416874
0.013458322587223823
0.004763959013831051
-0.007553657019612342
0.008877566460258073
0.022068206904748613
-0.027710685278016758
-0.023242449545122612
-0.011581327570708712
0.024280951555963718
-0.05974158366544376
-0.010162361451260007
-0.011478275572784639
0.0020706993615994757
0.024424831350783504
-0.06821215392039276
-0.0010897564488454108
0.015374317751675134
-0.014133822356105736
0.032253066048518
-0.00918818660962009
-0.012402159019465876
0.00042040136230500895
-0.037567322971500866
-0.021320174190932385
-0.003058401992162613
0.0645385233886846
-0.040691285674162164
0.14761387118816197
0.2363581259258957
-0.14185936753542244
-0.12964635488313456
-0.028299819383429473
-0.020578269144219095
0.038716327997197
0.09066584876638487
0.004375886954310013
-0.02697532672691938
-0.006863241242850001
0.013665096715222673
-0.013931220980955134
-0.03219113837250799
-0.045081761591361756
-0.02499781756137034
0.10485746149833781
-0.054365919886716435
0.004536960185872614
0.09310620729794822
-0.014307198119829887
-0.0019367497897789215
-0.01906331506116754
0.008982794653268563
0.02206020901979163
0.08861477790226599
-0.031315172183940726
0.0038347391859714117
-0.00907829985602415
-0.030845683991852713
-0.019167791001858454
-0.0012964433665469156
0.02113474346062721
-0.003534700793018604
-0.014306148785424704
-0.014650317968350158
-0.009531956111348423
-0.001739665522091639
-0.004672482837318324
-0.017466622944312327
0.0031201859798301096
-0.02951521711143493
-0.034778418391866406
0.005324376805317965
0.004924581053514088
-0.002931386611938521
0.01006537895996791
-0.019824398230910298
0.013674395994697693
0.05153382055882664
-0.05095661856433998
-0.05623748465663131
0.0030243804487100298
-0.003190595415851479
-0.005304370026358291
0.021640744535448463
0.07191303620936809
0.1727745637571501
0.02931203143596704
-0.0019853917447299496
-0.0024824164416890684
-0.006108381289958822
-0.20885306840453377
-0.04839246455987793
-0.028579899248181356
0.10384923153751173
0.1015321756617604
-0.007671171217788006
0.028415975776829847
-0.047030997000987736
-0.02674473398668596
-0.022433172305441743
-0.0011093412668111262
0.016899619754010206
0.018597361689307524
0.02231605906918009
-0.021975717799201003
0.01151331472903823
0.004720855659578308
-0.15901275035973275
0.024305451988407
-0.018874680572222337
-0.06543433685033578
0.015009212128871283
0.006866923428564647
-0.01512124173529727
-0.0493990162003715
0.015361814169254622
0.06254989403667259
-0.002424072979838871
-0.018693202413671065
0.08422930374194042
0.0715067539656651
0.022477470748065952
-0.01238091108513507
0.11054451177931966
-0.07390704322532565
-0.09286782543746783
0.09509809817290976
-0.11301289377993168
-0.024447838454808773
0.004678803330048405
0.006560957140278221
0.071339843443718
0.05628242639132718
-0.05852823546174984
0.020830735956269764
0.02435173127129951
-0.012066469697495398
-0.016219517683497574
-0.007351502187638526
-0.030750458108922008
-0.004654218859188177
0.021870271009491408
-0.010624373496828673
-0.012146573600629753
-0.033604382917779584
-0.024559857306343125
0.0082102324938775
0.06269065343437255
-0.022240614001380832
-0.015696528348851838
-0.024697935786573078
0.0052333551485834965
-0.01802527935701387
-0.016925677348402175
0.0035602045670628194
0.030048106512944223
0.014169620754789506
-0.02063627149881278
-0.060800506509827844
0.004790258627800989
0.00808308937526834
0.05368882527145595
0.13479601087844387
-0.03065900713391582
0.01138259984585328
0.008822217392097445
-0.0176190512333802
0.021507963229521067
0.05515291525612321
-0.03541561012312579
0.009101504447458775
-0.022111831515661304
0.02560637126498834
0.03080484321747626
-0.031813813771256985
-0.13063137228285107
-0.032407055253597175
0.002875282685255813
-0.023451152001491796
0.036988061250177666
-0.03243228509923547
0.021243295044490886
0.02123215123586518
-0.00029349630865013103
-0.0027308525006770152
0.016268756415054233
0.020458530713783847
-0.013285728176531154
0.04019714341366525
-0.057710020963015696
-0.03986878807785506
0.021532783289986434
0.002406868415680701
0.03997202000761774
0.0005560043690992286
0.0025648249024736963
0.043840990573952875
0.04248780831765352
0.02107672218098588
0.005214457448368754
-0.0028211837472581843
0.03547880006225196
0.027358970876107846
-0.04104826842550822
-0.13071217922790135
0.02047221397484088
0.03294296190261398
-0.02994585732670987
-0.04218986327584428
-0.01280567993700921
-0.0031701779797816644
0.0007290124805119614
0.023385391234021752
-0.0026903039069304524
-0.02606073218434381
0.05696714077990882
-0.017630383728573725
-0.013417678753467381
-0.025208081941254238
0.00773066103123575
-0.0033115379109512136
-0.023754669920461012
0.004065821736774314
0.04440379646624752
0.012751819562697685
-0.008716319589336023
-0.042498686237644925
-0.03764328145080769
0.04072081524862727
0.00588120352316587
-0.00910638965472799
0.0642496991750767
-0.001961645046092205
-0.0016783031940376509
0.0029119463220198343
-0.06823244780447513
-0.11500295639859393
0.07029341966081223
0.02876159678869561
0.026284463705936335
-0.025116210745646
-0.001081771309852321
-0.02670818864098896
0.13786688519837495
0.028308311958974645
-0.032954294564950755
-0.05878838829323284
-0.10552284437138411
0.011757533720356135
-0.0008899563000249178
0.028495005738448924
0.022499625225728792
0.021392597001208206
0.0235192560069731
0.055899302057705144
-0.004154795868987062
0.015386067127082338
-0.01760608020342734
-0.009900144818968244
-0.065733434190907
-0.005983637343864302
0.01615100878990214
-0.026332457369825524
-0.012558871494763498
-0.0046076967968180635
0.08401388963166198
-0.01550260261195609
0.0980118114321275
0.15787009144484468
-0.014240579370543318
-0.015403546292910502
-0.012869848789899392
0.011685137271445017
0.004277267907566862
0.0378124101293475
-0.08095286473973015
0.007252080915751947
-0.09048970716796007
-0.07968117763688637
0.04069906646967205
-0.025521838835334286
-0.018867798366838467
-0.011374672045141393
0.020917683620632288
-0.0006915104826354988
0.009094176636122693
0.01855551113818721
-0.06111518845669531
-0.03653835367474659
0.050709049245911755
-0.06260429191039743
-0.03271143138062956
0.00240250229261148
0.021628568435785357
-0.013580288023845194
-0.001718869440963137
-0.01851730134087271
-0.06826239808510799
-0.011159398424981455
0.018968406539865045
0.006952905464894011
-0.026562272317089596
-0.03272071676723901
-0.019900688561828292
-0.007803204144774083
0.12122149116453537
0.032155927507540046
-0.021499001444737858
0.12109532498130744
0.06188444275150182
-0.04529167403509778
-0.0023434297581215193
-0.0158478975272555
0.08841706181986332
0.04262694488414811
-0.03002130018994822
0.051097654144657806
-0.06984957385002331
-0.020386483592512147
0.013617923804998381
-0.08475613169610832
0.009794831074501123
-0.0010323800782265815
0.028453084355825543
0.004203699558814257
-0.0349291880071811
-0.014053005186511916
-0.09503606979187147
-0.13070131558878034
-0.01574829395519557
0.006509194632445191
0.016384910141623184
0.03773454799010765
0.17949476455827681
0.030863396527413316
0.033596994022774496
0.10473921511848115
-0.013430587943416837
0.03842572423011158
-0.003558439585217252
0.012405903083128325
-0.005809008162037366
-0.039793944775830044
-0.019507562087197908
0.021833685541157884
-0.016854428593866384
0.011537355478960572
0.01820857352583308
0.0330791850313643
-0.08796383113402487
-0.08446174494419191
-0.01609620012061403
0.0014593210915617328
0.03657832742057972
0.012764878073302545
0.05277907603969601
-0.011453515358473646
-0.0338184551493005
-0.04007441291079656
-0.07992518867143739
-0.007780041615412168
-0.015636636396913827
-0.02846663392943361
-0.006216293767373711
0.011470944661560898
0.053627222749225316
0.02746499567754652
-0.005209409915446958
0.0073868148511050565
-0.008922002103812878
-0.024756863493016264
0.015728554445770163
-0.013021208132405608
0.04357166127431916
-0.03922507107420645
0.043687839542224306
-0.059444229619335216
-0.12687830369466793
0.08521298572936688
-0.006017954180687754
-0.02284899706084729
0.020282475867992495
0.03731717916049026
0.007261320019007613
0.03138472920438525
0.03538860536356165
0.01059334265791636
0.013625343446917553
0.03825370493857619
0.03152360711661093
0.04078202085987558
-0.07958290618158072
-0.07055023605949041
-0.011125692662171338
-0.007699771723333019
0.010781628513899301
0.005305200400288635
0.005615218019076603
-0.0038456610951283893
-0.024052192303982305
0.05803145561779878
0.027101548812343418
-0.0572224336482742
0.06376240437847076
0.008312923625090687
-0.06639118131876048
-0.056869541058634565
-0.03841328212549991
-0.0028169905595324895
0.030071087377362762
0.00137562053430619
0.005792263236254061
-0.016508476118523224
0.014072233272539493
-0.020723937244354652
-0.03607589503114842
-0.003070338813534629
0.008730502379096358
0.020365655050146956
0.022795896136264208
0.05836419677339787
0.03455932406382143
0.008931011450234633
0.010545929657182797
0.017012207684295143
0.0005374366272897498
0.008582503599273983
0.025776539534773612
0.020654694002589014
0.003817827605131435
-0.023127851772612742
0.06446382271012578
0.05601539814611239
-0.024220123121926965
0.010186807500081205
0.0021633935909328487
0.01633486452396241
-0.01402609128895746
-0.018749761815130418
-0.024350935567117975
-0.013798424545998875
-0.023516212972305515
-0.001189892089106627
-0.004063765401871852
-0.038969152103778514
-0.032007802758911234
-0.018603116084920174
0.08133092520443821
0.061995712272330944
-0.01750780895781126
0.021868216051853347
-0.013014040599856629
-0.14038192619276305
-0.006263639506161936
-0.012329085545265912
-0.0013837024039332847
0.03954992333812884
-0.01929203541476402
-0.01587916620460002
-0.0029788537248041902
-0.019045191951117334
-0.14918294762184806
-0.02955997603336693
-0.07714702311622067
0.0173946105653271
-0.0007584479882356152
0.022661943430049267
0.015058235488114939
0.0458982605970252
-0.046101901423652315
-0.018487454040962147
-0.003395442577207211
0.07705910841814269
0.04225655151411343
-0.027183360305245735
-0.04088650538609107
0.00023851966311559585
-0.03803751664204111
0.02017964979952261
0.016570039573782745
-0.012042500861862013
-0.014633149742516277
0.2593169550252841
0.17042093383471085
0.001329513930771526
-0.041633118998527036
-0.026272610040771513
-0.0027359676896808855
-0.0050332973572418645
-0.037725966296102614
-0.03341655329177818
0.02529073195199406
0.008543370126675798
-0.002077092283531388
-0.020736809359858076
-0.05771397305045005
-0.0270446934276897
-0.024088910664608568
-0.005372669698238627
0.0018275887316784368
-0.039073654456519086
-0.008707554313384177
0.09007199279163136
0.13135270889383896
-0.03602655387899792
-0.020941380573075326
-0.04538752580614108
0.026651582637209827
-0.0219362883373325
-0.019750276647241178
-0.0017553291553416878
-0.028108668403226664
-0.04742108849480796
-0.010666251698258794
0.04682056825326652
0.06710889313839191
0.04920905588980695
-0.0206216782896494
-0.08557019963787384
0.015117687411596411
-0.004772338892932966
0.012433201538338374
-0.027947533499347255
-0.012971199989250686
0.03213758239732295
0.04443079796891094
-0.013859735182371715
0.009391137488067254
-0.023519630083634394
0.0016345657160938935
-0.0003664131981674843
0.11546093567906973
0.07767143404293166
-0.050945628667696044
-0.128856431828995
-0.051527542467920566
0.003978384915901388
-0.009778403137929938
-0.02207250221461423
0.10679654180247307
0.008602071143511343
-0.007440074690345568
0.004949511494469109
0.017294079680481737
-0.03681854447595182
-0.1189129588726515
0.0461889774345029
0.06339038574940262
0.03682337910225257
-0.021181294993332603
0.010688580079234558
-0.020209836387505696
-0.0414844508643308
-0.02321840525478244
0.023903483685870794
0.04469662013218853
0.02899709007236793
-0.01608616764221968
0.0032861843301109452
0.008282889747604003
-0.07872642818010114
-0.045541690767373605
0.004664993306328894
0.005951417293749565
0.00142137825378813
-0.024573178314589186
-0.012934068892432994
-0.03082311900913645
0.017109489433707943
0.054276679873533
-0.010808655662491864
-0.14738188713881267
-0.0049754847142485775
0.023224940695284073
0.03346554168848605
0.025851126018473555
0.048387790078403894
-0.020152615400735766
0.03081982930750214
0.013056356826740714
-0.008761356081859413
0.04086889933456883
0.0235783686031098
-0.03333914919425156
0.061489423089023054
-0.028149338874182167
0.016540585623495075
-0.0537451033839123
0.07542481084045047
0.15500440666880053
0.0075301869439212375
0.042235779380362506
-0.03257266482213798
-0.05273503246668424
-0.004265373839059237
-0.005795157993012796
0.014332798296825712
-0.03219980432522992
0.005852882714074237
0.005564535283169198
-0.14643380347608384
-0.04608329679118593
-0.03717891067078987
-0.0634795525751157
-0.020318535593364728
-0.039557837128272585
-0.010406851504066967
0.01057007123875788
0.012222585786256094
0.03734321055789745
-0.003085503321370233
-0.02744175050295991
-0.012450178977421698
0.015460178603141606
0.028392626316337568
-0.017281102447057505
0.09468569033209276
0.03672846712646855
-0.021567632347444108
-0.015908183043896438
-0.0063018618215917605
-0.023598349457108755
0.008637092640728981
0.0018389512887349469
0.04540478535982294
0.03719995856701045
0.031734267295087944
0.012741702785162918
-0.034823348596964426
0.05312870903223151
0.06380769314541886
-0.0006748642950960596
0.02365769762249581
-0.0056578010793746384
-0.006128384035465081
0.006117122978117183
0.017143933393862394
-0.012783449587812553
0.005496920664038833
-0.0028493677945505566
-0.02894899013520325
-0.0015575414672894493
0.0028251020674694115
0.0091973553766844
-0.03685061834792707
-0.039745579556691266
0.1060143128715846
0.010111537491678186
-0.07935706738937745
-0.04957528204104153
0.06365518751850971
0.004134027547077757
-0.08241713185896085
-0.014356267583315084
-0.00104770341752945
0.04357425988543838
-0.036674060491874105
0.014646991319229785
0.016397664161810023
-0.022491694583079983
-0.061509804014256826
-0.02772915524363423
0.005637787913681056
-0.004906967170339346
-0.006042989943541735
0.004672963804885443
0.05800762985570528
0.02110358451862889
-0.021555193916898707
0.007571871729963959
0.013516350019236447
-0.017019022823683512
-0.028624015073615186
0.006716838433745517
0.011422292769854661
-0.03030542844118868
0.033534769945171176
-0.031990140302600535
0.0106520650978258
0.027610552108351796
0.008635800265369238
-0.04563683551264214
0.030274796784536
-0.03854895464816613
0.000500730487591074
-0.005524433572725912
0.009371935701728139
0.011101169200532184
-0.039574137958328835
0.058823623006433325
0.0407503958427383
-0.01763598730296654
0.03069382326562643
0.01673575135094944
-0.024114928456985575
-0.022843077362886974
-0.033993573062957194
-0.006174503390193506
0.013559846330316197
-0.047567041333544946
0.004481074443393172
0.022919898932657515
0.005366414813510817
0.022560151303485293
0.02841373901092668
0.022397160896316094
-0.003972174572311039
-0.0033154220764839253
0.02393374749422017
-0.01726026162534606
-0.027546242970850912
-0.003892373673547544
0.01894279627612427
-0.003627227476252305
-0.0451566112007691
0.04400150891350034
0.025460586407459386
-0.03552887671162597
0.059993294742985044
-0.08212542383054638
-0.05213919526550952
0.03570251240063407
0.007327080957821279
0.007390348453985009
0.006347258141043523
0.01535572805228651
-0.007116299762886083
0.04592965402136053
0.002505880440051225
0.0039925371989765765
0.007629080576817339
-0.018976124680354027
-0.00942637967898026
0.03303759857205828
0.05290775057489613
0.07390991483710742
-0.04433869060554997
-0.01246889012971776
-0.12803459370622294
-0.08077248265770523
0.022581720518709388
-0.0749316581852219
-0.017726091053637927
0.001431432677582227
0.013344791833614745
0.012401084680326748
-0.0035899391988487655
0.0693126513183719
0.04270997941930192
-0.01827321133416689
0.022124278923830353
-0.02081190102516779
0.02721009140691032
0.0170942071525963
0.04185960466588094
0.0022820279760405473
-0.00399111748158271
-0.005599400816729113
-0.015188253037318479
-0.004527272709890925
0.03067266733237585
-0.03591647812456199
-0.003246581082454463
-0.05430003420334611
-0.0049583393780262925
0.02763914875541133
0.01516358729100489
0.014841919316090593
-0.010629066650254931
-0.010507856568757034
0.017745887053204012
-0.015971131493153524
-0.008410862654859623
0.0050242711337059286
0.019429157274070394
0.03497831740549959
-0.0027463938966549362
-0.05963103099596153
-0.01286978357585835
0.048479444388450706
-0.016045752134605507
-0.018720479414065908
0.03471079889023851
0.03853128987549066
-0.007023402359174934
-0.006495795747676221
0.04708179679502571
-0.0005844244381990172
-0.046073367680495025
-0.020106612973415018
0.0014303395978302069
-0.012591312775120305
-0.027843340914937256
0.03781931112173772
0.004685573137275796
-0.0166660463391644
0.009573514721499303
0.005623498330080252
-0.0029490770878813346
-0.005721472566239586
-0.003765520042927838
0.010975289026823534
0.05491042561842699
0.0012308514901290114
-0.08182475362670681
-0.06343317115681013
0.07283180600642174
-0.020444695482149774
-0.09466369899588103
-0.0936325814680979
0.07933594209332175
0.036441882355404215
0.040517319069318415
0.03496392043370203
-0.027373286352991234
-0.00418960950730562
-0.0060966604016101785
-0.0024337289244104315
-0.04296085530428318
-0.0497635590700549
-0.04929397057808728
0.02621136908758928
0.0844406596230595
-0.017021028768024873
0.006485493661536499
0.0011858377541466068
-0.025601566835411805
-0.021660179279738973
-0.03372318973288655
0.017049353153380735
0.07044911590097777
-0.059514120012302336
-0.013371766816413907
-0.04747339202023147
-0.011175864884894623
-0.024156076561251225
0.12440648451995664
0.10655612648041053
-0.0023298876424933954
0.023829716400226332
0.12819234156312626
0.0762000424489167
-0.04030585866434894
0.02932764156515389
-0.018585401845810572
-0.019302333299011022
-0.006085134495515862
-0.04245753915546253
-0.06863233552088234
0.020906125891393863
-0.018071080278363464
-0.04991193784226519
0.04016727592020567
0.00016944953591161972
0.00945026908014178
0.054497751673534274
-0.0009837182613076064
-0.00010194551582122686
0.010643474309736356
0.07883394313226678
-0.01534943480726023
-0.04678166019709055
0.034873387468233825
-0.022129511439249672
-0.024958157168020797
0.045051294704008454
-0.017720292805011726
-0.015945363192146653
-0.013555930485133922
0.024926544986400873
-0.01403437761953929
0.002553493365698887
0.0025463525859592993
0.01990229368863768
-0.04326574604554458
-0.036990966068485044
-0.06593186653905024
-0.07979332103835945
-0.04652027694703579
0.0038762385116164143
-0.0013999763189204211
0.00038556858184779307
-0.010074706654912342
0.028994814357083537
-0.00024370114593770778
-0.008092188975775896
-0.041854383826635484
0.005763105794128928
-0.012320104063306138
-0.014172457731838124
0.06365377028279172
-0.020304200512372972
0.00583697294109543
0.01955992769549368
0.0442889836897824
-0.01810483312034458
0.03248036062475189
-0.06040441968373348
-0.04614603340154336
-0.029042382119214373
-0.03557826876774227
0.05317264375913023
0.022754076142412566
0.03140897937036301
-0.029214012982779924
0.0004387721820145941
-0.01658352914385928
-0.0017368865523325527
0.023982197795623668
-0.021154296605698217
0.031306580308003894
0.040181471873829165
0.008614352330201198
0.04793955527561851
0.040729131670107215
0.017508522078996714
0.016028010281903184
0.020767745232162436
0.10291540550477542
-0.06218596412641057
-0.039847042273926554
-0.034141805633867865
-0.023544700857073435
0.014525718629590288
-0.010172300251012734
-0.03309501007709912
0.002033173482544916
0.07221796764376079
-0.01332583966324899
-0.02236026444259335
-0.0019046031068604226
-0.009006811748812482
0.0033317372854520795
-0.013579415903733854
0.01347791920673995
-0.005829717573543778
0.05237212268466638
0.007742168889702084
0.01870726302409108
-0.006822040087402391
0.08450667358317586
0.08241550995219615
-0.007179191160571789
-0.03536434255819662
0.014507610570945904
-0.13405608177052936
-0.05812665036555975
0.07288318072510772
-0.03336796335269231
0.0014460479309915321
-0.017635030162412992
0.03309433655742646
-0.07427492678949524
-0.03176861000941368
-0.004146296634415889
-0.0006920160951035273
-0.028436554201421965
-0.06232546278912875
0.008977574854725489
-0.032247546423964414
-0.014619953539073093
-0.008500537247421976
0.0029495196880602505
0.01822676990776814
0.014909180452018682
0.04903643519444051
-0.057513447857004255
0.011134770205939585
0.03733129980781284
0.013573313765292814
0.010580757442284334
-0.030787061961791578
0.05044447271027465
0.010708964361209715
-0.025655410673964974
0.008255383750266118
0.07234131109796524
-0.019260676428506263
-0.0006902660303325201
-0.004493034040440059
-0.01409323435314873
0.035638941431229816
-0.021969089351102034
0.033583645348094104
-0.010623369509286572
-0.06292683052704112
0.025900423339784467
0.005200708879488108
0.019957584334396646
-0.010004486837399755
0.001777726080939503
0.009407161146850819
-0.00419817119160604
-0.0024604896705223956
0.006008713529414041
0.03174549436430077
0.04886694211594479
-0.010226502054020889
-0.014012366767025285
0.01786068248487974
-0.023804876786272213
-0.011335985839092143
-0.01755499072809577
-0.06150878285670227
0.01898654413524669
0.036507201529326475
0.005422888675247531
-0.0038954008397222937
-0.004429583033036208
-0.2193722568531749
-0.10924997643768788
0.007457117995315336
0.17243479165229897
0.10163859988581679
-0.0033452499070756314
0.17365273680470408
-0.0344539402358691
0.06312187569951022
-0.03882428019092047
0.01768324392220638
-0.03668679257638047
-0.03336778263981227
-0.08089846111137744
0.05182820896933832
0.02074655825804373
-0.008728778030884583
-0.03620663434063026
-0.00614428445638376
-0.043633468404373196
-0.061898633877078196
0.019858487922367694
-0.01686733570354868
0.01307701002075293
-0.004662197557707133
0.011719237522489061
-0.0014444845142063713
-0.012303606923755643
0.010638606154273015
0.03451867749307845
0.019481429502040522
-0.048792362005186427
-0.03682957637703262
0.004481023260198151
-0.023580070274979752
0.0018259033588902168
0.013652885956681089
-0.02134950897792168
-0.008096823160052152
-0.016200759443193827
-0.02233835791463874
-0.018095500886391492
0.08147926482668932
0.0403116039109079
0.0048184619037529046
0.0017514388971876748
-0.004458737088955027
-0.023577840213800588
0.03880585569636288
0.09732834577299518
0.03317724113321653
-0.03149836499179608
0.0024473998733647757
-0.05145102772425027
-0.04504053327131608
0.005085658704526576
-0.013876440219075178
-0.0065379987711330885
0.05916678477935114
0.028944222720513602
-0.04208213908751073
-0.03191753505930086
0.028051172497905015
-0.00896774103390414
-0.01177043557640544
0.0038053107835224025
0.024153248617098482
-0.052974067515300406
0.012565975848156127
-0.0020950776950885183
0.12868501857887563
0.07286495405587887
-0.05567080254674624
-0.03895245517558306
-0.03242209879400773
0.013643520705058277
-0.00820498647428733
-0.05957354716724116
-0.0029075927983594077
0.0028623598065653437
0.04392107333821812
-0.011770794996018517
-0.05003463267376991
-0.015331361649016913
0.06634419715058884
-0.001558903101279326
-0.008390992371029532
0.02433757971439344
-0.014460221471018261
-0.05868045498432615
0.11489907016938788
0.1688978178051341
-0.05746160118771588
-0.02902033405602126
-0.05685914820856968
-0.030852876116409394
-0.04181925428503749
0.022829318795103002
-0.029595078317014578
-0.023101369538339033
-0.05701794207254932
0.0003508129713324169
0.03767558670026753
-0.04938378831067968
0.01129245702814336
0.029938227235033053
-0.03766772376839581
-0.027773527485954616
0.027585058302759754
0.018035873880391417
-0.008256370247628273
-0.0380002953908594
-0.011139115561369647
-0.024150019717835723
-0.01314573914295523
-0.0005267119193314146
-0.0009393506605653097
-0.03126158500814836
0.13291173846608192
0.17022487869802644
-0.024203019344456834
0.054613904472755125
0.013658977237306592
-0.007734981810873205
-0.06258701430247693
-0.06402718156613783
-9.032806618635176e-05
0.06063570841548471
0.0008847491892353235
0.043203273302575874
0.03188666508801691
0.004221401769020675
-0.008218575979955836
0.010839069451288928
-0.062317478515182205
-0.02122578301071703
0.020794370180770214
-0.06435377442405349
-0.025315328099351293
-0.018858903067761966
-0.021544791654651004
-0.03876911476190735
-0.009395718785287556
0.0029260884961343353
0.017698085196720014
0.00565833422801132
-0.012562531127922324
-0.004414881550050306
-0.00865312803590563
-0.001333726470831142
-0.01758222772501059
0.009712008792817708
-0.01547109600758278
-0.004331200538068444
-0.013634944891757308
-0.02229013632698371
-0.008470265915340645
-0.004444464755669281
0.02469697608766217
0.01922191781688255
-0.017544498497418817
0.031122925264258073
0.002017196656831447
0.0019332131747627091
0.025597288787621963
-0.03952172777704406
0.06865952491999786
0.04498252579339844
0.0014108326550090029
0.07006994691859682
0.0014420183220436276
-0.003449427932117922
-0.007803271414550192
0.013971889770519342
-0.02299326922736874
0.02865026499342873
-0.0015487104032519167
-0.005850151950759699
-0.0326289815088803
-0.020130741447070798
-0.013426262916119303
-0.021093697683516863
-0.016998805808118893
-0.01367403871193903
-0.04423664225849111
0.0014165833678485608
0.004012518350078128
-0.013900372941567736
-0.016201616289124917
0.06234040990110842
0.07362621710094189
0.1410861072604882
-0.037674125144929495
0.0637251852316618
-0.1471916664160368
-0.20240996993376242
0.03994231956100166
0.013944724338046709
0.05218135691172329
0.030710671588999892
0.04289530849788211
-0.01378450554869303
0.03073622144046484
0.017650301059138597
-0.01224159984755907
-0.014159663986652693
-0.0049330451206432025
-0.006662045057100377
-0.013468915162536848
0.004633091516182912
-0.025096024128567467
-0.00023054048686430739
-3.607743282024662e-05
-0.010780454437661213
-0.04537393933002368
0.018196919700572602
0.03149360424093776
0.011043234429117805
0.019912091194248718
-0.018875191913359967
-0.02220964868021076
0.01756477160591446
0.00801442536847471
0.03345632060661814
-0.1315267636376678
-0.07232276822622821
0.06106741124469729
0.026848122649707495
0.06262567149951605
-0.02797032319688486
0.03606501348547766
0.020941279657392124
0.0665592731330297
-0.029268915375657772
-0.019888509476164145
0.020148521118585665
-0.047263493485622816
-0.006131615048910752
0.05971526839934073
-0.0115782512031139
-0.0038498925225037618
0.009614417073627868
-0.010558407403206287
-0.021467332618826638
-0.0074672849399447915
0.013814753945594465
0.007893916809515046
-0.05538485993804627
-0.12868460367695422
-0.09649832409496509
0.05735547631081136
0.06154738281652238
0.02462508921345648
-0.004192532112437787
0.029123212185918443
-0.007859820207202696
-0.01636826268221609
-0.020554256469498603
0.013436651923646601
0.006858658430888029
-0.016723367178512416
-0.020708931296837714
-0.004942640565858815
-0.004990941437248177
0.0035647372738583987
-0.014850284452044173
0.11930817610117891
0.0975976057661093
-0.03414516107372036
0.07384721883473
-0.00786097618248739
0.010087564025245693
0.01291826144164164
-0.010300920957923933
0.009952344067510777
0.1683978216077803
0.04037028795027179
0.03378120544654472
0.022081826965000568
-0.09125060474115347
-0.09649725975299084
-0.09231461078451579
0.0023343286953942193
-0.008447550939938478
-0.019480636840626744
-0.017227518290949796
0.014372195037762225
-0.026659858969087097
-0.06038861282793331
-0.15641832294589147
0.07714334499385388
0.036693501959552406
-0.011404011182601165
0.001279255682474946
-0.016622895889315717
-0.027822938408001593
0.037186033539557344
0.032051233640344026
-0.05239295572614221
-0.014619138809040444
0.042393765191026375
0.030326603803354526
-0.003924345819549499
0.016464684005217244
-0.09945707259888331
0.01494077623721498
0.01107372221654412
-0.03542836670801442
0.03008736002988123
0.04946229367407741
0.04351970499470626
-0.01806093653772111
0.00321556538673148
0.04752152683788041
0.02310996761387181
0.015044096228796369
-0.07025051603758661
-0.05170285466839206
0.010064561316234434
-0.022771335216714268
0.024798751261751552
0.011710590852568994
-0.0034080754696716405
0.007304033721555576
0.04308881653895874
-0.035134465136630835
-0.08619110194235444
0.0008497940915719688
0.014503182619533072
0.028397710346767215
-0.01188994268951178
-0.017303251058941108
0.008467607962029555
0.012588964801533126
-0.025072766246278688
0.021800328195579758
0.10969221632997478
0.06713874530487642
0.024547506362206352
0.030771161731269057
0.008335926866568678
-0.020631795940819958
-0.019866073562587128
0.023505412762284426
0.007702951796887424
-0.044397322900079125
0.03248188860082624
0.05540988610818112
0.03365535896388699
0.007002407818030757
-0.05625566880617403
-0.014013911737696533
-0.017434490069197194
-0.024600427587903612
-0.006062090883865868
-0.005345689445981896
-0.17031496072615673
-0.04947324564075646
0.030110216405475076
-0.022408558762855024
-0.030756305474822263
-0.010158167402290757
0.011535991663197109
-0.01274089714963261
-0.007197781637226245
-0.0003172877437800762
0.016718446322995833
-0.020672419085251866
0.03207644042324256
0.08738280559988706
0.019291176265765327
0.01900275335765139
0.030459590132958063
-0.0038738527833649034
0.026220665890828193
0.009765866247295791
-0.0771475544757442
-0.05832805684777537
0.06481998776354868
0.03295855215768245
0.008347489157262848
0.027400308620966648
-0.021807237735253074
-0.011960355779350215
0.03677152333674572
-0.035202455450995845
-0.031155482262229466
-0.01692754534234866
0.0033134978103563895
-0.0017735579728657453
0.025589766420106425
-0.01801537856214557
0.030005834692394553
0.06884391413158558
-0.036995435802392375
-0.00691767186041596
-0.007909275529263581
0.006839426821281096
-0.04393775180689945
0.017053786025935637
-0.06934607702234416
-0.2421534141347727
0.04509115122588371
0.013740457327451905
-0.03226310394392985
-0.04947535476514419
0.008917974936735183
-0.011928579903959272
0.08486767341094104
0.02977334858782541
0.04701086508043404
0.1758853847229227
0.010726837159472622
0.013885498926578655
-0.02510600588900185
0.01828098866961801
0.05167505513044187
-0.005793187901675844
0.009450732428195977
-0.03465476832999437
-0.005372092725616127
-0.006805877236661822
-0.017176647706616612
-0.024480014411086805
0.008504514979800247
0.0349567332472053
-0.03133078379093646
0.017181457885053198
0.06698241190338743
-0.016605842736055025
-0.03887566079764541
-0.020193103127154284
0.0165647111622176
-0.02146097617843198
0.0684168800270541
0.0512823259044137
-0.03059853656399244
0.062249021087941524
0.006741044067040809
0.004210155281367933
-0.00106639655246826
-0.030380420522163144
-0.11154126753835096
-0.036912919902197035
0.030741676676022584
0.01672222201812881
-0.04442829098821145
-0.07194843642344975
-0.05179672856542766
-0.020813851730195718
0.000435421653728382
0.008247852291463662
-0.027810975024682282
0.002433895745829085
0.14474273415222338
-0.08407830460141091
-0.025762251108388194
0.019007882775777547
0.008717313271519932
0.000327874821298428
-0.029253432934094357
-0.011533073656035094
0.02518895252435444
0.05085521384751173
0.151695972065237
0.009274187540715628
-0.018116765461135078
0.010720538221030881
-0.019416510537534265
-0.005629307683398493
-0.013630096905434716
0.01344905988055538
0.023729318509724293
