0
-0.03125345068161086
-0.03646830619563322
0.009989923454425629
-0.01728633578885001
0.05677284763809422
-0.01761020869858541
-0.03337537972404676
0.020523355876016548
0.0152890567175171
-0.027750655726411166
0.00235798703641135
0.013291347992155159
-0.04236183664188462
0.02826973805162829
0.1846856986489824
-0.0689075535579226
-0.04005096394409723
0.0067995120604224775
-0.07835566987914792
0.015038221769383162
0.16461101225711977
0.0017358482629434547
0.039593335903173335
-0.009360467355439477
-0.052595124759799924
-0.03254548753168805
-0.005682903959593324
0.013738877220389769
0.05059298268687377
0.0626871607044102
0.020500654904442483
-0.09078326552163786
-0.03221874833853804
-0.04069215102708636
-0.012986367611058121
0.07354278496685823
0.010566274753309566
0.012613062517320821
-0.00611339484245506
-0.03253878505379137
-0.007739353902225569
-0.01645697508687903
0.018408530896021007
-0.13918066474576649
-0.05983478421977861
-0.024111079141795597
0.00017253668269489767
0.09002654952725406
0.029326622505956305
-0.010645827331263907
-0.04309455417440256
-0.015054873879067095
0.005514627938984548
0.038457646200215634
-0.012439135866904023
-0.013569670813981596
0.006842923969218236
0.014233091162517173
-0.027594776230256364
0.003904913443556645
0.026095802357535315
0.07075420353568869
-0.005897356325822699
-0.009145466131068732
-0.05260683245967156
0.012940560038411665
0.03887111145001613
0.005913743240438662
0.021436477039372584
-0.04686214187756899
-0.009965378475151656
-0.05882352487400488
0.005660672624787208
-0.0020674500784006464
-0.02588527838264484
-0.036501063967683406
0.16155832611433726
0.13443202612027802
-0.045461481375942504
0.007128295394229247
0.004739533723605664
0.015356583040776455
-0.008324279673229941
0.0028887386560864903
-0.02181478699378472
-0.061723736575848294
-0.02306927435688858
-0.038024861253485566
0.01998288869801732
0.05644415205043091
-0.004732713123675684
-0.04508091672170314
-0.0038220321314685174
0.0229512809420496
-0.02066100466334823
0.006206202351851575
0.002864376994825231
-0.027471513988081724
-0.010285380414925719
0.004272944343846475
-0.006664363849251175
0.0074828895408462276
-0.008048378907175434
0.015118996187979518
-0.035710522645854954
0.05478969522022644
0.013254325059322626
-0.023912813265544054
-0.015069677698835725
0.029157055997717847
0.015498397395140313
0.0010148746879077221
-0.0022949916466799606
0.008582102996831304
-0.01688900074374263
0.01280653779897644
0.026182141365103776
-0.01854760999509385
0.022720357889978244
-0.00023633289857347123
-0.0012054561248552237
0.05111607125568498
0.03122415388798791
-0.02887970131942252
-0.03390883948416452
-0.02955618766172322
-0.036975454085249305
0.00864970049601307
-0.003738229255661307
-0.007237295746550493
-0.009831190569019247
0.010990393882945645
-0.1602836004790914
-0.01995665093554729
0.08579857739290735
0.015885529298660633
-0.00812124543459586
0.007538054758935088
0.01747717975823128
0.006152917298852545
0.025990505692091794
-0.05004779677977878
-0.013266033565089841
-0.008509170972318762
0.019446232093566374
0.017971820359191433
0.06745583638964747
0.02103194107728636
-0.017295194847477026
0.01158517138886914
0.0017346993937788304
0.0016837498579704371
-0.05774274665060304
0.009654376230045867
0.028269096542214774
-0.0014423853503582214
-0.023211372266203227
0.0025012256067908057
0.03617675797464356
0.05837229148674197
-0.02090665522048361
0.03647066763114733
0.018721079775344894
0.0016939310314254567
-0.01071576340864646
0.031815228729357985
0.004573383715670499
0.014820628226037632
0.00024441573223489674
0.04541549633506447
-0.04256581692025797
-0.044479315582722334
-0.031596256694346146
-0.028244661058833605
-0.054072984400552936
-0.08210495059267732
0.05042174196993591
0.012144303345160205
0.03815421244430587
-0.014324117049610221
0.007739275596832609
-0.004690796468100212
0.08308713817158335
-0.11116736355829
-0.17784871286203205
0.02208181193668207
-9.039005780802123e-05
0.0030365186582078326
0.05512867612950562
0.09216479599309452
0.0032120953476429863
0.028663675431475324
-0.0028019190304271508
0.012472283451567506
-0.004618185466640596
-0.0021100061705505405
-0.0015428788844052696
-0.004923624435190763
0.06638522303058994
-0.02470922665648965
-0.2347293997486722
0.022471002989844214
-0.043299800984658826
-0.06495984102444918
-0.017921418111871278
-0.011665365844451643
-0.029590378405147506
-0.01069813479036059
0.04405306595202896
-0.004429455970053424
-0.04597485734578725
0.015434498201791038
0.04567912580321027
-0.0135419608005519
0.0703307318363997
0.024590665933246016
0.1289305313294614
0.27400741199359385
0.06620158560888821
0.02587693600850576
0.023324774524396234
-0.0026274764061752598
-0.032902363574224824
0.03517370680708709
0.010445167550340407
-0.015886285764980055
-0.02188399536033601
-0.0281961923572674
-0.03179632763909834
-0.018840841558293193
-0.012026886006036578
0.006609387972985196
0.00353267188552086
-0.04691711990617363
-0.11595827809951603
-0.030124219333418016
-0.027360624854578047
-0.039122090356775024
-0.025697031932740873
0.016007337484683217
-0.00500000129900907
0.0016391674223570872
-0.005167591746618568
-0.0007796381154697617
0.047429803298596696
0.07935715377960689
-0.012984927932982974
-0.03494034063280852
-0.004736764150221854
-0.0010033278056892074
-0.002425398512588163
-0.020272578307538907
-0.01775473614980925
-0.019776795725704243
-0.009872589332189426
0.004159008118090828
0.00340318928476442
-0.03920552704389743
-0.01671884485850863
0.1728459469800843
-0.015124977016987274
0.03235637857248024
-0.00539936709683605
0.02974068338225556
-0.020767772943472672
0.03076441075406966
-0.03370885968649746
-0.029107066107200496
0.017328723585316425
-0.0061132244791171145
-0.014069598448109857
-0.023504690766670513
-0.012088042095095482
0.018393596475141806
0.005852975302728002
0.0013349127741208418
-0.011551931384476648
0.0014254565542857296
-0.020193345127908605
-0.0430208902957041
-0.016238692016962587
-0.03273105951346987
-0.008927210356988615
-0.0036798849933202798
0.0012904824348536031
0.013706555977198978
0.1252682314008586
-0.002564702554540599
0.004203288651581685
-0.012599267882895195
-0.03567331904244922
-0.01494392103586314
-0.009445084106585667
0.010531521959116994
0.016222629475333414
0.04461140075628957
-0.0009141777609591731
0.009682466486937533
0.05675640118632313
-0.019337497780852326
-0.06423376134400402
0.03903931466673573
-0.058922327931011875
0.009260678121480036
-0.03028009941412712
-0.012743868031696498
-0.021670249118587104
-0.04207139204215013
-0.011276293132900855
-0.01215107923425652
-0.011840493021923155
0.027248731791088734
-0.041698917735598376
0.043191477564727486
0.04924914367234075
-0.002484557030239608
-0.018648714776440464
0.09096433592683388
0.12629425346225348
-0.03163118891813554
0.013105878397931429
-0.023489174101811925
0.019272827211743268
0.01575001995103849
-0.026272349195144835
-0.030797531649665442
-0.01238150370585942
0.033738743168036225
0.005835329280693653
-0.011500312894996244
-0.029766274585876717
-0.024326001859425322
0.0036864542424143304
-0.019544204670375893
0.020662723510813986
-0.020322444232273543
-0.03759142088809623
-0.029321685239231583
-0.012850091830580942
-0.006854956324847698
-0.021537175901738728
0.014200444119297067
-0.029301741922588533
-0.03576527281843373
-0.031116365507763977
-0.0004023412879790007
-0.009768503216199155
0.036778976292918306
0.041393806319843754
-0.0069772006341418
0.10223638425349205
0.030649889827512204
-0.014898027574121855
-0.018094636491840517
0.011884169372339106
0.022093646562029362
-0.020877006930740315
-0.018724705562902417
-0.0041394882827582545
-0.008069414842361072
0.0014406252298370546
0.005457186662411174
-0.017225920369883612
0.005197980372954074
0.012475267120634017
0.11151083855979561
0.10309403861621735
-0.032064291888934164
-0.017441436078396523
0.011071257665623535
-0.033037427388244646
-0.01586770558469852
-0.019622168462615858
-0.04846938596555859
0.008256000817848778
0.02033645645865704
0.01306719193236499
-0.0024363602168286217
-0.020650675719061803
0.0038921649058315287
-0.006645334927426746
-0.011941184376661283
-0.03292447175242214
-0.034304573531246815
-0.064056810736922
0.0065332510483150745
-0.024971149897520636
0.014231362424676966
0.05613268132704834
0.03169126372419809
-0.013230991305466748
0.033977718986297485
-0.042162382370267586
-0.015111191693418808
0.018756487536364993
-0.021369219799099295
0.05887639416351527
-0.012363435532854058
-0.01755832856270328
0.0036369229803656926
0.0010403681008431852
-0.016259497103850655
0.061837637800729546
0.02220867280963555
-0.0491832269125286
0.015973258413520576
0.027188039767467136
-0.005067656684279589
0.058749848699975876
0.03949635310362126
-0.08853811629057871
0.0031555003241680126
-0.08445923670430408
-0.023046635584040548
0.04876224799707124
-0.02991395516270012
0.02347047340630756
0.03526749748718791
-0.00865411623851023
0.04800178031827452
0.0029430121353899038
0.03934869598537978
-0.0866833207221362
-0.0764807679176405
0.010146742532916458
0.03929284048430381
0.02310240262255733
-0.02341147479186048
-0.004959831666543479
-0.002779269833791293
-0.007792950496809383
0.0005109324841514008
-0.010770049581710298
-0.02155431979045122
0.011161427007600736
0.03007789803239119
0.0040143140739921646
0.04065927406101564
-0.01797286194084338
0.013892531612665918
-0.026038866294705015
0.011487544362735594
0.040541809462922185
0.020346881196066608
0.0010890071426202584
0.02438897659311756
-0.08055667261857549
-0.054854721938771216
-0.012293570216910011
0.024416363739303035
-0.01847347603874731
-0.13903057734385293
0.00520029940561858
0.01802694131471288
-0.017001524073494485
0.014370790383077628
0.07669195359262235
0.046084143889107775
0.044942068062597124
0.009901205116650252
-0.01527078330843732
0.04796860321361572
0.004015197604945059
-0.012464321017970003
0.014364066797386613
0.007807203304840356
-0.007788473040711414
0.015017475727676716
0.052835185691893466
0.02941655209124652
-0.03379033607349768
-0.00850191821105071
-0.03319543755645055
0.012670622497021696
-0.008867875523507854
-3.3390149195454626e-05
-0.0019538485720315625
0.006806318683959608
-0.007609057516456161
-0.009066366488170368
-0.034248108932313864
0.05182297709865353
-0.07234965827017496
-0.13788514925199685
0.028286025405728554
0.0025251641608809343
0.017776507048064487
0.019643531419694972
0.04948206895786443
-0.02363711343739863
-0.0011029800760758623
-0.010061808101248342
-0.03178584052312805
-0.007448495470825265
-0.03904246144016457
-0.01767244197905193
0.029864220118181538
-0.009604140714832591
0.04915225776810179
0.0119612738070942
0.03482267555680505
0.0035288443428056434
-0.05859058749090287
-0.03804822863628535
0.0003150160744855619
-0.0008622592578392653
0.05601056761801199
0.06106661588120361
0.030965147209579554
-0.043357189428291615
-0.09187962748812407
-0.02711605647595572
0.08887638469854874
0.06678148138090399
-0.042506461906396675
0.002558739741583048
0.0064040356700234505
-0.03910178380838181
-0.004550043015807197
-0.007950829142322475
-0.017050120853346954
0.02002671999411048
-0.00637863355080151
0.025672715165875357
-0.026779972429372467
-0.004489523992012899
-0.03370359435535975
0.02921341737883073
-0.018933800114929032
-0.004124560057768408
0.003690030487959436
-0.006837523937222403
0.07765402987706908
-0.035826156618507576
0.011514422975289288
0.017451572235330753
0.014450912525440176
-0.020810047013128583
0.049820648048139
0.12928604061044408
-0.12647473803686096
-0.03635012139158887
-0.024187154393529475
-0.007819819792125036
0.04389665148234656
-0.02282096788394993
0.005690075750075117
0.038664125735042916
-0.04236197196962596
0.014594943417929577
0.007147830708238183
-0.06795526182623743
0.14804160639080538
0.06069687982979693
-0.0034720045396665054
0.07057643409643331
-0.003901010584646889
-0.015737272244388558
-0.031037116699782194
-0.05374481790841205
-0.09537901211080302
0.04402188597559637
-0.044024265845138855
-0.05073450464792511
-0.012498244050932446
-0.01929261891351489
0.1770550248800924
0.14980640887989455
-0.0012869831115301508
-0.06732346326780086
-0.05533259065105282
0.017192252770548175
0.036972909292026596
-0.012526402815068496
-0.016957652965162596
0.00964672541729399
-0.035980669212658016
-0.010542493802300929
0.005559049755813989
0.017839125845168315
0.00490976593455194
0.030178705263089987
0.06684964838920057
-0.24542132440677364
-0.21720014648275948
0.02620712920903871
-0.000523627506051788
-0.0037402215940786914
0.031075415858192495
0.031999790912695204
-0.007934431577659565
0.028801012692791575
0.028023222631983584
0.031509283554306246
0.021845408103024037
0.014844149644401197
0.023892510460779778
0.019539636616274475
0.030531719851886897
0.024158398974519456
-0.003910351005044987
0.013219098202388736
-0.029740074058793576
0.006372464542508136
0.019625482557750182
-0.002772237439284733
-0.012612303814142207
-0.013109529703648712
-0.01948349614827264
-0.013750437745731208
-0.004255851316555394
0.00645550562673858
0.019044398107174402
-0.04268759117785794
-0.1733395304295154
-0.025824121355820396
-0.002060892700521478
-0.008510277762798984
0.0008389903270325868
0.008026985189046319
0.003015320451971522
-0.002782731140333533
0.009483525146492483
-0.025935001570424897
-0.030214465321154016
0.08854183901894853
0.011686716457732945
0.018053970546283313
-0.06507008615144086
-0.009212223972385676
0.033133552319858726
0.17768452393718584
0.04441352821428513
-0.033431017310707585
0.03294210769392018
-0.007211611195145692
0.00455468322392677
-0.030943592016012655
-0.0004152864292171677
0.05079535463553547
0.06287256993282882
0.02743453358060519
0.0040989616036435335
0.0275270167411877
-0.02115590497837278
0.04169234702396539
0.006408667188656268
0.04009116552260943
0.004601342667741036
-0.0022060350799313166
-0.0034629627529595484
-0.08670430907819096
-0.025753542278729395
-0.003171716394834389
-0.008851678231869704
0.001779235761103478
-0.013127430104178243
0.0206924879192037
-0.004700842486654148
0.010153955497878066
-0.13419838256114872
-0.1043511840725037
0.011320627424050442
-0.09041007058088305
0.03329170532723127
-0.002447443937144981
-0.024367481861075187
-0.08335371992025231
-0.02213598541292283
0.010611244666062515
0.02221797007108137
0.046625726587935915
0.019347172820449034
0.09497922391077489
0.06678556566891114
-0.018542382692301955
0.053366347863568066
-0.030830110169237646
0.012933564001447479
0.0320136920118756
-0.013590331733528775
0.03518297098152866
0.025164346894575737
-0.01906385170210004
-0.030946356320099153
0.00015715389986757162
-0.08481390829511613
-0.02666883284541654
0.01633904602074319
-0.0008217741968758958
-0.01827243108407945
-0.012939119192467853
-0.0033484574988958365
0.028955065810037362
-0.019616257842672635
0.006934783385152988
0.03117733847443252
0.007296625367024363
0.0029301020276445737
0.016664826867955777
-0.15609444796546837
-0.030771832586157222
0.22396580669132987
0.08255573824207321
-0.025067033461186602
0.005244548956531187
0.023913170195074364
-0.007474151904665731
0.009778790023200883
0.011189600833739074
0.011758331657063189
0.0404921609344448
-0.01009679802861744
-0.03490037065137377
-0.051398476957763166
-0.04537530258964198
-0.006318140803701983
-0.012297104067768003
-0.0335652549977104
0.050758054539805676
-0.012327342082020642
-0.025052230531578835
0.001222976870378028
0.041584761204185416
0.012796235122296214
0.005338857865067333
0.05393012250553253
0.046179427364571264
0.026716402998510157
-0.04867193603228027
-0.020530127861068604
-0.06421213086257299
-0.01712457039320668
-0.043749699811078416
-0.040695345725862066
-0.05488860075297397
-0.03283376800239217
-0.005087363757237938
-0.009181388685342982
0.019571831574439806
0.03549884963169565
0.004613035945532435
0.026378620950163495
0.03114365570070347
-0.025059149080995415
-0.015106684844856494
-0.0475883216722456
0.02569279421428039
0.009177940702185637
-0.030388210491980903
-0.02109691782621867
0.040590365220816826
-0.006887622986655074
0.040694003856093626
0.008157450719050094
0.022413287862781354
0.05390796482385902
0.005757675051045847
-0.016316665728080465
0.027711488895398494
-0.01697105362025813
-0.02381227853005896
-0.0009320779324818796
-0.0221204978990757
-0.021587952006533104
0.04539787225711001
0.017639790957131474
0.003903723368852358
0.008025555963557598
-0.004781677404805121
0.0303315348470723
-0.0019459951216680425
-0.020421780195458844
0.014872984898344339
-0.06374993464314138
0.04480990566065013
-0.00440236932290773
0.04043823660592756
0.08612359635505693
-0.006113864769518082
-0.05709168582947412
0.0025003250404123916
0.009540428020534496
0.03428958819100005
-0.03669337393775218
0.0669337864472254
0.10590728114825605
-0.09359934436036277
-0.015507030787975837
-0.0025528863082488894
-0.049641270862300114
-0.00890166829908142
0.014601222234517994
-0.049721519245170126
-0.00934559054876253
-0.04116666097612632
-0.024333571272967598
-0.008593956337357713
-0.023050627101436953
-0.02744994122015347
-0.026084817774508624
-0.008660357979055594
0.01516386643507614
0.01225745250299925
0.020639776592891276
0.02066844712441301
-0.004621847042763758
0.0009832523502837534
0.016412016719101825
-0.006181668439998077
-0.03135296099134875
0.03092884336010091
0.03871234066457565
0.04272586836061332
-0.03818604333388129
-0.0013098804026844576
-0.009127259764641767
-0.010532996365792526
0.00493728081684715
0.018914606932564217
0.011646378620764597
-0.03133426978069574
0.014532098353794091
0.016978379557743128
-0.006291298734731911
0.06753800969179723
0.019922740609520883
0.020186315339095127
-0.050821145296420636
-0.0186042980672313
-0.001346943969292894
-0.12347367699683534
0.007839975276203908
-0.010477434142937378
0.02526862127603814
0.06037748583826673
-0.02550971038805309
-0.04148246148840831
-0.024631871098982273
-0.042587936066015346
-0.01718352911890258
0.015568875009049582
0.02079819207211859
0.05521316658170425
0.030719770978983714
-0.011300212122279352
0.016607888914402902
0.007555391172585923
-0.0492683637648755
-0.005455388896025792
0.04989773142620189
0.011220690322008937
-0.010657920856279297
0.025502542296489614
0.03474704006511722
-0.042014531875639104
0.019517088051920158
0.0035266774838221587
-0.024865456165972778
-0.01036621696938005
-0.01747353076207822
0.02307389240200907
0.0024088111436308592
-0.06289594999562804
-0.015754327177507323
0.016080352996683207
0.03094118954438688
0.04796587973728498
-0.03193498015533829
-0.07163660286073249
0.007427456819852774
-0.018649943907506475
0.010187817767452952
0.06275515397068088
0.02660136279843755
-0.05349442798454432
-0.025182951249139017
0.05724635907757195
0.18246353753936753
0.03229980587198339
-0.06289168466148394
0.002263240950937528
0.02748578912853938
-0.012923669577354822
-0.03504000753463633
0.013471467408242016
-0.06041300210596522
-0.016778653703664898
-0.009918578489805815
0.016089842915088463
-0.01968683556484202
-0.0014889615204880613
0.059190017083544
0.003770321199670573
-0.026501429009023185
0.000616907513519496
-0.036669085969856574
0.003671430106189609
0.03136461649637422
0.0030143599843547773
0.022095825465130503
0.015433852522293342
-0.0242945278543856
0.005181102764574435
-0.11983145092340797
-0.17243157326783834
0.024117027148511327
0.017363537491616777
-0.025553245923516908
0.06176689858803297
0.084112487472582
0.01917650595059711
0.017539700155154304
-0.011793427909353602
0.004803934193536022
0.028224733984855397
0.04272594393436308
-0.0056024276508564305
0.0007013011673912485
-0.007774208925390827
-0.013353298502396948
-0.00014900682050176495
0.010646799601204768
-0.026930189743287855
-0.038306072766861946
0.01477842319841092
-0.0453836912805953
0.006498284422803305
-0.07398955578920484
-0.033538177859000894
0.09238348973470904
-0.02449842942771126
-0.023334279081132454
-0.020893186405349134
-0.02388028312923557
0.0261002943653392
0.1245548520760802
0.03204669088791258
0.04110102292873507
0.009913638845104558
0.006181141535223788
-0.016796138139628512
-0.018392381866653252
0.03338654986178951
0.03711577313989137
-0.0933448579843954
-0.016762804173402052
0.00923608802339171
-0.015268996418567011
-0.02318162717932006
0.02163660909910493
-0.010106556194868678
-0.06053661503933707
-0.020531690540625584
-0.009045891760185653
-0.012309101939935762
-0.021408575679658086
-0.016987551404945744
0.03945785858555287
0.11192848319414668
-0.014550699393176662
-0.06918982192221543
-0.06663528715455834
-0.007416513541516773
0.1445541285350248
0.02751838163302065
-0.016479483736439933
-0.021614733691019704
0.00225425515237702
0.037956865059205286
-0.009973403461724999
-0.01784476681370159
0.01306755600630773
0.01751728964277608
-0.006878966358701991
0.019236296635933674
0.03221775822308813
0.037925759939587134
0.057778148436752545
-0.013324885466131404
-0.008623615973455016
-0.021885648008396118
0.007122475589917851
-0.02485190493901653
-0.05265413148678102
0.038425530511422265
0.020170186766016143
-0.024780214694267798
-0.05605110886213093
0.0014885293700719312
0.08818329324325555
-0.006048229669332176
0.02015142844647174
-0.08479842138642228
-0.16757314357678732
0.0011186012696304476
-0.0785231980920864
-0.011700973383001896
0.046230290159688915
-0.016040086957509855
-0.023856711446403323
-0.007210668401130434
-0.01630877100995018
0.054132350765766536
0.1351584835886061
0.01330950621219004
0.03777178563180001
0.1093310575461122
0.037818492778863406
-0.02666555559300724
-0.025402092773934435
-0.01490486573284284
-0.06329435157977782
-0.019015778003988362
-0.013892236928490112
1.3119240715936918e-05
-0.007067405600769323
-0.008847237364382308
0.0334887074339078
0.007476298956267303
0.034674515205575525
-0.014027533561473038
-0.01685151270025072
-0.014047355112271774
-0.03422889665993561
-0.0014207827136896386
0.010504882497467814
0.0447633606930164
0.005535562468165862
-0.035068206547121505
0.010828790083212022
0.028478370927621382
-0.011086183749880914
-0.019696954391363326
-0.026424202673532775
0.06111246356678131
0.018507377129818564
-0.025979472847746023
0.018428565122116106
0.0061247378045359915
-0.047342677030418966
-0.02342446372669209
-0.05150518922789951
-0.03850748253746966
-0.0001237466967737221
0.06584941396901897
-0.010551768299491657
-0.01310178374626728
-0.016442915569080247
-0.0414793073973754
0.0032952856675176876
0.0006614977970316582
0.0022945296204410406
-0.029616100871411415
-0.002194082275011349
0.018418449809196522
0.031297545662994815
-0.031143109043754384
-0.06328819509657388
-0.01946577043070413
-0.034063870891921526
0.14759710034542353
0.08530847811051999
-0.032985909925644895
2.0623462671774078e-05
0.011993065026821601
0.0017702553018936113
-0.004312672330028967
0.0503247204497634
-0.024525579330823465
0.029193772477420006
0.009462647918827727
0.006550290257912849
-0.031273372106688554
0.0053913255309045935
0.0026324602276729977
-0.002927103443375641
-0.00438804473508255
0.0012820488549568675
-0.020038512517801595
0.04191834090222389
-0.014596500236101269
0.021518319141659092
0.05487498746650288
0.0018542716629081038
-0.07747682722706972
0.00046729212292749496
0.023139719420701827
-0.051264876095187206
-0.020947677893183254
0.019454319952758693
0.006064057406392586
0.1634255379365504
0.07844785908244756
-0.03378957130742722
-0.07569369061466882
-0.08097858224985718
-0.06116177855280568
-0.033941578273544125
-0.006360933277771691
-0.0058307685104262595
0.04144448387180495
-0.0619811847932066
0.09023724751609442
0.11670118788839282
-0.010045401072906747
0.005861299850415001
-0.027658650126871378
0.010414408057396414
-0.005791598647171754
-0.01721435282142135
-0.013686861594023577
0.01912669509377632
-0.009085216311808784
-0.025013093544716595
-0.016768057208885176
-0.0073970287306993465
-0.03361857089217049
-0.01751061763365413
0.0028225312297870597
0.0006855160516253311
-0.0045587008035762235
0.01967861510815466
0.0017680877885699294
0.0051562349391558494
-0.02443050356101793
-0.0016283193320002878
0.018020010019360887
-0.014694533067775744
-0.028545554993796463
-0.018877583285962566
0.01792812870797066
0.05621306706346248
-0.02125669457166143
0.028940620294950203
0.0369546934566693
-0.007884477179198369
0.02886637775154849
0.008848030926692797
-0.01710566543531739
0.008106215085556352
-0.08285480279355552
-0.046752586202131
0.01839492544607034
0.0026821028852657895
-0.003548513709116022
0.0063895849261627795
0.024107653525194474
-0.0010367474526757744
-0.016288037958348378
-0.00901645579996986
-0.0066037400744006665
0.011950116366064892
-0.010577912743958265
0.002711989994340428
0.023630659114098812
0.027900042560084007
0.01380798408243887
-0.008973187554677757
-0.019811167892231616
-0.042264759887172355
0.0025489376551186887
-0.012915975801332594
-0.01048397591062191
-0.009910545215180385
-0.02744459069994301
-0.03593705469216018
0.007564414664625222
0.022239944206532993
-0.02705837942646925
0.017744312765183068
-0.0006799798884800347
-0.0006845148915644871
0.029217176557723705
-0.007340633206032064
-0.018820200148040086
0.007178239673617544
0.002984097647563222
-0.0069837712713160804
-0.001281568278442989
-0.02570373767120536
-0.04024915086258403
-0.03045634169347571
0.04055242398186511
0.01866491873779474
-0.01612850771527653
0.03744451296004338
0.06292236231022501
0.009484132156878261
-0.045868699263451045
0.09366298622084618
0.10614067450348204
-0.008844911260952992
0.04432393093563552
0.02023273281326506
-0.0006244065997353142
-0.012265195875071157
0.012707795934905664
-0.017108054819116408
-0.06519432276059166
0.0023716986943241873
-0.01710887992085717
0.04040835603366555
0.02700569261402259
-0.01123554115800895
-0.0019220221928391908
-0.016962210514323218
0.018125971649548267
0.03601213933244839
0.034512863791562196
0.018202215100627826
-0.0021169287134732264
-0.025850457603834393
-0.015662640985476945
-0.003177973029969945
-0.07016827172788882
-0.03393748512967958
-0.022876295832245545
-0.009125010578074263
0.03107110681659996
-0.003996201038153604
0.003093559200178897
0.04456851162210815
0.05266253982609194
-0.04762685207207154
-0.12781602746557627
-0.031053045477350116
0.027222479462246037
-0.04720209692114897
-0.024288816299665006
0.03657684052087282
0.009007813406304388
0.017502920274734827
0.035480857217612606
0.014161284793786397
-0.012120873603237988
0.0018171173452106691
0.0059123146944663005
-0.03423477508188227
0.025373294889509016
0.043397757837843075
-0.00530356315895966
-0.019679436711047524
-0.022503443116956345
0.028070397645981807
-0.02068450250286673
-0.010263791213451738
-0.08281864546961439
-0.032192939901807556
-0.0069211303961322305
-0.010333447522526283
0.015757733643572865
-0.016143083129962175
0.06132300343955817
0.02038183471470215
0.01282727992834599
0.008740392533356189
-0.03461447401478642
0.0035832967640482146
0.014525752667016879
0.005243873323880277
0.02254640220713099
0.012927783296820967
0.001981392916394215
0.02153766012332849
-0.018422351933188526
-0.03973977230736835
-0.027086356714265823
0.01724258517207543
-0.009637295270472829
-0.042449898878023896
0.00025857488627131737
-0.0019775227575669287
-0.005610493138930553
0.02025838170728866
-0.03161967026306231
0.0072159662107047435
0.09092569571775665
0.03203838355670684
0.0015630748039318998
-0.045038544806533826
-0.008340389369378821
-0.008441948535223256
0.007898651791342467
0.0041853014790364665
-0.024675286049144384
0.03178354534961507
0.0506248398746442
-0.015860392871611735
-0.01492172919369928
-0.03205875604763882
0.09336253451586485
0.05274264532871307
0.0050488920352096235
0.016152149023519975
-0.00030913888504762604
-0.006151372549094682
0.02120079681558234
0.00925559050315404
0.006191363107199053
0.0053544910347153776
0.04505907269829602
-0.02522440761020886
-0.11334256218438447
-0.06953909690241952
0.029217449644290634
-0.00716233534938595
-0.014988624747963647
-0.05092344413089057
-0.01363188304709297
-0.01730445900624983
0.06113577116257789
0.06815689337950846
0.027329292703088485
-0.020176295821181422
0.04593068644309622
-0.04937228111110751
-0.07346034194470039
0.03904761929606339
-0.027498031761359558
-0.025454358465845223
-0.03269222055878257
-0.015842648514821804
0.0025497265636653956
-0.01952085429619589
-0.020241012623820637
0.02511773395700712
0.0651902651410773
0.0730143882547235
0.06576446727718561
0.05136973480965661
0.003218029991467204
0.01238037694560609
0.001539801270703132
-0.03640670680114854
-0.009019897898569915
-0.014729273283520172
0.008389491493626005
-0.04961965745259402
-0.019295469618484336
-0.06832410157114144
-0.013800821786917675
0.024738547836875558
-0.03238632761002996
-0.04051501699208085
0.009822181672791608
0.013558959654552397
-0.009210493723412962
0.048453971150000476
0.061847323727151085
-0.05585305533114428
-0.04484248280527673
0.04487006135687256
0.01855362120659721
0.026695471782844694
0.0050073411745596525
-0.04620960772498571
-0.03040396424023942
-0.0201178903501229
0.019102236146150055
-0.023856353092553097
0.00832857172540524
0.04047020926024739
0.04258050407074793
-0.007247128291468503
0.0005293247406205905
-0.018380930569979984
0.03325749759474202
0.02011150002870474
-0.06754408865256463
-0.09558893239033778
0.01987018042410772
0.02127181686117282
0.024810089193118584
0.05238354966653373
-0.03914060833165579
-0.06552919323127815
0.0019482006792832282
0.013668386302884005
-0.04076070970546746
-0.011478621927771148
-0.004066296968298462
0.0012629846540018611
0.05073436895560844
0.08712146548523274
0.05029647191915061
-0.0031668721683892915
-0.019898458463537723
0.002396286095367931
0.037594300674109064
0.022247466128254983
-0.023434016414907857
-0.013372190692880962
-0.09088246323681562
0.013516808354175734
0.05247813998066633
0.033283888282908694
-0.008594970369487325
0.006097635775388088
-0.037105333394968805
-0.005469104633161363
-0.014803492424850063
0.009746538545259326
0.00803194917984852
0.015246365029051677
0.027534663661328743
-0.01137673276752727
0.007882691692275094
0.0036767653625533647
-0.012929399926075474
0.057156224561224225
-0.022177336515026402
-0.06208242232029044
-0.048393187372450804
-0.1501492107980007
-0.02193555925532111
-0.00254824103030911
0.02109559045693133
0.013911868152970687
-0.007926362118511403
0.0023990665352658946
-0.002071838425616921
-0.01702141499952426
-0.03730931708734104
0.053210513301517166
0.06267408937618582
-0.013060095620121203
0.02429516268098009
0.06572633799092913
0.0029715056363808193
-0.01272101383901286
0.00529672700949255
-0.025204808451131475
0.0031368870918867743
0.15744518740232152
0.07601760022995616
-0.02644839610412547
0.01359102696990947
0.03851749283907255
0.033860907664448284
-0.025833276938582454
-0.029109932577669518
-0.0742709692092286
-0.0035668167742570842
-0.008115035946105019
0.00044378994191526295
-0.02626827111061533
0.056009142840795986
0.009270224005428889
-0.004660096107899012
-0.026646925664303933
0.01467767929828883
-0.012968060170824169
0.009104540143998025
-0.01801625269214225
-0.018829223260405606
-0.0031391884407686063
0.017811683558239116
-0.013474561379995545
0.00870511811062609
-0.14491992580251742
-0.04591600407280869
0.03924269366704373
-0.008841505279495662
-0.016696785271828368
0.010023896908389753
-0.0077229991205246965
0.010336413785584118
0.0011460829340490554
-0.022044851185566067
0.010310179006751786
0.007337613753860726
-0.003865693232636471
0.025303158361201165
0.022212102209716648
-0.026192557543863775
-0.014044375810980973
0.015682535335347855
-0.009454587851486874
0.03059067943605258
-0.11924004981371676
-0.07972542949815432
0.08244083754442057
0.019662955849809188
-0.019745840830534548
0.04225255907078157
-0.009490381258810502
0.07125488238939232
0.17738157056754078
0.0524589135723035
0.05081518204054072
-0.02293462619759791
-0.020202201412480185
0.0028376562623056924
-0.0012415246356681693
-0.06784194354391108
-0.009009540199164268
0.024290311674864187
-0.02547401218929989
-0.017406240691980553
