,0
0.0,0.006112652467022115
0.007039923405633347,0.023859065082966813
0.014079846811266694,0.047152399711885916
0.02111977021690004,0.08128143890534162
0.02815969362253339,0.11382684013057698
0.035199617028166735,0.10789247959387425
0.04223954043380008,0.040108356260522254
0.04927946383943343,-0.05866724917939824
0.05631938724506678,-0.1264587006959968
0.06335931065070012,-0.13328133861545538
0.07039923405633347,-0.10205264234744195
0.07743915746196682,-0.06802469502482862
0.08447908086760016,-0.04340406177236892
0.09151900427323352,-0.02490897614905294
0.09855892767886686,-0.01006526798730565
0.1055988510845002,0.00028198450561576615
0.11263877449013356,0.0041986051870392515
0.11967869789576689,0.0010792242566677757
0.12671862130140024,-0.007140303222564065
0.13375854470703358,-0.01879239551500912
0.14079846811266694,-0.033091934792764836
0.1478383915183003,-0.04594219074983188
0.15487831492393364,-0.05060915076473216
0.16191823832956698,-0.04440332267697429
0.1689581617352003,-0.031033517488726882
0.17599808514083368,-0.017177112228482165
0.18303800854646704,-0.0085119249874697
0.19007793195210038,-0.00502701886534985
0.1971178553577337,-0.001149772523673953
0.20415777876336705,0.006189831278646812
0.2111977021690004,0.013521294243396705
0.21823762557463378,0.013734820349088486
0.2252775489802671,0.0015010054909218025
0.23231747238590045,-0.018802981946593297
0.23935739579153378,-0.03508371473548037
0.24639731919716715,-0.04114164589624022
0.2534372426028005,-0.03941276726386025
0.26047716600843385,-0.032748517438269925
0.26751708941406716,-0.02208746736841163
0.2745570128197005,-0.008644779166236492
0.2815969362253339,0.005454324740603202
0.2886368596309672,0.01876688698267042
0.2956767830366006,0.031281704325106935
0.3027167064422339,0.04040346731926802
0.3097566298478673,0.03990511408553435
0.31679655325350065,0.02831752187337299
0.32383647665913395,0.013013233056694067
0.3308764000647673,0.002062491586742283
0.3379163234704006,-0.0025422321937510657
0.344956246876034,-0.003639388731610386
0.35199617028166735,-0.005111339169110524
0.3590360936873007,-0.008501668299491116
0.3660760170929341,-0.012048310375691821
0.3731159404985674,-0.01370725350104297
0.38015586390420075,-0.01575824893933906
0.3871957873098341,-0.023569176686360827
0.3942357107154674,-0.03434555877745281
0.4012756341211008,-0.03267346177938307
0.4083155575267341,-0.009342229870563407
0.41535548093236746,0.02333391767895766
0.4223954043380008,0.04500761916545397
0.4294353277436342,0.045269435765212473
0.43647525114926755,0.025922617968268283
0.44351517455490086,-0.005146152297599906
0.4505550979605342,-0.039008371571385286
0.45759502136616753,-0.06454603466970381
0.4646349447718009,-0.07024831229616961
0.47167486817743426,-0.055482590980489355
0.47871479158306757,-0.033442918197416655
0.485754714988701,-0.01701150297506586
0.4927946383943343,-0.00851852761262392
0.49983456179996766,-0.004455012441778651
0.506874485205601,-0.001535278196834638
0.5139144086112344,0.003080081605176331
0.5209543320168677,0.010971924861156817
0.527994255422501,0.01851309392373529
0.5350341788281343,0.018015817980415332
0.5420741022337677,0.007159063474321634
0.549114025639401,-0.007494100764850139
0.5561539490450343,-0.01834141485448813
0.5631938724506678,-0.022486035071699082
0.5702337958563011,-0.021160078686919003
0.5772737192619344,-0.017332030017600086
0.5843136426675679,-0.01278345555957439
0.5913535660732012,-0.006535020663713001
0.5983934894788345,0.003352113839461158
0.6054334128844678,0.0158375671330938
0.6124733362901013,0.027333244856375952
0.6195132596957346,0.03446518650299339
0.6265531831013679,0.0328618581079289
0.6335931065070013,0.02037939090167003
0.6406330299126346,0.0022094199476751643
0.6476729533182679,-0.014365571157898915
0.6547128767239012,-0.02535605279873059
0.6617528001295346,-0.028965720594765217
0.6687927235351679,-0.026646290130734412
0.6758326469408013,-0.024027299168927298
0.6828725703464347,-0.026152220866223715
0.689912493752068,-0.03299116555645427
0.6969524171577013,-0.04137320801846207
0.7039923405633347,-0.04852170436675829
0.7110322639689681,-0.05366431469332798
0.7180721873746014,-0.05885242178039251
0.7251121107802347,-0.06477004173567083
0.7321520341858682,-0.06608990769732515
0.7391919575915015,-0.058312954273901645
0.7462318809971348,-0.04552252469237193
0.7532718044027682,-0.033573305280867605
0.7603117278084015,-0.021762845590473517
0.7673516512140348,-0.005687407758880163
0.7743915746196682,0.01664178369793629
0.7814314980253015,0.03949657119413771
0.7884714214309348,0.04824018205546027
0.7955113448365682,0.03281291042826025
0.8025512682422016,0.0035523742376699563
0.8095911916478349,-0.017707173975359973
0.8166311150534682,-0.020668446162212476
0.8236710384591016,-0.012245838453065792
0.8307109618647349,-0.004556884505302949
0.8377508852703683,-0.0031646196712423256
0.8447908086760016,-0.004186868843214771
0.8518307320816351,-0.00106302693044579
0.8588706554872684,0.006630873889522084
0.8659105788929017,0.012490153240189907
0.8729505022985351,0.010714571211859278
0.8799904257041684,0.0029679814462456513
0.8870303491098017,-0.0033504412214847516
0.8940702725154351,-0.0025210531242849965
0.9011101959210684,0.006249336840815056
0.9081501193267018,0.020959412810185547
0.9151900427323351,0.03635754586224066
0.9222299661379685,0.04224339054917358
0.9292698895436018,0.03220725601951192
0.9363098129492351,0.012597316285656
0.9433497363548685,-0.004857133595201782
0.9503896597605018,-0.012941523762923771
0.9574295831661351,-0.01071209529613202
0.9644695065717686,-0.003994618248500845
0.971509429977402,-0.0021346314311759314
0.9785493533830353,-0.009017513556801407
0.9855892767886686,-0.018986543754052496
0.992629200194302,-0.023392537226469255
0.9996691235999353,-0.018993054168960848
1.0067090470055686,-0.009794679325263369
1.013748970411202,-0.0036071832258395813
1.0207888938168352,-0.005679271160462309
1.0278288172224688,-0.013316584474250543
1.034868740628102,-0.01816420649091611
1.0419086640337354,-0.012356770145620964
1.0489485874393687,0.008231144509095439
1.055988510845002,0.0372602336497584
1.0630284342506353,0.05246880759943235
1.0700683576562686,0.03167215477184378
1.0771082810619022,-0.023926128495939926
1.0841482044675355,-0.08737910990029223
1.0911881278731688,-0.12216458549300024
1.098228051278802,-0.11093778230904884
1.1052679746844354,-0.07159404407197942
1.1123078980900687,-0.03380308692950912
1.1193478214957022,-0.01201474217804225
1.1263877449013355,-0.00615441818425449
1.1334276683069688,-0.009637267934969735
1.1404675917126021,-0.014002469082572971
1.1475075151182355,-0.015257193505884352
1.1545474385238688,-0.015550677541431178
1.1615873619295023,-0.017866899426263634
1.1686272853351358,-0.021690186871063423
1.1756672087407691,-0.02148805480278618
1.1827071321464024,-0.0070433794747975995
1.1897470555520357,0.03057018782339094
1.196786978957669,0.08268753522678425
1.2038269023633024,0.11581134644167503
1.2108668257689357,0.10331708986649671
1.2179067491745692,0.057784454391661556
1.2249466725802025,0.011588783748945147
1.2319865959858358,-0.016686916446428623
1.2390265193914691,-0.026022686074328533
1.2460664427971024,-0.022737336240365134
1.2531063662027357,-0.013899168223576652
1.260146289608369,-0.004227861458611386
1.2671862130140026,0.004082842191156679
1.274226136419636,0.009755022774670418
1.2812660598252692,0.012720678030449442
1.2883059832309025,0.015989189604384633
1.2953459066365358,0.023910473077707717
1.3023858300421691,0.03524118320563787
1.3094257534478024,0.040045969257417706
1.316465676853436,0.03119941280878918
1.3235056002590693,0.015124828051410272
1.3305455236647026,0.0007087866893782193
1.3375854470703359,-0.012952667519707082
1.3446253704759692,-0.028470143436443916
1.3516652938816025,-0.0399832434851499
1.358705217287236,-0.03738810195800596
1.3657451406928693,-0.01884082219700324
1.3727850640985026,0.004015446028880912
1.379824987504136,0.01616060644930821
1.3868649109097693,0.011926608893234268
1.3939048343154026,-0.0032168678826697333
1.4009447577210359,-0.019919664351265087
1.4079846811266694,-0.032602288247126965
1.4150246045323027,-0.038792400434777254
1.4220645279379363,-0.03303626270977251
1.4291044513435696,-0.010190453653201592
1.4361443747492029,0.022452169075868278
1.4431842981548362,0.0456601107622336
1.4502242215604695,0.04744354420144556
1.457264144966103,0.03445347376482898
1.4643040683717363,0.020724767365097527
1.4713439917773696,0.013974716626165042
1.478383915183003,0.012499984204771579
1.4854238385886362,0.008289766175711947
1.4924637619942696,-0.004526360264230217
1.4995036853999029,-0.021825392005762806
1.5065436088055364,-0.03283671553770649
1.5135835322111697,-0.030816794214476546
1.520623455616803,-0.01821872823616346
1.5276633790224363,-0.003501219008361091
1.5347033024280696,0.005503711882278101
1.541743225833703,0.005996524915209081
1.5487831492393365,0.00018476861004911656
1.5558230726449698,-0.006819647586912713
1.562862996050603,-0.0111636170833088
1.5699029194562364,-0.01320109057880801
1.5769428428618697,-0.014953060351443372
1.583982766267503,-0.016917790738137015
1.5910226896731363,-0.017755767753850696
1.5980626130787698,-0.015542192416662519
1.6051025364844032,-0.009640729940744311
1.6121424598900365,-0.0015483743169863722
1.6191823832956698,0.006422536801643211
1.626222306701303,0.012546624507479977
1.6332622301069364,0.014624205502770738
1.6403021535125697,0.009811223444021895
1.6473420769182032,-0.002124668762944766
1.6543820003238365,-0.016501486281664594
1.6614219237294698,-0.025627059577127995
1.6684618471351031,-0.024794320617467974
1.6755017705407367,-0.01811967268007421
1.68254169394637,-0.015624065102962801
1.6895816173520033,-0.021776403585499763
1.6966215407576368,-0.03042205569014811
1.7036614641632701,-0.03341702425057524
1.7107013875689034,-0.028343927745609655
1.7177413109745368,-0.016869247085237217
1.72478123438017,-0.003439731124768621
1.7318211577858034,0.0044651320247309275
1.7388610811914367,0.0011661575938443523
1.7459010045970702,-0.009758906871468428
1.7529409280027035,-0.014795698134129502
1.7599808514083368,-0.0029803856169703692
1.7670207748139701,0.02060518445451295
1.7740606982196034,0.03932312732539315
1.7811006216252367,0.04132623482301275
1.7881405450308703,0.028428354285051943
1.7951804684365036,0.011483584334433417
1.802220391842137,-0.00020257973145401459
1.8092603152477702,-0.004227690490915582
1.8163002386534035,-0.002589300064773612
1.8233401620590368,0.0007299957128313369
1.8303800854646701,-0.0004574112189382444
1.8374200088703037,-0.009384605717789355
1.844459932275937,-0.020450111849140445
1.8514998556815703,-0.0242043864168056
1.8585397790872036,-0.017163336688657244
1.8655797024928369,-0.005648714627513717
1.8726196258984702,0.0013957541850260324
1.8796595493041035,0.0035183547585702687
1.886699472709737,0.006945770541674162
1.8937393961153703,0.015222101644239481
1.9007793195210037,0.029443831942099985
1.907819242926637,0.04789328219843087
1.9148591663322703,0.05880369983627664
1.9218990897379036,0.05009661768892251
1.928939013143537,0.02745736448262328
1.9359789365491706,0.006472732759460826
1.943018859954804,-0.005761835363497739
1.9500587833604373,-0.01178659316462155
1.9570987067660706,-0.015844993883793703
1.9641386301717036,-0.019673694833043587
1.9711785535773372,-0.02290877768640805
1.9782184769829705,-0.022949604324891012
1.985258400388604,-0.0136797875187803
1.992298323794237,0.007668049891565027
1.9993382471998706,0.031026425405183806
2.0063781706055037,0.041971118458083934
2.0134180940111372,0.03835903699017933
2.0204580174167703,0.02770935985855422
2.027497940822404,0.013195401425874012
2.034537864228037,-0.006074987261694101
2.0415777876336705,-0.0246404829578801
2.048617711039304,-0.033704350941102086
2.0556576344449375,-0.032787174608415875
2.062697557850571,-0.0286260594714614
2.069737481256204,-0.02613431969799139
2.0767774046618377,-0.024726736771186864
2.0838173280674708,-0.020486848234295297
2.0908572514731043,-0.011498550362827618
2.0978971748787374,-0.0018732220026717288
2.104937098284371,0.0004929714486768898
2.111977021690004,-0.007221911298228613
2.1190169450956375,-0.017310185308654163
2.1260568685012706,-0.019950530451200474
2.133096791906904,-0.013149505496479499
2.1401367153125372,1.2459740000680779e-05
2.147176638718171,0.014660503371343917
2.1542165621238043,0.022462092395583003
2.161256485529438,0.01771635210718373
2.168296408935071,0.004828606750561411
2.1753363323407044,-0.006162383878107134
2.1823762557463375,-0.008812029050828923
2.189416179151971,-0.002668097640203636
2.196456102557604,0.009882036261946277
2.2034960259632377,0.02501421538990009
2.2105359493688708,0.036178213063383216
2.2175758727745043,0.035191712973985545
2.2246157961801374,0.020132323126488195
2.231655719585771,0.0019512149182441384
2.2386956429914044,-0.002907868724948089
2.245735566397038,0.011332000133661977
2.252775489802671,0.03342176486410616
2.2598154132083046,0.04839106591739279
2.2668553366139377,0.0512983226669826
2.273895260019571,0.04246227390495526
2.2809351834252043,0.02321092421652929
2.287975106830838,-0.00019516465736778548
2.295015030236471,-0.02099003999289808
2.3020549536421044,-0.03512307359134804
2.3090948770477375,-0.03699392141038668
2.316134800453371,-0.023480909859327964
2.3231747238590046,-0.0012575595043093808
2.3302146472646377,0.016969068939200437
2.3372545706702716,0.022021680042290357
2.3442944940759047,0.01305845171159962
2.3513344174815383,-0.004126359446338608
2.3583743408871713,-0.020187275158858223
2.365414264292805,-0.02555989908627864
2.372454187698438,-0.016680170526042978
2.3794941111040715,0.001190730359923804
2.3865340345097046,0.018504109734433973
2.393573957915338,0.02843964950490714
2.400613881320971,0.031086775991390158
2.4076538047266047,0.028680438883619628
2.414693728132238,0.019382620094969938
2.4217336515378713,0.0028808123115664453
2.428773574943505,-0.013898478241235034
2.4358134983491384,-0.02214750408119484
2.4428534217547715,-0.0169056514761545
2.449893345160405,-0.0002313797497658283
2.456933268566038,0.017721924169209858
2.4639731919716716,0.028340815300021048
2.4710131153773047,0.03522387586236585
2.4780530387829383,0.04664791880624059
2.4850929621885713,0.06090280832289378
2.492132885594205,0.06727115729638534
2.499172808999838,0.057995016267286814
2.5062127324054715,0.03449696215520075
2.5132526558111046,0.005544882266324143
2.520292579216738,-0.018428204500587783
2.5273325026223716,-0.032311679758473356
2.534372426028005,-0.03810067630127147
2.5414123494336383,-0.039601124632675
2.548452272839272,-0.03846538438397102
2.555492196244905,-0.03493288859046231
2.5625321196505384,-0.029246923777623453
2.5695720430561715,-0.022494616326425198
2.576611966461805,-0.015764575180039583
2.5836518898674385,-0.008567750456372885
2.5906918132730716,-0.0011994981666579108
2.597731736678705,0.0036933921538600803
2.6047716600843382,0.005985726684471307
2.6118115834899718,0.00939022442324685
2.618851506895605,0.016173805675578475
2.625891430301239,0.027687939919216555
2.632931353706872,0.04845059193355696
2.6399712771125055,0.0823213884180693
2.6470112005181385,0.11908798303246733
2.654051123923772,0.12945877344259216
2.661091047329405,0.094479229997466
2.6681309707350387,0.033434135611323
2.6751708941406718,-0.018671477712447135
2.6822108175463053,-0.04375870323475383
2.6892507409519384,-0.0435459752991289
2.696290664357572,-0.03085150495276887
2.703330587763205,-0.019517083669159566
2.7103705111688385,-0.014544780630094107
2.717410434574472,-0.011823119356228786
2.7244503579801056,-0.0058230311014110655
2.7314902813857387,0.004851845800424904
2.738530204791372,0.016732935643189967
2.7455701281970053,0.022817962023755564
2.752610051602639,0.016673318979265366
2.759649975008272,-0.00040901412910865007
2.7666898984139054,-0.01820880963139587
2.7737298218195385,-0.02790174143817753
2.780769745225172,-0.030543931926714705
2.787809668630805,-0.0329994363547145
2.7948495920364387,-0.03900785129116498
2.8018895154420718,-0.04507360090301048
2.8089294388477053,-0.0442231563787444
2.815969362253339,-0.03260531279690563
2.8230092856589724,-0.011081759022333864
2.8300492090646054,0.01542362286957305
2.837089132470239,0.038252125196768995
2.8441290558758725,0.05052386022417136
2.8511689792815056,0.0513611556923554
2.858208902687139,0.04154362411757696
2.865248826092772,0.022710894086192333
2.8722887494984057,0.0015686150506866656
2.879328672904039,-0.01448081185231977
2.8863685963096724,-0.02446904133951545
2.8934085197153054,-0.03082560594018098
2.900448443120939,-0.03247955575465835
2.9074883665265725,-0.025890062650116317
2.914528289932206,-0.011036888061919721
2.921568213337839,0.007542074323584641
2.9286081367434726,0.022957446210117763
2.9356480601491057,0.027228982469772053
2.9426879835547393,0.015325878049069158
2.9497279069603723,-0.010849095463398182
2.956767830366006,-0.0425818024697108
2.963807753771639,-0.06461279383107316
2.9708476771772725,-0.0630455178939377
2.9778876005829056,-0.045212050314404395
2.984927523988539,-0.039089992441062565
2.991967447394172,-0.05755697760740461
2.9990073707998057,-0.07977344103251006
3.0060472942054393,-0.08062742892426575
3.013087217611073,-0.05932757187593127
3.020127141016706,-0.030858719091177732
3.0271670644223394,-0.006848677603529154
3.0342069878279725,0.009082082169202801
3.041246911233606,0.01631228923977342
3.048286834639239,0.01558966923136095
3.0553267580448726,0.012245708983390923
3.0623666814505057,0.012878895540428818
3.0694066048561393,0.01650345168119253
3.0764465282617723,0.014658532216606476
3.083486451667406,0.0036158874869189096
3.0905263750730394,-0.009048951881508215
3.097566298478673,-0.014687545027265757
3.1046062218843065,-0.012624476120362283
3.1116461452899395,-0.0066890108055853
3.118686068695573,-0.001037861768818127
3.125725992101206,0.0013112005757393939
3.1327659155068397,0.0013435457661525303
3.139805838912473,0.002922719841561498
3.1468457623181063,0.005981718776887131
3.1538856857237394,0.005201069326674659
3.160925609129373,-0.002701494419652935
3.167965532535006,-0.014938853011684598
3.1750054559406395,-0.025883624174391703
3.1820453793462726,-0.030800324908504224
3.189085302751906,-0.026343984115658324
3.1961252261575397,-0.01085035095589626
3.203165149563173,0.011114458788395034
3.2102050729688063,0.027118300321328306
3.21724499637444,0.025977108243561867
3.224284919780073,0.006273720105819982
3.2313248431857065,-0.024674400766237774
3.2383647665913395,-0.05581777832955654
3.245404689996973,-0.07877457694587942
3.252444613402606,-0.08873713369889336
3.2594845368082397,-0.08038789485374569
3.2665244602138728,-0.05487260028129959
3.2735643836195063,-0.024467936433308243
3.2806043070251394,-0.000664379121554494
3.2876442304307734,0.012754646132955688
3.2946841538364064,0.01794540364760778
3.30172407724204,0.020091908930202435
3.308764000647673,0.020447457016138558
3.3158039240533066,0.015595001401837658
3.3228438474589397,0.004169753986028988
3.329883770864573,-0.00950307068293341
3.3369236942702063,-0.016407081063662527
3.34396361767584,-0.009226908025176301
3.3510035410814734,0.010058675626792324
3.3580434644871064,0.029349495556704477
3.36508338789274,0.034581577893875136
3.372123311298373,0.02271880901853777
3.3791632347040066,0.004762995650219248
3.38620315810964,-0.007815577849351045
3.3932430815152737,-0.013837252925101117
3.4002830049209067,-0.016616551275723136
3.4073229283265403,-0.015801426119456844
3.4143628517321734,-0.00938393583381614
3.421402775137807,0.0011821658697568425
3.42844269854344,0.010721139131997862
3.4354826219490735,0.014424253362745013
3.4425225453547066,0.01148388796459562
3.44956246876034,0.004220409615384227
3.456602392165973,-0.003980716402226849
3.4636423155716067,-0.009206466198762297
3.47068223897724,-0.009661979989842627
3.4777221623828733,-0.008222382706817511
3.484762085788507,-0.009074860354594547
3.4918020091941404,-0.012056652213461973
3.4988419325997735,-0.012279407931663594
3.505881856005407,-0.005992001987790249
3.51292177941104,0.004274751894357812
3.5199617028166736,0.012526398682040257
3.5270016262223067,0.016476342041711632
3.5340415496279403,0.018694079774198017
3.5410814730335733,0.020811747597933777
3.548121396439207,0.020268292928764454
3.55516131984484,0.01329484416507859
3.5622012432504735,-0.0006799682887176253
3.5692411666561066,-0.016708515477328982
3.5762810900617406,-0.026809760372637246
3.5833210134673736,-0.026713158146319884
3.590360936873007,-0.018603415579679733
3.5974008602786403,-0.007393757535473082
3.604440783684274,0.0023345978603094555
3.6114807070899073,0.008408866377191444
3.6185206304955404,0.013923133307941548
3.625560553901174,0.02435393919993517
3.632600477306807,0.03956965126324627
3.6396404007124405,0.052718243329812585
3.6466803241180736,0.05791005931122556
3.653720247523707,0.053788850239820434
3.6607601709293403,0.040979949002907766
3.667800094334974,0.021725201323292184
3.6748400177406073,-0.00042977037924084565
3.681879941146241,-0.02096190160883188
3.688919864551874,-0.03334802245169834
3.6959597879575075,-0.03277810770116997
3.7029997113631405,-0.02163954418507865
3.710039634768774,-0.00869999848034855
3.717079558174407,-0.001992467645407612
3.7241194815800407,-0.0018534209026311672
3.7311594049856738,-0.002799722341863182
3.7381993283913073,-0.0024385283344099803
3.7452392517969404,-0.0028289928322236964
3.752279175202574,-0.002972894849708428
3.759319098608207,0.0015260784302121519
3.766359022013841,0.01034320780367554
3.773398945419474,0.01510899783649711
3.7804388688251076,0.005023602916731183
3.7874787922307407,-0.022457996678275385
3.794518715636374,-0.053970814334026306
3.8015586390420073,-0.06834041855341422
3.808598562447641,-0.05879827286190375
3.815638485853274,-0.038543720572629586
3.8226784092589075,-0.020014306079768642
3.8297183326645405,-0.0055079793169799905
3.836758256070174,0.0025810455495002024
3.843798179475807,0.0014938693446701853
3.8508381028814407,-0.004670036574557052
3.857878026287074,-0.008274423477630376
3.8649179496927077,-0.0057772173343305
3.8719578730983413,-0.0002534246029618409
3.8789977965039744,0.001940341325847388
3.886037719909608,-0.002369609186757357
3.893077643315241,-0.010867920245761217
3.9001175667208745,-0.017269357853642003
3.9071574901265076,-0.01290555599985964
3.914197413532141,0.007837170043831113
3.9212373369377747,0.03877710777835875
3.9282772603434073,0.06122746471772807
3.935317183749041,0.0591938415421461
3.9423571071546744,0.034264099649534335
3.949397030560308,0.0025399187802451952
3.956436953965941,-0.018386267733793243
3.9634768773715745,-0.020008714180903865
3.970516800777208,-0.004222671609210716
3.9775567241828416,0.02023912234828767
3.984596647588474,0.03824435625462984
3.9916365709941077,0.03618434793510315
3.9986764943997413,0.016130159424718727
4.005716417805375,-0.006957253563629418
4.012756341211007,-0.021956127185845643
4.019796264616641,-0.027397671691774473
4.0268361880222745,-0.02634775002302931
4.033876111427908,-0.023312095952053066
4.040916034833541,-0.02150594680102507
4.047955958239174,-0.020496800642926537
4.054995881644808,-0.018213113739371425
4.062035805050441,-0.014224897476187544
4.069075728456074,-0.011162965970551372
4.076115651861707,-0.011727623284555554
4.083155575267341,-0.013718680489916165
4.0901954986729745,-0.011511704196635083
4.097235422078608,-0.0021541141504543126
4.1042753454842416,0.011416250668949529
4.111315268889875,0.021599305641551613
4.118355192295509,0.02153354118927993
4.125395115701142,0.010930259032496645
4.132435039106775,-0.003392209137353959
4.139474962512408,-0.013079246764600788
4.146514885918042,-0.015019538111253596
4.153554809323675,-0.012797053067156268
4.160594732729308,-0.01176851007349176
4.1676346561349416,-0.013448896744157258
4.174674579540575,-0.014721369740785807
4.181714502946209,-0.010657068779480925
4.188754426351841,0.0024211669528993686
4.195794349757475,0.02512426348363905
4.202834273163108,0.05415531504316061
4.209874196568742,0.08043543842404119
4.2169141199743745,0.09199101770535523
4.223954043380008,0.0846392577511003
4.2309939667856415,0.0653809453338302
4.238033890191275,0.04228140031203504
4.245073813596908,0.019430815593719387
4.252113737002541,0.002404359593039177
4.259153660408175,-0.0034568013603927875
4.266193583813808,-0.0010668983201121366
4.273233507219441,6.617550960758825e-05
4.2802734306250745,-0.005997334761507808
4.287313354030708,-0.013832883998262926
4.294353277436342,-0.010207066599301137
4.301393200841975,0.009279802009005744
4.308433124247609,0.032079461305621226
4.315473047653242,0.045511467644090156
4.322512971058876,0.05183947614787372
4.329552894464508,0.057411068569464346
4.336592817870142,0.05858553070193387
4.343632741275775,0.04905746215821942
4.350672664681409,0.03088154949165365
4.3577125880870415,0.01205189881983104
4.364752511492675,-0.00014758635583876894
4.371792434898309,-0.004549597836885735
4.378832358303942,-0.0056068446311497025
4.385872281709576,-0.0072133907453015
4.392912205115208,-0.01003168432053437
4.399952128520842,-0.012180382557573782
4.406992051926475,-0.011254749598348303
4.414031975332109,-0.00557985874411536
4.4210718987377415,0.006199667220467126
4.428111822143375,0.0200912999483895
4.435151745549009,0.02489428454499343
4.442191668954642,0.017854060629898878
4.449231592360275,0.012868675236847808
4.456271515765908,0.02138073837382679
4.463311439171542,0.0385584811411817
4.470351362577175,0.050887339119072166
4.477391285982809,0.04672350165801197
4.484431209388442,0.02799098849585837
4.491471132794076,0.013830819518282286
4.4985110561997095,0.020680803747743653
4.505550979605342,0.04193566033792277
4.512590903010976,0.05511461031886505
4.519630826416609,0.04680913288918466
4.526670749822243,0.024087808869892632
4.533710673227875,0.002796647934059852
4.540750596633509,-0.006699386289184477
4.547790520039142,-0.005082419078640417
4.554830443444776,-0.0018680865147557512
4.561870366850409,-0.006487028694361876
4.568910290256042,-0.021628287936194958
4.575950213661676,-0.04450722580559313
4.582990137067309,-0.06791818768094539
4.590030060472942,-0.07881107605034729
4.597069983878575,-0.06799622462542321
4.604109907284209,-0.04170561655887018
4.611149830689842,-0.012235127709527161
4.618189754095475,0.014798174857139322
4.625229677501109,0.03637186630060055
4.632269600906742,0.04635127055980036
4.639309524312376,0.04152108974447046
4.646349447718009,0.028938148064932112
4.653389371123642,0.01987487089009687
4.660429294529275,0.018818392568443195
4.667469217934909,0.02298987881215428
4.674509141340543,0.02709589673344293
4.681549064746176,0.02655067790784766
4.6885889881518095,0.02054259771042483
4.695628911557443,0.010158980526986166
4.7026688349630765,-0.006033751235151772
4.709708758368709,-0.028818756745689036
4.716748681774343,-0.05369253015520025
4.723788605179976,-0.07429474443990097
4.73082852858561,-0.08859640987822986
4.737868451991242,-0.09708889105428264
4.744908375396876,-0.09586129829152915
4.7519482988025095,-0.08150121908184428
4.758988222208143,-0.059916130563301716
4.766028145613776,-0.039718016737336104
4.773068069019409,-0.0239830772332002
4.780107992425043,-0.012310347827665404
4.787147915830676,-0.003493210941266572
4.794187839236309,0.0044744391151696206
4.801227762641942,0.013800643160057918
4.808267686047576,0.02463118276610011
4.8153076094532095,0.03353891040028907
4.822347532858842,0.035457774719686364
4.829387456264476,0.028415362652963582
4.836427379670109,0.016047870911587093
4.843467303075743,0.0037397557026631182
4.850507226481375,-0.006225361069338788
4.85754714988701,-0.014014424141006294
4.864587073292643,-0.01878921290729764
4.871626996698277,-0.019172591908636648
4.8786669201039095,-0.016684601432056047
4.885706843509543,-0.014749218412194948
4.8927467669151765,-0.014863159911648764
4.89978669032081,-0.0165750854727398
4.906826613726444,-0.018688765423405158
4.913866537132076,-0.018812059099445163
4.92090646053771,-0.015015710810223565
4.927946383943343,-0.008595692633725262
4.934986307348977,-0.00291221045212037
4.9420262307546095,0.0007538151145326322
4.949066154160243,0.005145730758104895
4.9561060775658765,0.015234380654195082
4.96314600097151,0.03475602633248447
4.970185924377143,0.0603015343470964
4.977225847782776,0.07922477896534252
4.98426577118841,0.08238444535050218
4.991305694594043,0.07480271955203113
4.998345617999676,0.06482752337851933
5.0053855414053094,0.05297397795776809
5.012425464810943,0.03716888979198383
5.0194653882165765,0.01826457766903433
5.026505311622209,-0.003004506545253835
5.033545235027843,-0.02774402518609083
5.040585158433476,-0.05483191077886674
5.04762508183911,-0.07676747217607982
5.054665005244743,-0.08209412228802059
5.061704928650377,-0.06689505653648839
5.06874485205601,-0.04181435883109362
5.075784775461644,-0.02103843388245631
5.0828246988672765,-0.009362402596248785
5.08986462227291,-0.005240291952676739
5.096904545678544,-0.0083734280674037
5.103944469084177,-0.0175313621012557
5.11098439248981,-0.024803543007792184
5.118024315895443,-0.01811997326274469
5.125064239301077,0.008856954375531197
5.13210416270671,0.04998520926535442
5.139144086112343,0.0852914638834639
5.1461840095179765,0.08674211550509117
5.15322393292361,0.03757467240010095
5.160263856329244,-0.0517412508605587
5.167303779734877,-0.14419044123031918
5.17434370314051,-0.19064517085053143
5.181383626546143,-0.16895209603529437
5.188423549951777,-0.10884213506424209
5.19546347335741,-0.055467829350459075
5.202503396763043,-0.027643571991342687
5.2095433201686765,-0.019838673039825054
5.21658324357431,-0.019100471622356376
5.2236231669799436,-0.015553159850918498
5.230663090385576,-0.0071895715646913255
5.23770301379121,0.0017095054362206924
5.244742937196844,0.0068902909683708205
5.251782860602478,0.008636026852025056
5.25882278400811,0.010355918326875699
5.265862707413744,0.014254860529554696
5.272902630819377,0.01811185688094381
5.279942554225011,0.017410489500851375
5.2869824776306436,0.011622042806325776
5.294022401036277,0.005846661087541057
5.301062324441911,0.007609000002411893
5.308102247847544,0.02380919944341407
5.315142171253177,0.05626873786445741
5.32218209465881,0.09454013085401088
5.329222018064444,0.1169193994921516
5.336261941470077,0.11044449888232027
5.34330186487571,0.0830538413586162
5.3503417882813435,0.04733431351771763
5.357381711686977,0.010995162574209466
5.364421635092611,-0.014545209416811374
5.371461558498243,-0.01690106826978949
5.378501481903877,0.005459250161425307
5.38554140530951,0.04185513177817635
5.392581328715144,0.07781764004573725
5.3996212521207765,0.10139901639537885
5.40666117552641,0.10468103677530625
5.4137010989320435,0.08861329216251634
5.420741022337677,0.06417714505128123
5.427780945743311,0.04051899161075734
5.434820869148944,0.016649617642320168
5.441860792554578,-0.013935442229463071
5.448900715960211,-0.058304650257065695
5.455940639365845,-0.11895126350909935
5.462980562771477,-0.17858163577436398
5.470020486177111,-0.19897700357662967
5.477060409582744,-0.1630779909969558
5.484100332988378,-0.10197073297859557
5.491140256394011,-0.05377154574665795
5.498180179799644,-0.026080910888810902
5.505220103205278,-0.012112936548061176
5.512260026610911,-0.01104876878005863
5.519299950016544,-0.020662065271210648
5.526339873422177,-0.027293495818040636
5.533379796827811,-0.018734948268086103
5.540419720233444,0.0008375946156404116
5.547459643639077,0.019420040235340625
5.554499567044711,0.030254177947933093
5.561539490450344,0.03293719955654856
5.568579413855978,0.032181449105086225
5.57561933726161,0.036680665974431474
5.582659260667244,0.05286930902040256
5.589699184072877,0.07707532802137232
5.596739107478511,0.09446573140966026
5.6037790308841435,0.08934262285562486
5.610818954289777,0.06086339487361363
5.617858877695411,0.02540914219816858
5.624898801101045,-0.0005638491629869321
5.631938724506678,-0.013999250647806947
5.638978647912311,-0.019524035376458356
5.646018571317945,-0.020673413005394756
5.653058494723578,-0.020598479951511463
5.660098418129211,-0.02194072749220738
5.667138341534844,-0.023018312340111136
5.674178264940478,-0.019655783996494175
5.6812181883461115,-0.011310907342962409
5.688258111751745,-0.003783190412386364
5.695298035157378,-0.0033068840813837434
5.702337958563011,-0.007829534282293191
5.709377881968645,-0.011270238735811334
5.716417805374278,-0.012640244008720013
5.723457728779911,-0.012883858063377732
5.730497652185544,-0.01050849289645622
5.737537575591178,-0.003824486377471954
5.7445774989968115,0.008428289844636989
5.751617422402444,0.027131191016235727
5.758657345808078,0.04785940429193468
5.765697269213711,0.05817987498876628
5.772737192619345,0.048769606578749236
5.779777116024977,0.025311132195172857
5.786817039430611,0.0022954492706182437
5.793856962836244,-0.009831892864676147
5.800896886241878,-0.009185712315656045
5.807936809647511,-0.001015867915652828
5.814976733053145,0.006930257162999518
5.8220166564587785,0.009704403241274093
5.829056579864412,0.006281369699788702
5.836096503270045,-0.0032929122933905135
5.843136426675678,-0.019235447803020507
5.850176350081312,-0.03758056294899288
5.857216273486945,-0.04731049193068359
5.864256196892578,-0.04011551858432471
5.8712961202982115,-0.021469759506483048
5.878336043703845,-0.004336030745042818
5.8853759671094785,0.005314195598924223
5.892415890515111,0.011964116935192434
5.899455813920745,0.022623494103025894
5.906495737326378,0.03713595565651468
5.913535660732012,0.04575158950046905
5.920575584137644,0.04016775244188362
5.927615507543278,0.0262588320211976
5.9346554309489115,0.019378293817489345
5.941695354354545,0.027296972973402674
5.9487352777601785,0.040830773101309975
5.955775201165811,0.044330655237194094
5.962815124571445,0.03376856704348556
5.969855047977078,0.017107462925406793
5.976894971382712,0.002080905099327052
5.983934894788344,-0.008310179584755219
5.990974818193978,-0.014249065645213294
5.9980147415996115,-0.01748331357812561
6.005054665005246,-0.018794382494668475
6.0120945884108785,-0.017631215440360858
6.019134511816512,-0.014464086396046343
6.026174435222146,-0.010363082237808099
6.033214358627779,-0.005682353190789214
6.040254282033412,-0.0016805085033392453
6.047294205439045,0.0002125259135629374
6.054334128844679,0.0006362920286781357
6.061374052250312,0.0009479519361133592
6.068413975655945,0.0015095622662353422
6.0754538990615785,-0.0005086798865428472
6.082493822467212,-0.013786377970306175
6.089533745872846,-0.04859559878739476
6.096573669278478,-0.10626042478744645
6.103613592684112,-0.1666801363972726
6.110653516089745,-0.1903637530564732
6.117693439495379,-0.1569962231724174
6.1247333629010114,-0.09349487513534468
6.131773286306645,-0.04120766657960953
6.1388132097122785,-0.016980987640306283
6.145853133117912,-0.015246497376975884
6.152893056523545,-0.02506816210779576
6.159932979929178,-0.03841697313946053
6.166972903334812,-0.04776286521132611
6.174012826740445,-0.045611110516794305
6.181052750146079,-0.03632579325639193
6.188092673551711,-0.03944655412065588
6.195132596957346,-0.06922719540133832
6.202172520362979,-0.11430672928812456
6.209212443768613,-0.14162335214968905
6.216252367174246,-0.12553844304604012
6.223292290579879,-0.0706346748735981
6.230332213985513,0.002444889612247335
6.237372137391146,0.07920764795951347
6.244412060796779,0.14467913230791468
6.251451984202412,0.17339211708229285
6.258491907608046,0.15591881875753652
6.265531831013679,0.12201057203168644
6.272571754419312,0.1090918678131628
6.279611677824946,0.12144813946672015
6.286651601230579,0.1321323380356697
6.293691524636213,0.11862057420609257
6.300731448041845,0.08857375850081442
6.307771371447479,0.06143456564871638
6.314811294853112,0.04009277237549755
6.321851218258746,0.01710459731846788
6.3288911416643785,-0.005451437538990444
6.335931065070012,-0.018361472615898235
6.3429709884756456,-0.020708135550178062
6.350010911881279,-0.02025219716093239
6.357050835286912,-0.022196730671631217
6.364090758692545,-0.024896656314262838
6.371130682098179,-0.023028386295226057
6.378170605503812,-0.012969073195757647
6.385210528909446,0.0023284546657787878
6.392250452315079,0.015406451510332254
6.399290375720713,0.022439592240383003
6.406330299126346,0.02545443067093813
6.413370222531979,0.026896053036055273
6.420410145937613,0.026548073069677627
6.427450069343246,0.022550826804649468
6.43448999274888,0.013589476040907073
6.441529916154513,0.0024617634946165735
6.448569839560146,-0.0044654436492492814
6.455609762965779,-0.005691579344276707
6.462649686371413,-0.007606554665305565
6.469689609777046,-0.01446866736029069
6.476729533182679,-0.022975934529722266
6.483769456588313,-0.029325026647838526
6.490809379993946,-0.03256490251812777
6.49784930339958,-0.029452697098591486
6.504889226805212,-0.01159032347100734
6.511929150210846,0.029918428621031914
6.518969073616479,0.09314299263271096
6.526008997022113,0.15048768836868268
6.5330489204277455,0.15229635882137063
6.540088843833379,0.07206302711185039
6.547128767239013,-0.05166702493962835
6.554168690644646,-0.14379567917942293
6.561208614050279,-0.1644482473287653
6.568248537455912,-0.13522078686771
6.575288460861547,-0.09588020302904951
6.58232838426718,-0.06140755400442935
6.589368307672813,-0.02941283311891439
6.596408231078446,-0.002603420130846505
6.60344815448408,0.01195986153029184
6.6104880778897135,0.013190090407427458
6.617528001295346,0.006871227812079096
6.62456792470098,0.0008885927672748547
6.631607848106613,0.0003065448395912632
6.638647771512247,0.004215581497829196
6.645687694917879,0.007776740077945286
6.652727618323513,0.008133354983579144
6.659767541729146,0.0068067658156563075
6.66680746513478,0.0059983738493041405
6.673847388540413,0.005417447740935613
6.680887311946046,0.0030794790450746337
6.68792723535168,-0.003159064885285825
6.694967158757313,-0.014080001885274572
6.702007082162947,-0.027883588425635555
6.709047005568579,-0.0412269939836596
6.716086928974213,-0.0498535655826762
6.723126852379846,-0.04768123634811199
6.73016677578548,-0.031082648631470568
6.737206699191113,-0.005849274482780931
6.744246622596746,0.016044128065461544
6.75128654600238,0.027122017972113468
6.758326469408013,0.028628622841203915
6.765366392813647,0.025981084545689717
6.77240631621928,0.022802859855509682
6.779446239624914,0.020300372230160083
6.786486163030547,0.01945326187484713
6.79352608643618,0.019438982386529007
6.8005660098418135,0.017801418631160183
6.807605933247447,0.014630913823726662
6.8146458566530805,0.01125218202346587
6.821685780058713,0.005689548500143497
6.828725703464347,-0.00659844687446286
6.83576562686998,-0.0276561397378151
6.842805550275614,-0.05099118679625832
6.849845473681246,-0.06195813832600584
6.85688539708688,-0.0507137572111511
6.8639253204925135,-0.02357367782390645
6.870965243898147,0.0029879196468810343
6.87800516730378,0.017329997300391697
6.885045090709413,0.02229968863082071
6.892085014115047,0.033247207097226145
6.89912493752068,0.06333327407222249
6.906164860926313,0.10415603325582737
6.913204784331946,0.12601647820977213
6.92024470773758,0.11188259516943391
6.9272846311432135,0.07905600438506145
6.934324554548846,0.05146510930270188
6.94136447795448,0.03291751063410054
6.948404401360113,0.01761382117008894
6.955444324765747,0.004098320061874662
6.962484248171381,-0.006647401641877319
6.969524171577014,-0.014091413816155399
6.976564094982647,-0.017352283343425486
6.983604018388281,-0.01625903207728331
6.990643941793914,-0.01239547205711012
6.997683865199547,-0.007568584134726333
7.0047237886051805,-0.0033729986612803125
7.011763712010814,-0.00239211291441303
7.018803635416448,-0.005337588867024546
7.02584355882208,-0.007726030195343054
7.032883482227714,-0.00531469413990302
7.039923405633347,-0.0004939944806055798
7.046963329038981,0.0024492145221915707
7.0540032524446135,0.004703786596385199
7.061043175850247,0.009833918456324755
7.0680830992558805,0.015628922078287477
7.075123022661514,0.015300347191353201
7.082162946067147,0.008244701847675937
7.08920286947278,0.0027067961652027183
7.096242792878414,0.004396358788734922
7.103282716284047,0.00906366766508217
7.11032263968968,0.009200931575912147
7.1173625630953135,0.0034938232673093583
7.124402486500947,-0.0036734128894017537
7.1314424099065805,-0.008834726531245621
7.138482333312213,-0.010489542271618562
7.145522256717848,-0.0069351142619717785
7.152562180123481,0.0012391534661554313
7.159602103529115,0.0094411079657561
7.166642026934747,0.013953617259441034
7.173681950340381,0.01696874235053522
7.180721873746014,0.024941362967173322
7.187761797151648,0.03977406694178637
7.1948017205572805,0.05226139263502066
7.201841643962914,0.051683840279134925
7.208881567368548,0.03991918468681243
7.215921490774181,0.02766819591201677
7.222961414179815,0.020466280246692857
7.230001337585447,0.014891762781524395
7.237041260991081,0.008367451985677763
7.244081184396714,0.005704235316188057
7.251121107802348,0.011142309377722572
7.2581610312079805,0.020112065348862562
7.265200954613614,0.022884970098001292
7.272240878019248,0.014383599649729828
7.279280801424881,-0.0005321688174596525
7.286320724830514,-0.011457106746950949
7.293360648236147,-0.011496715768645409
7.300400571641781,-0.001962018235056001
7.307440495047414,0.009179601177310585
7.314480418453047,0.011700892416050579
7.3215203418586805,0.0013618045675446743
7.328560265264314,-0.015308962054367065
7.335600188669948,-0.029794457606117798
7.342640112075581,-0.039426231021087194
7.349680035481215,-0.04399274630681378
7.356719958886848,-0.04373539403022424
7.363759882292482,-0.03973137086209056
7.370799805698114,-0.031346627544628095
7.377839729103748,-0.016872478927587982
7.384879652509381,0.002160670010455294
7.391919575915015,0.019299134640055653
7.398959499320648,0.026758353735427766
7.405999422726281,0.02211653347524039
7.413039346131915,0.01057046695028808
7.420079269537548,-0.0003628282259679251
7.427119192943181,-0.007016398772103891
7.434159116348814,-0.010674818779288976
7.441199039754448,-0.014062876912205455
7.448238963160081,-0.017135814686812814
7.455278886565714,-0.01684668849303187
7.4623188099713476,-0.011756847303699958
7.469358733376981,-0.005270098231369501
7.476398656782615,-0.002924696422309151
7.483438580188248,-0.007354392817077886
7.490478503593881,-0.015423361606550057
7.497518426999514,-0.019145798196197647
7.504558350405148,-0.011065598418269977
7.511598273810781,0.00868961768732469
7.518638197216414,0.02908716640624611
7.525678120622048,0.03305428610414929
7.532718044027682,0.010326962179461979
7.5397579674333155,-0.034848918441070374
7.546797890838948,-0.09029198414482278
7.553837814244582,-0.13909256705717257
7.560877737650215,-0.1577949091949343
7.567917661055849,-0.13517642700650667
7.574957584461481,-0.08781104087225002
7.581997507867115,-0.040007259679326404
7.589037431272748,-0.004579805843835394
7.596077354678382,0.013939754023996519
7.603117278084015,0.01635443426908144
7.610157201489648,0.008764668882442855
7.617197124895282,-0.0011808007418412604
7.624237048300915,-0.007414962357936634
7.631276971706548,-0.007586504763717183
7.638316895112181,-0.0042061978833227475
7.645356818517815,-0.0003719398171535604
7.652396741923448,0.003965018227477565
7.659436665329081,0.00843361206240995
7.666476588734715,0.010149815702194708
7.673516512140348,0.008515645088401757
7.680556435545982,0.00899974505736447
7.687596358951614,0.01848044645373925
7.694636282357248,0.03540550012003243
7.701676205762881,0.04782769301452408
7.708716129168515,0.04558768214587869
7.715756052574148,0.03154896176008627
7.722795975979782,0.01628978009138632
7.7298358993854155,0.00627079972583006
7.736875822791049,0.0014470877089995237
7.7439157461966825,-0.0001442439413447947
7.750955669602315,0.00014044495260569218
7.757995593007949,0.000604008127558518
7.765035516413582,-0.0012516663012952457
7.772075439819216,-0.005904517842657304
7.779115363224848,-0.00933398796001422
7.786155286630482,-0.006443727234172614
7.7931952100361155,0.0019725747431115553
7.800235133441749,0.007451552545551651
7.807275056847382,0.0023870518993230933
7.814314980253015,-0.011227907367336526
7.821354903658649,-0.02531642633858321
7.828394827064282,-0.03314634384465379
7.835434750469916,-0.0303096576456373
7.842474673875549,-0.01574110662104662
7.849514597281181,0.0036823767276095453
7.856554520686815,0.015939973936851766
7.863594444092448,0.01620558095231353
7.870634367498082,0.011260197333059517
7.877674290903715,0.008976505511106935
7.884714214309349,0.00890524329373319
7.891754137714982,0.006498122754410886
7.898794061120616,0.0021910881188601443
7.905833984526248,0.0007261066320797419
7.912873907931882,0.00424778774573731
7.9199138313375155,0.01197207779283406
7.926953754743149,0.021682640376939392
7.9339936781487825,0.02472869209002809
7.941033601554416,0.009336041732991403
7.94807352496005,-0.0210830265303998
7.955113448365683,-0.04436059454768962
7.962153371771315,-0.04411000601604706
7.969193295176948,-0.025904116104230688
7.976233218582582,-0.004913025288932912
7.9832731419882155,0.01050959191917105
7.990313065393849,0.0220848042472826
7.9973529887994825,0.0343503630440469
8.004392912205116,0.04552269060612721
8.01143283561075,0.046789134587866904
8.018472759016383,0.03174360400719588
8.025512682422015,0.004604034475877311
8.032552605827648,-0.023656980387214574
8.039592529233282,-0.04257904722672349
8.046632452638915,-0.04455127290504158
8.053672376044549,-0.030304604534586176
8.060712299450183,-0.011045309985772644
8.067752222855816,0.003466966390912745
8.07479214626145,0.012017407781172848
8.081832069667081,0.014634401042417401
8.088871993072715,0.010206385640997235
8.095911916478348,0.0008016840425656602
8.102951839883982,-0.009770403524690621
8.109991763289615,-0.01853005893007879
8.117031686695249,-0.022834895548073445
8.124071610100883,-0.02173671549334483
8.131111533506516,-0.01639482127958042
8.138151456912148,-0.008259617781953865
8.145191380317781,0.0002637430599439106
8.152231303723415,0.00541555718628987
8.159271227129048,0.004625489058591384
8.166311150534682,-0.001814001331404673
8.173351073940315,-0.01088054728903589
8.180390997345949,-0.018061325092886115
8.187430920751583,-0.0206382025196584
8.194470844157216,-0.018933073599970617
8.20151076756285,-0.013568752685147827
8.208550690968483,-0.006010564227408435
8.215590614374117,-0.0012019795787505888
8.22263053777975,-0.0031303118344946975
8.229670461185384,-0.010280783144232771
8.236710384591017,-0.019545397990270275
8.24375030799665,-0.02679267946481779
8.250790231402284,-0.02288420412138626
8.257830154807916,0.0010900279461548987
8.26487007821355,0.04477472717786621
8.271910001619183,0.09259880922150826
8.278949925024817,0.11574501989249344
8.28598984843045,0.09785950925630371
8.293029771836084,0.05680241151697751
8.300069695241717,0.022303711566689904
8.30710961864735,0.004462094197745514
8.314149542052983,-0.005502403331341962
8.321189465458616,-0.017665669370941873
8.32822938886425,-0.031913116343581543
8.335269312269883,-0.039977884994549816
8.342309235675517,-0.0354075874775371
8.34934915908115,-0.018552511620256375
8.356389082486784,0.00556735271332656
8.363429005892417,0.030206915460134067
8.370468929298049,0.04765319325208731
8.377508852703683,0.0511970616640782
8.384548776109316,0.04102381894481161
8.39158869951495,0.02584917861585507
8.398628622920583,0.014683622530627324
8.405668546326217,0.008636218100026892
8.41270846973185,0.003323312192273931
8.419748393137484,-0.00195747135849301
8.426788316543115,-0.0022144470281371988
8.433828239948749,0.005107090743048087
8.440868163354383,0.014860261941935822
8.447908086760016,0.01878551700959469
8.45494801016565,0.013039572575748648
8.461987933571283,0.0007139120950500242
8.469027856976917,-0.011280834913359832
8.47606778038255,-0.017905282801477643
8.483107703788182,-0.01976152419070009
8.490147627193815,-0.02016452083279225
8.497187550599449,-0.019562843583257054
8.504227474005082,-0.015634888543772277
8.511267397410716,-0.007667899595985724
8.51830732081635,0.0008484117590048701
8.525347244221983,0.0025737568912177432
8.532387167627617,-0.009415888576031317
8.53942709103325,-0.03424560040191196
8.546467014438882,-0.06003113655754363
8.553506937844515,-0.07075813178685973
8.560546861250149,-0.0601274712305863
8.567586784655782,-0.036568731171098406
8.574626708061416,-0.013272250280874968
8.581666631467051,0.0015587794988261715
8.588706554872685,0.007373387894753925
8.595746478278318,0.008403619332839512
8.60278640168395,0.006625150100649213
8.609826325089584,0.0004433685907819676
8.616866248495217,-0.008229818584991425
8.62390617190085,-0.011480896326046784
8.630946095306484,-0.003252356979502149
8.637986018712118,0.014562884711013687
8.645025942117751,0.03392586332518096
8.652065865523385,0.04437912642057376
8.659105788929017,0.040296897071714265
8.66614571233465,0.027056924688436994
8.673185635740284,0.01428755198699558
8.680225559145917,0.005534366181764908
8.68726548255155,-0.0020381722985393994
8.694305405957184,-0.010097545479223992
8.701345329362818,-0.01396194041493685
8.708385252768451,-0.009483957884383897
8.715425176174083,-0.0003629259513757881
8.722465099579717,0.00844568762861804
8.72950502298535,0.015711040713730258
8.736544946390984,0.019416113854451758
8.743584869796617,0.0170295565202133
8.75062479320225,0.010936690430500311
8.757664716607884,0.008840732423561292
8.764704640013518,0.016462205279674114
8.771744563419151,0.03026614653044872
8.778784486824783,0.04073382208373626
8.785824410230417,0.04129584267926262
8.79286433363605,0.03120180626378625
8.799904257041684,0.013928822204125463
8.806944180447317,-0.004211008952178196
8.81398410385295,-0.0167468573912816
8.821024027258584,-0.020192377150616853
8.828063950664218,-0.014816415292555951
8.83510387406985,-0.00468833582768864
8.842143797475483,0.002732150945899026
8.849183720881117,0.0018056964461824298
8.85622364428675,-0.005811328068056061
8.863263567692384,-0.013938627949225789
8.870303491098017,-0.018141546821324375
8.87734341450365,-0.017400509403934457
8.884383337909284,-0.012203234091222679
8.891423261314916,-0.003913610455214718
8.89846318472055,0.003442048105759537
8.905503108126183,0.003937332957873244
8.912543031531817,-0.004281774780586282
8.91958295493745,-0.014760291544763257
8.926622878343084,-0.01724703781451215
8.933662801748717,-0.00775716770269806
8.94070272515435,0.007133291987868795
8.947742648559982,0.0175079404831647
8.954782571965618,0.019092370334670997
8.961822495371251,0.014001047600301835
8.968862418776885,0.006804903237486904
8.975902342182518,0.001171520978255812
8.982942265588152,-0.0023842890279285023
8.989982188993785,-0.004650272021758624
8.997022112399419,-0.0040337276091849455
9.00406203580505,0.00045854578576032387
9.011101959210684,0.005194328254278242
9.018141882616318,0.0057364246547577345
9.025181806021951,0.0011633710776686327
9.032221729427585,-0.006674949252139038
9.039261652833218,-0.015241484676059977
9.046301576238852,-0.021819341667927733
9.053341499644485,-0.022974624168062344
9.060381423050119,-0.016607308145874244
9.06742134645575,-0.003948447161484193
9.074461269861384,0.013254420493066882
9.081501193267018,0.03306412118206969
9.088541116672651,0.04947472771472257
9.095581040078285,0.055582662380164655
9.102620963483918,0.05076763641435384
9.109660886889552,0.03991505648233334
9.116700810295185,0.027894595953442368
9.123740733700817,0.018132743711230012
9.13078065710645,0.012831791498812741
9.137820580512084,0.009808355833283345
9.144860503917718,0.004116825721790095
9.151900427323351,-0.002689938498075631
9.158940350728985,-0.001345644350627676
9.165980274134618,0.0153696978354687
9.173020197540252,0.04590701957561648
9.180060120945884,0.07774583512115499
9.187100044351517,0.09053272139193701
9.19413996775715,0.07329665276418784
9.201179891162784,0.03812511701618844
9.208219814568418,0.006934391736700818
9.215259737974051,-0.010209895523157349
9.222299661379685,-0.016869482453031097
9.229339584785318,-0.017810514140163082
9.23637950819095,-0.012606216996679366
9.243419431596584,0.0011321028882083197
9.250459355002217,0.021850592814252508
9.25749927840785,0.042696369071065325
9.264539201813484,0.056100286797336966
9.271579125219118,0.05612955357768852
9.278619048624751,0.039975251840645126
9.285658972030385,0.009481514176748768
9.292698895436018,-0.034381019421871106
9.29973881884165,-0.09162923066860552
9.306778742247284,-0.14732188050337264
9.313818665652917,-0.1676771250974502
9.32085858905855,-0.13476921612482912
9.327898512464184,-0.07295818675035697
9.334938435869818,-0.019671465182297274
9.341978359275453,0.009712058370444938
9.349018282681087,0.019014495770549995
9.356058206086718,0.016485410546015558
9.363098129492352,0.009613300161677054
9.370138052897985,0.0042756488374920115
9.377177976303619,0.002177791811400106
9.384217899709252,-8.951620162658364e-05
9.391257823114886,-0.007298185741733111
9.39829774652052,-0.01983412120877323
9.405337669926153,-0.03174642004541015
9.412377593331785,-0.036086535503787966
9.419417516737418,-0.030765108891469935
9.426457440143052,-0.018042526803680566
9.433497363548685,-0.0021980532488720898
9.440537286954319,0.010238577035392644
9.447577210359952,0.013472207080025349
9.454617133765586,0.009412651272144447
9.46165705717122,0.005860997943051813
9.468696980576851,0.00597809926568897
9.475736903982485,0.007005839261124158
9.482776827388118,0.00922264913694057
9.489816750793752,0.018617631621789713
9.496856674199385,0.03814660338524085
9.503896597605019,0.058354767174648346
9.510936521010652,0.06233357284512501
9.517976444416286,0.04373447299566039
9.525016367821918,0.013858377942197141
9.532056291227551,-0.01159961732968426
9.539096214633185,-0.024997921636784784
9.546136138038818,-0.02636111448055877
9.553176061444452,-0.01934597255369029
9.560215984850085,-0.009316020094677368
9.567255908255719,-0.0017109593856596294
9.574295831661352,0.0003153292230768154
9.581335755066986,-0.00211085616255543
9.588375678472618,-0.0039128446834598265
9.595415601878251,-0.0010698902561281716
9.602455525283885,0.003995062105504267
9.609495448689518,0.006203315243954945
9.616535372095152,0.00609161524816116
9.623575295500785,0.008375471359036294
9.630615218906419,0.012920174400260958
9.637655142312052,0.013444904281520918
9.644695065717684,0.006712548287537989
9.651734989123318,-0.0017222677749761787
9.658774912528951,-0.004002751005730858
9.665814835934585,0.00011190862319218988
9.672854759340218,0.0037524179115474903
9.679894682745852,0.0016701155808926484
9.686934606151485,-0.006371172293975798
9.693974529557119,-0.01859311394330599
9.70101445296275,-0.03263249329202112
9.708054376368384,-0.04538051401987739
9.71509429977402,-0.05343877457089835
9.722134223179653,-0.05340116182025034
9.729174146585287,-0.04409202330317942
9.73621406999092,-0.02923987506296118
9.743253993396554,-0.015662300794725716
9.750293916802187,-0.008632846591801841
9.757333840207819,-0.007903293760659002
9.764373763613452,-0.007935121495338102
9.771413687019086,-0.0031711426982738568
9.77845361042472,0.007398340265824469
9.785493533830353,0.019962344199823283
9.792533457235987,0.028377872964448245
9.79957338064162,0.026035477179033525
9.806613304047254,0.007998424763604442
9.813653227452887,-0.0243831570242529
9.820693150858519,-0.05945426874190392
9.827733074264152,-0.07815693867046206
9.834772997669786,-0.06913941743723001
9.84181292107542,-0.04042895322728567
9.848852844481053,-0.009307549389373074
9.855892767886687,0.013412635086706707
9.86293269129232,0.027384388605377966
9.869972614697954,0.038857653464919546
9.877012538103585,0.05048587657359385
9.884052461509219,0.05467593056557252
9.891092384914852,0.04644534338344875
9.898132308320486,0.03673523975208093
9.90517223172612,0.042379249547969
9.912212155131753,0.06926143698715675
9.919252078537387,0.10135105964343158
9.92629200194302,0.10386717326122082
9.933331925348652,0.060605961938157774
9.940371848754285,0.0006834921700852783
9.947411772159919,-0.0397835879644167
9.954451695565552,-0.061492673210083316
9.961491618971186,-0.08729131196632371
9.96853154237682,-0.12047946883301383
9.975571465782453,-0.13401121974479938
9.982611389188087,-0.11090422136134169
9.989651312593718,-0.07567521520292596
9.996691235999352,-0.059861856008387136
10.003731159404985,-0.062121768946508824
10.010771082810619,-0.06344956443716802
10.017811006216252,-0.05438364967185258
10.024850929621886,-0.03494383768749086
10.03189085302752,-0.009365544833388653
10.038930776433153,0.012389373661058694
10.045970699838787,0.01952183309628541
10.053010623244418,0.009061631273701617
10.060050546650052,-0.013205675588973988
10.067090470055685,-0.03658479397048925
10.074130393461319,-0.04960224756448157
10.081170316866952,-0.04820618943705856
10.088210240272586,-0.03928155390054009
10.09525016367822,-0.03041984957276378
10.102290087083855,-0.021856224718741813
10.109330010489487,-0.011302330729303173
10.11636993389512,-9.427903984748681e-05
10.123409857300754,0.008245017882894286
10.130449780706387,0.012884426456021034
10.13748970411202,0.015945484412896622
10.144529627517654,0.019211754540804784
10.151569550923288,0.02276346606105579
10.158609474328921,0.025146917766900992
10.165649397734553,0.025395092437111418
10.172689321140187,0.02462147999312947
10.17972924454582,0.023242001490745203
10.186769167951454,0.019589530733653465
10.193809091357087,0.01325467249240957
10.20084901476272,0.005899134724816641
10.207888938168354,-0.001678665640040042
10.214928861573988,-0.008681066791291178
10.22196878497962,-0.011781612193467395
10.229008708385253,-0.00899956996937211
10.236048631790887,-0.004065573357040834
10.24308855519652,-0.002316078615215891
10.250128478602154,-0.004314427025617264
10.257168402007787,-0.0072507635999159515
10.26420832541342,-0.009981785979056107
10.271248248819054,-0.010951196809958303
10.278288172224686,-0.004727939912997936
10.28532809563032,0.012241606772172486
10.292368019035953,0.03612480547798895
10.299407942441587,0.05785849042318478
10.30644786584722,0.06653014384423088
10.313487789252854,0.05570644618486605
10.320527712658487,0.029323185324591043
10.32756763606412,-0.0031197190921482447
10.334607559469754,-0.03182864604572941
10.341647482875386,-0.0459953071727624
10.34868740628102,-0.040798278431461756
10.355727329686653,-0.02537458365462269
10.362767253092287,-0.012816631576205075
10.36980717649792,-0.0067165110216673264
10.376847099903554,-0.0035343250714865693
10.383887023309187,-2.2246773266304358e-05
10.39092694671482,0.004972724678846137
10.397966870120452,0.009896881925445657
10.405006793526086,0.010746400335864898
10.41204671693172,0.00789078543555542
10.419086640337353,0.011889979244011716
10.426126563742987,0.03602054986564996
10.43316648714862,0.08445684220034977
10.440206410554254,0.14504316880321355
10.447246333959887,0.18678425152442668
10.454286257365519,0.17878836276546006
10.461326180771152,0.12254564242873034
10.468366104176786,0.05050951712513585
10.47540602758242,-0.006517751060373387
10.482445950988055,-0.036727082101376554
10.489485874393688,-0.043555833138170325
10.496525797799322,-0.03697449481483327
10.503565721204955,-0.024167469597285045
10.510605644610587,-0.008488656550736329
10.51764556801622,0.005638184953047993
10.524685491421854,0.015952755769683486
10.531725414827488,0.02489225549011781
10.538765338233121,0.03226599408695585
10.545805261638755,0.03469246399095422
10.552845185044388,0.03241726714784317
10.559885108450022,0.027414362169643165
10.566925031855655,0.019063241834531845
10.573964955261287,0.007143357366402738
10.58100487866692,-0.0050608632168651834
10.588044802072554,-0.013765319978421876
10.595084725478188,-0.01848951997700674
10.602124648883821,-0.0209539445287821
10.609164572289455,-0.022705533677916473
10.616204495695088,-0.026091328549927375
10.623244419100722,-0.03453513777597998
10.630284342506354,-0.046344175410749325
10.637324265911987,-0.051665957823382236
10.64436418931762,-0.043927630088146694
10.651404112723254,-0.028800991670075597
10.658444036128888,-0.015764550205802266
10.665483959534521,-0.008611535246673808
10.672523882940155,-0.00560894368894526
10.679563806345788,-0.0037497665909879173
10.68660372975142,-0.0027859402623409213
10.693643653157054,-0.004136072451245308
10.700683576562687,-0.007415253996931113
10.70772349996832,-0.010796707675094117
10.714763423373954,-0.012123126479636469
10.721803346779588,-0.010060886600605244
10.728843270185221,-0.006685162190024163
10.735883193590855,-0.006266645535534123
10.742923116996486,-0.009708594157773011
10.74996304040212,-0.012951584866616772
10.757002963807754,-0.012137099307074347
10.764042887213387,-0.0076213177430630935
10.77108281061902,-0.00229285632156462
10.778122734024654,0.001189447923242111
10.785162657430288,0.0011861031999737188
10.792202580835921,-0.002021328178202644
10.799242504241553,-0.005159813437971318
10.806282427647186,-0.004268608464010857
10.81332235105282,0.0016095432829714403
10.820362274458454,0.010557406799517895
10.827402197864087,0.019332074594657515
10.83444212126972,0.025157834220683493
10.841482044675354,0.028257529890863567
10.848521968080988,0.029326884645171955
10.855561891486621,0.02605393240251484
10.862601814892255,0.015984431011844748
10.869641738297888,-0.0015226317129967645
10.876681661703522,-0.024125504081641682
10.883721585109155,-0.04260823819221999
10.890761508514789,-0.04726985951447932
10.897801431920422,-0.039698276030810484
10.904841355326056,-0.02888620242176626
10.91188127873169,-0.0210842695176099
10.918921202137321,-0.019191546169084594
10.925961125542955,-0.023725620417016594
10.933001048948588,-0.03076471951033414
10.940040972354222,-0.03386957257700239
10.947080895759855,-0.029941760353017637
10.954120819165489,-0.02152841350969278
10.961160742571122,-0.013907163067947072
10.968200665976756,-0.011366608273544791
10.975240589382388,-0.014593121300813009
10.982280512788021,-0.019626606694217848
10.989320436193655,-0.021124412429225102
10.996360359599288,-0.017591309408284978
11.003400283004922,-0.011184419941392618
11.010440206410555,-0.003947378620371939
11.017480129816189,0.003154227193062332
11.024520053221822,0.00860484474593198
11.031559976627454,0.010090216996089743
11.038599900033088,0.007898137841410639
11.045639823438721,0.005362760229345222
11.052679746844355,0.002968676131032623
11.059719670249988,-0.001942525709648329
11.066759593655622,-0.007627483638136036
11.073799517061255,-0.007569954284388865
11.080839440466889,0.0011071623045235362
11.087879363872522,0.013287923191913591
11.094919287278154,0.019823293551772866
11.101959210683788,0.015402832344260133
11.108999134089421,0.0034570221217563066
11.116039057495055,-0.006867838577611904
11.123078980900688,-0.008373812513270197
11.130118904306322,-0.0012859189428793003
11.137158827711955,0.007782330181539183
11.144198751117589,0.012018145339650368
11.15123867452322,0.008644084883145943
11.158278597928854,-0.0013870386539060807
11.165318521334488,-0.014245474779161054
11.172358444740121,-0.025589935716056604
11.179398368145755,-0.034642521469309004
11.186438291551388,-0.0416757857426188
11.193478214957022,-0.04342771994945881
11.200518138362655,-0.03893070156175901
11.207558061768287,-0.034192535689148075
11.21459798517392,-0.033508243526550664
11.221637908579554,-0.033282480091869515
11.228677831985188,-0.02879675653674406
11.235717755390821,-0.02068166408424062
11.242757678796455,-0.013122123414723174
11.24979760220209,-0.010294691125099018
11.256837525607724,-0.013362514679579031
11.263877449013355,-0.017851149470205774
11.270917372418989,-0.016322014401384685
11.277957295824622,-0.005549116066846044
11.284997219230256,0.009215206080873492
11.29203714263589,0.01894129430059799
11.299077066041523,0.019165984404060574
11.306116989447156,0.009809127023010575
11.31315691285279,-0.008087474278276732
11.320196836258422,-0.028375732619638553
11.327236759664055,-0.038300981135683865
11.334276683069689,-0.028339281974966244
11.341316606475322,-0.0031558008996463065
11.348356529880956,0.021316975537044335
11.35539645328659,0.03508303757211882
11.362436376692223,0.04414542315159305
11.369476300097856,0.05806702469034161
11.37651622350349,0.07502924067858437
11.383556146909122,0.08433836305206514
11.390596070314755,0.07625540503716031
11.397635993720389,0.05004429524789953
11.404675917126022,0.01670671593653447
11.411715840531656,-0.009113268690951476
11.41875576393729,-0.0191322498841017
11.425795687342923,-0.015046892922675671
11.432835610748556,-0.007105204337686672
11.439875534154188,-0.00571705505297142
11.446915457559822,-0.011086252654966934
11.453955380965455,-0.014162798269620214
11.460995304371089,-0.008584477249639105
11.468035227776722,0.0014511556915489557
11.475075151182356,0.005426667315491832
11.48211507458799,-0.0023941718180036094
11.489154997993623,-0.016479100198795043
11.496194921399255,-0.026099337465973833
11.503234844804888,-0.026037576390986947
11.510274768210522,-0.018284701023247966
11.517314691616155,-0.006067150528427196
11.524354615021789,0.008847457311380272
11.531394538427422,0.022672104425870494
11.538434461833056,0.02788249515095532
11.54547438523869,0.019217378117869402
11.552514308644321,0.0011095867264709763
11.559554232049955,-0.015382073247536203
11.566594155455588,-0.024439135451916595
11.573634078861222,-0.02879625678796771
11.580674002266855,-0.031345407966523645
11.587713925672489,-0.030624961445659002
11.594753849078122,-0.024090061797135857
11.601793772483756,-0.011843117524967453
11.60883369588939,0.001834180658833254
11.615873619295021,0.009979249968162837
11.622913542700656,0.007299802544367705
11.62995346610629,-0.004781383495747169
11.636993389511924,-0.01660327060382935
11.644033312917557,-0.016006590996966757
11.65107323632319,0.0035992295011366736
11.658113159728824,0.04009409357342242
11.665153083134458,0.08013379645512356
11.67219300654009,0.10037203674368234
11.679232929945723,0.0882902631571035
11.686272853351356,0.058640883588574035
11.69331277675699,0.03301362155416817
11.700352700162624,0.016689572324040485
11.707392623568257,0.005586579715736704
11.71443254697389,-0.0011672757257517549
11.721472470379524,-0.0034730447704850427
11.728512393785156,-0.004562208688643233
11.73555231719079,-0.007236494981379802
11.742592240596423,-0.011511861548048282
11.749632164002056,-0.016650495405769374
11.75667208740769,-0.022325683314662576
11.763712010813324,-0.029319726592256797
11.770751934218957,-0.037742537686313284
11.77779185762459,-0.045266822367459644
11.784831781030222,-0.04933253313037131
11.791871704435856,-0.04742264795700192
11.79891162784149,-0.035618375891613166
11.805951551247123,-0.012366586285529429
11.812991474652756,0.014636193018529982
11.82003139805839,0.030202151563341644
11.827071321464024,0.025986402515972652
11.834111244869657,0.009947347647160074
11.841151168275289,-0.0029915036892069514
11.848191091680922,-0.005811431350615627
11.855231015086556,-0.000921123203835284
11.86227093849219,0.01071146628767401
11.869310861897823,0.036450136712502496
11.876350785303456,0.08211236517547725
11.88339070870909,0.1322841439396265
11.890430632114724,0.1518296369063197
11.897470555520357,0.12328788337876745
11.904510478925989,0.07199630554789913
11.911550402331622,0.038395506741598605
11.918590325737256,0.03819878408209957
11.92563024914289,0.05779215659904244
11.932670172548523,0.07714422995932317
11.939710095954156,0.0857348667397611
11.94675001935979,0.07762757159561036
11.953789942765424,0.04944880331759488
11.960829866171055,0.010174105678409113
11.967869789576689,-0.020444487504430172
11.974909712982322,-0.028930451893265992
11.981949636387956,-0.01964056156836605
11.98898955979359,-0.007712829789787301
11.996029483199223,-0.0012833370087580987
12.003069406604856,0.005517889993599366
12.010109330010492,0.020138279626259668
12.017149253416123,0.038219182585058784
12.024189176821757,0.04693090802880328
12.03122910022739,0.04007635711593567
12.038269023633024,0.024757815621370544
12.045308947038658,0.011413401364872622
12.052348870444291,0.005338244713146272
12.059388793849925,0.006191196922437274
12.066428717255558,0.007110048699953973
12.07346864066119,0.0016787281857750143
12.080508564066823,-0.006491945710340636
12.087548487472457,-0.010265718659845945
12.09458841087809,-0.008793470555196789
12.101628334283724,-0.004543156552729678
12.108668257689358,0.0014910464780239635
12.115708181094991,0.007924918158603186
12.122748104500625,0.010872188035831107
12.129788027906258,0.006642876416172531
12.13682795131189,-0.005336671168032564
12.143867874717523,-0.021747887067547097
12.150907798123157,-0.0331668215593185
12.15794772152879,-0.02748525650572149
12.164987644934424,-0.0012217432229019694
12.172027568340058,0.03450566275857042
12.179067491745691,0.05934145664279111
12.186107415151325,0.059700531444963525
12.193147338556956,0.04048025731670504
12.20018726196259,0.015823805671926178
12.207227185368223,-0.0037938472395721043
12.214267108773857,-0.013788287896864856
12.22130703217949,-0.015116817516581615
12.228346955585124,-0.011390297913221001
12.235386878990758,-0.005760868578491618
12.242426802396391,-0.002395786054167547
12.249466725802023,-0.004938832196023752
12.256506649207656,-0.011014029976098332
12.26354657261329,-0.012907617940018691
12.270586496018923,-0.005242134542966702
12.277626419424557,0.010147237694978191
12.28466634283019,0.025482901674450078
12.291706266235824,0.03174904057107331
12.298746189641458,0.026493486764096276
12.30578611304709,0.015053165083595315
12.312826036452723,0.0019718754221414877
12.319865959858356,-0.01086391511984595
12.32690588326399,-0.02038932816979803
12.333945806669623,-0.024442937355747114
12.340985730075257,-0.023419992892674976
12.34802565348089,-0.01842781173847146
12.355065576886524,-0.012553267297575596
12.362105500292158,-0.012879128296965098
12.36914542369779,-0.024356870396002574
12.376185347103423,-0.04164650231766533
12.383225270509058,-0.053532483104048866
12.390265193914692,-0.05391463983506996
12.397305117320325,-0.045856540927790304
12.404345040725959,-0.037038285409317064
12.411384964131592,-0.031235312008434688
12.418424887537226,-0.02663321943313073
12.425464810942858,-0.02180902758560189
12.432504734348491,-0.01796191973272375
12.439544657754125,-0.017410296928733346
12.446584581159758,-0.021392819231576692
12.453624504565392,-0.026381765990134854
12.460664427971025,-0.02603663140397216
12.467704351376659,-0.01897597612937224
12.474744274782292,-0.010799330692114147
12.481784198187924,-0.009231651828909018
12.488824121593558,-0.018790457627011214
12.495864044999191,-0.03510251658083289
12.502903968404825,-0.043966589864222715
12.509943891810458,-0.0354928028076467
12.516983815216092,-0.015508313252137336
12.524023738621725,0.00703318992861129
12.531063662027359,0.030227783826075025
12.53810358543299,0.048403736601632656
12.545143508838624,0.0486962444218331
12.552183432244258,0.028103085810256896
12.559223355649891,0.0020598291388402613
12.566263279055525,-0.011781121131029183
12.573303202461158,-0.008467541861484334
12.580343125866792,0.006819171449152344
12.587383049272425,0.023885176378054897
12.594422972678057,0.030131604845385497
12.60146289608369,0.015796633008980692
12.608502819489324,-0.022932395716458824
12.615542742894958,-0.08242870563324478
12.622582666300591,-0.1418938007783584
12.629622589706225,-0.16357851016508723
12.636662513111858,-0.12927950072092081
12.643702436517492,-0.06627230362858029
12.650742359923125,-0.014756424561826076
12.657782283328757,0.009853614788817286
12.66482220673439,0.014053782564792162
12.671862130140024,0.009245517570944214
12.678902053545658,0.002360778542938979
12.685941976951291,-0.0058503513023878675
12.692981900356925,-0.01613457198470354
12.700021823762558,-0.025898925595957713
12.707061747168192,-0.0310654874501754
12.714101670573823,-0.031282088478273996
12.721141593979457,-0.03057592064279749
12.72818151738509,-0.03224698932232321
12.735221440790724,-0.03512141932652467
12.742261364196358,-0.03626821897759323
12.749301287601991,-0.03484963046000396
12.756341211007625,-0.031427262272244544
12.763381134413258,-0.025220444469538354
12.770421057818892,-0.014514551165325596
12.777460981224525,-0.00043912671094457445
12.784500904630159,0.012050076120518748
12.791540828035792,0.018677531163169156
12.798580751441426,0.019658251015024702
12.80562067484706,0.01849195039751233
12.812660598252693,0.01793105405414282
12.819700521658326,0.018610271326979906
12.826740445063958,0.02190669914730678
12.833780368469592,0.02894183668757982
12.840820291875225,0.03737767591384048
12.847860215280859,0.04463345153995203
12.854900138686492,0.04821904065536918
12.861940062092126,0.0425995947173057
12.86897998549776,0.02703510836403285
12.876019908903393,0.011292634768106803
12.883059832309026,0.005074166136146755
12.890099755714658,0.008715859702397515
12.897139679120292,0.014540266930049816
12.904179602525925,0.012861373521577903
12.911219525931559,0.0003540360581979732
12.918259449337192,-0.016785317752375045
12.925299372742826,-0.02982849762996578
12.93233929614846,-0.035197725103360285
12.939379219554093,-0.03425806671675941
12.946419142959725,-0.02951981964105053
12.953459066365358,-0.02435469076275198
12.960498989770992,-0.022104012646579484
12.967538913176625,-0.021042648860420694
12.974578836582259,-0.014160773948916872
12.981618759987892,0.003099466997656677
12.988658683393526,0.027251705470397066
12.99569860679916,0.050341803435403204
13.002738530204791,0.06495541352502644
13.009778453610425,0.06480457054320907
13.016818377016058,0.04934185942276729
13.023858300421692,0.027532089191499333
13.030898223827325,0.009407210448243027
13.037938147232959,-0.0015849546073756684
13.044978070638592,-0.00622631498664033
13.052017994044226,-0.00669207619905013
13.059057917449858,-0.005213493164660179
13.066097840855491,-0.002104252267350661
13.073137764261125,0.004514008936637771
13.080177687666758,0.0145913704429128
13.087217611072392,0.021458714274556465
13.094257534478025,0.018033095805038882
13.101297457883659,0.006829026359580426
13.108337381289292,-0.003178897050364917
13.115377304694924,-0.005993903424042609
13.122417228100558,-0.0026471931934543974
13.129457151506191,0.0010489897985009396
13.136497074911825,0.0013201840467949321
13.143536998317458,-0.0005726261126529108
13.150576921723093,-0.0030817308991337956
13.157616845128727,-0.007506708647775936
13.16465676853436,-0.014625507960750855
13.171696691939994,-0.021055757934930905
13.178736615345626,-0.021079187125762143
13.18577653875126,-0.012505375287072355
13.192816462156893,0.0004298233111435456
13.199856385562526,0.010903478425990477
13.20689630896816,0.014163851710289641
13.213936232373793,0.008742822491486734
13.220976155779427,-0.0029299553368766344
13.22801607918506,-0.015632653504020155
13.235056002590692,-0.024116106377816984
13.242095925996326,-0.024265787744808393
13.24913584940196,-0.01690968395996734
13.256175772807593,-0.009885602333116774
13.263215696213226,-0.00922257920829784
13.27025561961886,-0.01261928547193065
13.277295543024493,-0.014626341173700874
13.284335466430127,-0.011343822959220982
13.291375389835759,0.0006069532809637329
13.298415313241392,0.02422322074566198
13.305455236647026,0.05638547231809755
13.31249516005266,0.08317126172834016
13.319535083458293,0.08935622805709113
13.326575006863926,0.07285278435654557
13.33361493026956,0.0446568400856754
13.340654853675193,0.017941559529592196
13.347694777080825,-0.00011464200177518534
13.354734700486459,-0.009664691759625666
13.361774623892092,-0.01533959905873703
13.368814547297726,-0.020272012930139097
13.37585447070336,-0.02212141723876443
13.382894394108993,-0.018695006814211615
13.389934317514626,-0.013240388139158739
13.39697424092026,-0.009903123862973949
13.404014164325893,-0.00901014296635899
13.411054087731525,-0.007574490198867001
13.418094011137159,-0.002393031031154584
13.425133934542792,0.0065738334242100415
13.432173857948426,0.017589617955270868
13.43921378135406,0.030559659216770108
13.446253704759693,0.04562832956448595
13.453293628165326,0.059325394683706664
13.46033355157096,0.06510110229296032
13.467373474976592,0.06034487008263975
13.474413398382225,0.04938825891527033
13.481453321787859,0.03768703068621377
13.488493245193492,0.028689281174402576
13.495533168599126,0.024680851113640365
13.50257309200476,0.025229399989498923
13.509613015410393,0.027006658714626777
13.516652938816026,0.027183125042601387
13.523692862221658,0.025000623761338173
13.530732785627293,0.021114592535614204
13.537772709032927,0.0171600417098646
13.54481263243856,0.014199274632145667
13.551852555844194,0.010951956933350503
13.558892479249828,0.004183878303875028
13.565932402655461,-0.0075252438184009555
13.572972326061095,-0.020196823866926738
13.580012249466726,-0.02689633179670796
13.58705217287236,-0.023294408789511518
13.594092096277993,-0.011894605969274299
13.601132019683627,-0.003277870583980217
13.60817194308926,-0.011031087086574508
13.615211866494894,-0.04237820123327028
13.622251789900528,-0.09111351887555484
13.629291713306161,-0.1355886650141112
13.636331636711793,-0.1480076449152672
13.643371560117426,-0.11968087436323589
13.65041148352306,-0.07265684007222256
13.657451406928693,-0.03394221529964199
13.664491330334327,-0.009933177995135871
13.67153125373996,0.007375994563015688
13.678571177145594,0.022814453764121823
13.685611100551228,0.03194062864780986
13.692651023956861,0.027962234811510715
13.699690947362493,0.012680043804071194
13.706730870768126,-0.003499269982906624
13.71377079417376,-0.01323480143378443
13.720810717579393,-0.016066265463040748
13.727850640985027,-0.012902567458564064
13.73489056439066,-0.004608387929876742
13.741930487796294,0.006505830673316051
13.748970411201928,0.01618467576424763
13.75601033460756,0.0194172287782627
13.763050258013193,0.014780980271159455
13.770090181418826,0.005820582574046082
13.77713010482446,-0.005419276948857206
13.784170028230093,-0.021491626487204082
13.791209951635727,-0.04302918035563186
13.79824987504136,-0.06346469126928966
13.805289798446994,-0.07081314467448158
13.812329721852626,-0.05721709874308122
13.81936964525826,-0.029336119002341125
13.826409568663893,-0.0036380535252627556
13.833449492069526,0.008274559057357628
13.84048941547516,0.006118037763641697
13.847529338880793,-0.0016079316048753923
13.854569262286427,-0.004435496673393171
13.86160918569206,0.001918785238979836
13.868649109097692,0.014829942495062646
13.875689032503326,0.028690506712819034
13.88272895590896,0.035299676323481986
13.889768879314593,0.027281568901000246
13.896808802720226,0.005885679708264025
13.90384872612586,-0.017581023867079677
13.910888649531493,-0.02994261327974728
13.917928572937129,-0.02711215890517058
13.924968496342762,-0.016701404403332284
13.932008419748394,-0.007799974627886569
13.939048343154028,-0.00274422478319581
13.946088266559661,-0.0010235146815341539
13.953128189965295,-0.002319747797277362
13.960168113370928,-0.003777933918224995
13.967208036776562,-0.0010053072336298693
13.974247960182195,0.008237686665246933
13.981287883587829,0.02346937953539246
13.98832780699346,0.04128719248387245
13.995367730399094,0.05460754777296506
14.002407653804728,0.05650204310427408
14.009447577210361,0.046260417441504734
14.016487500615995,0.029160163937208387
14.023527424021628,0.01108549629542577
14.030567347427262,-0.003759732713448479
14.037607270832895,-0.012331511809592298
14.044647194238527,-0.014452531036590657
14.05168711764416,-0.013637402895172901
14.058727041049794,-0.013354170362630674
14.065766964455428,-0.013340513520735474
14.072806887861061,-0.01059836790087223
14.079846811266695,-0.0029511821552699663
14.086886734672328,0.008048478133017135
14.093926658077962,0.017066843032379264
14.100966581483593,0.020420849011019992
14.108006504889227,0.019153395019357016
14.11504642829486,0.014193999902667079
14.122086351700494,0.005442035556526517
14.129126275106128,-0.0041970603713580405
14.136166198511761,-0.01105766019674454
14.143206121917395,-0.01593599600983325
14.150246045323028,-0.02183869180642819
14.15728596872866,-0.02844383062875057
14.164325892134293,-0.03368690826141971
14.171365815539927,-0.036685205279353955
14.17840573894556,-0.03580722652179008
14.185445662351194,-0.030232702411030155
14.192485585756828,-0.02331181443522093
14.199525509162461,-0.018931424567048785
14.206565432568095,-0.017516443612676395
14.213605355973728,-0.01737782202136342
14.22064527937936,-0.01655197695957416
14.227685202784993,-0.012998526590733825
14.234725126190627,-0.004710686483313433
14.24176504959626,0.007471837953313404
14.248804973001894,0.017780518047022846
14.255844896407528,0.022139343006741127
14.262884819813161,0.023554941220468407
14.269924743218795,0.025166098035885168
14.276964666624426,0.024878702032601053
14.28400459003006,0.019930338014678355
14.291044513435695,0.011237195510575945
14.298084436841329,0.0020406869970970094
14.305124360246962,-0.005635632079001513
14.312164283652596,-0.011249690579642892
14.31920420705823,-0.014287325492394032
14.326244130463863,-0.015629095574689122
14.333284053869495,-0.01805590969854608
14.340323977275128,-0.02264048186058918
14.347363900680762,-0.027096089624527357
14.354403824086395,-0.02960486348064739
14.361443747492029,-0.02982321052359819
14.368483670897662,-0.02598754125124173
14.375523594303296,-0.017277350319216834
14.38256351770893,-0.006836486902998171
14.389603441114561,0.0008903694473718496
14.396643364520195,0.003617038975750931
14.403683287925828,0.0028866493216395507
14.410723211331462,0.0013258034042744505
14.417763134737095,-0.0016962378977900278
14.424803058142729,-0.006922958234436116
14.431842981548362,-0.011821755082321361
14.438882904953996,-0.016176342609411115
14.44592282835963,-0.025642984818452886
14.452962751765261,-0.045356663818495686
14.460002675170895,-0.06996720015637523
14.467042598576528,-0.08156091113133436
14.474082521982162,-0.06531911766451018
14.481122445387795,-0.02586392970655202
14.488162368793429,0.019342534334581604
14.495202292199062,0.05402090358554409
14.502242215604696,0.06770393211101898
14.509282139010327,0.06049591643271655
14.516322062415961,0.044008481698759296
14.523361985821595,0.02952743553015527
14.530401909227228,0.020129787595463904
14.537441832632862,0.016287443804399716
14.544481756038495,0.01963193678149961
14.551521679444129,0.027806768499246983
14.558561602849762,0.031291697927287226
14.565601526255394,0.022661063401603374
14.572641449661027,0.007255239120638886
14.579681373066661,-0.0040788399840319045
14.586721296472295,-0.008719080473128908
14.593761219877928,-0.01021985594954043
14.600801143283562,-0.009584450808361605
14.607841066689195,-0.0071641822674386475
14.614880990094829,-0.0060092442156315954
14.62192091350046,-0.006999414938912065
14.628960836906094,-0.007550490990750427
14.636000760311727,-0.007013075522684349
14.643040683717361,-0.009392415797037075
14.650080607122995,-0.022170134912014944
14.657120530528628,-0.05025696304078034
14.664160453934262,-0.08352093097751487
14.671200377339895,-0.09638596294038664
14.67824030074553,-0.07445415929319826
14.685280224151162,-0.03178122120898081
14.692320147556796,0.008787008423432371
14.69936007096243,0.03481178474893896
14.706399994368063,0.04196659119237403
14.713439917773696,0.03177085099362071
14.72047984117933,0.01252729892081584
14.727519764584963,-0.005678631194576452
14.734559687990597,-0.01621245996378889
14.741599611396229,-0.017122213554695818
14.748639534801862,-0.010813970155555096
14.755679458207496,-0.0011002075985424957
14.76271938161313,0.010257448069064224
14.769759305018763,0.022302073144845558
14.776799228424396,0.03274314798966085
14.78383915183003,0.04138794598189949
14.790879075235663,0.052518819846625805
14.797918998641295,0.06859713683407795
14.804958922046929,0.08340199598128907
14.811998845452562,0.08597838657125001
14.819038768858196,0.07224333347526107
14.82607869226383,0.04849685375254102
14.833118615669463,0.024089419774879155
14.840158539075096,0.0062921939003908415
14.84719846248073,-0.00047723190380926186
14.854238385886362,0.005309687566111259
14.861278309291995,0.022345349663132386
14.868318232697629,0.0424340357305188
14.875358156103262,0.049437293828332285
14.882398079508896,0.03356381373281858
14.88943800291453,0.005142635149456235
14.896477926320163,-0.01442892986353366
14.903517849725796,-0.01196374842126157
14.910557773131428,0.00966061836376225
14.917597696537062,0.03711642597064445
14.924637619942695,0.05719177009018162
14.931677543348329,0.06332308442982515
14.938717466753962,0.05797526624222433
14.945757390159596,0.050233867423743896
14.95279731356523,0.045842285408156935
14.959837236970863,0.041461539345640515
14.966877160376496,0.030114924381781635
14.973917083782128,0.009142567162857091
14.980957007187762,-0.014386139922002699
14.987996930593395,-0.026209029138865185
14.995036853999029,-0.017253226150198017
15.002076777404662,0.00713832323986253
15.009116700810296,0.03036679222008734
15.01615662421593,0.037597497799595654
15.023196547621563,0.027628615920331178
15.030236471027195,0.010191296294815598
15.037276394432828,-0.00460990181782519
15.044316317838462,-0.01029803459171531
15.051356241244097,-0.006217541038644116
15.05839616464973,-5.27625062601211e-05
15.065436088055364,0.0003343832612089639
15.072476011460997,-0.0026060925837820366
15.079515934866631,-0.0008363556620519948
15.086555858272263,0.00819083277835887
15.093595781677896,0.01896344552680775
15.10063570508353,0.023453302140434045
15.107675628489163,0.01933770384412897
15.114715551894797,0.012280175914700332
15.12175547530043,0.008712616376663464
15.128795398706064,0.009645121046694535
15.135835322111697,0.01268873858016132
15.14287524551733,0.015836943729515985
15.149915168922963,0.01790725560062823
15.156955092328596,0.01872678458825851
15.16399501573423,0.02068735880938167
15.171034939139863,0.025829646887004194
15.178074862545497,0.029393659031672324
15.18511478595113,0.02364110660108558
15.192154709356764,0.009402928372654034
15.199194632762397,-0.004875388654733213
15.20623455616803,-0.014722127081039179
15.213274479573663,-0.022311637390252596
15.220314402979296,-0.029818990386815507
15.22735432638493,-0.03607639615127236
15.234394249790563,-0.03806316449132566
15.241434173196197,-0.03339453656387417
15.24847409660183,-0.02324426164802889
15.255514020007464,-0.012397002109271709
15.262553943413096,-0.004747112334141294
15.26959386681873,-0.00010468447868689184
15.276633790224363,0.0037651021748998825
15.283673713629996,0.007072291875951279
15.29071363703563,0.007926556490143214
15.297753560441263,0.00658129247385958
15.304793483846897,0.005422466376997037
15.31183340725253,0.0034185698925063256
15.318873330658162,-0.003900811624957997
15.325913254063796,-0.016927938858474642
15.33295317746943,-0.027628372624492154
15.339993100875063,-0.02640604319050509
15.347033024280696,-0.014670965265453868
15.35407294768633,-0.0033927851749238178
15.361112871091963,0.0017864681369578023
15.368152794497597,0.004413168789752207
15.375192717903229,0.008654544644276478
15.382232641308862,0.013208817962690815
15.389272564714496,0.013434067831386232
15.39631248812013,0.00853924096604932
15.403352411525763,0.0024986402111718555
15.410392334931396,-0.002791260362334811
15.41743225833703,-0.009404767969378686
15.424472181742663,-0.018269121621631232
15.431512105148297,-0.026940633315857693
15.43855202855393,-0.032037335773925826
15.445591951959564,-0.03238796481053556
15.452631875365197,-0.029950324974348994
15.459671798770831,-0.02560073149527346
15.466711722176465,-0.0167581050817932
15.473751645582098,-0.002995827835375137
15.480791568987732,0.010573489247429735
15.487831492393365,0.017953969164136357
15.494871415798997,0.016443449232359277
15.50191133920463,0.00663352861155605
15.508951262610264,-0.007886035790367823
15.515991186015897,-0.02168237293767306
15.523031109421531,-0.0318722326346007
15.530071032827165,-0.04176416575648488
15.537110956232798,-0.05692522506052336
15.544150879638432,-0.07527759431713518
15.551190803044063,-0.08524056799227453
15.558230726449697,-0.07838068154859068
15.56527064985533,-0.058052382094719746
15.572310573260964,-0.031927736628996554
15.579350496666597,-0.004692459316068596
15.586390420072231,0.02134816093684303
15.593430343477864,0.04301117938141134
15.600470266883498,0.05291479025625276
15.60751019028913,0.04615053414376731
15.614550113694763,0.0292475497678619
15.621590037100397,0.01305138937007845
15.62862996050603,0.0028071852142330833
15.635669883911664,2.2409575105330906e-05
15.642709807317297,0.005176403006760133
15.649749730722931,0.015618838471805582
15.656789654128564,0.02647932235175563
15.663829577534198,0.03506381985061105
15.670869500939832,0.042546169116227814
15.677909424345465,0.05009747810755068
15.684949347751099,0.053506632933617924
15.691989271156729,0.047427855301125206
15.699029194562362,0.034401902569458444
15.706069117967996,0.02201553947707691
15.71310904137363,0.014959806979045464
15.720148964779263,0.013079968212116598
15.727188888184896,0.01239172191716553
15.73422881159053,0.010046670215784554
15.741268734996163,0.007720152677393019
15.748308658401797,0.006254151553811543
15.75534858180743,0.0024754023576178587
15.762388505213064,-0.0062230204434215635
15.769428428618697,-0.01648323809407484
15.776468352024331,-0.019373463901149832
15.783508275429964,-0.010228181979715166
15.790548198835598,0.004659686637169121
15.797588122241232,0.016088236655491087
15.804628045646865,0.021109669080900277
15.811667969052497,0.021784357584551946
15.81870789245813,0.01979947293694095
15.825747815863764,0.01299440722329756
15.832787739269397,-0.0036508004891239627
15.839827662675031,-0.03191906617284007
15.846867586080664,-0.06375202092376257
15.853907509486298,-0.0833670034388993
15.860947432891932,-0.08129956922421903
15.867987356297565,-0.06206407396826291
15.875027279703199,-0.0355880053434712
15.882067203108832,-0.010465117246899885
15.889107126514466,0.005887240662891799
15.8961470499201,0.008511365829070616
15.903186973325733,-0.003544480875123615
15.910226896731366,-0.026899615680538898
15.917266820137,-0.05206027880898114
15.92430674354263,-0.06520228880950657
15.931346666948263,-0.06252305289929537
15.938386590353897,-0.05717230101938557
15.94542651375953,-0.058480253151448135
15.952466437165164,-0.0568282443883087
15.959506360570797,-0.042523733438103936
15.966546283976431,-0.024746941296709977
15.973586207382064,-0.018223229492839454
15.980626130787698,-0.021250349600647426
15.987666054193332,-0.01847299771318111
15.994705977598965,-0.0024928206361429553
16.001745901004597,0.01675409758662375
16.008785824410232,0.025607065462770282
16.015825747815867,0.021465399932974014
16.0228656712215,0.01212015978033965
16.029905594627134,0.004431881706005286
16.036945518032766,-0.003403067964533749
16.043985441438398,-0.015443087300293902
16.05102536484403,-0.027799973696085875
16.058065288249665,-0.03251569940874019
16.065105211655297,-0.027869620349831217
16.072145135060932,-0.017268766324885776
16.079185058466564,-0.002842002363680626
16.0862249818722,0.01461154043345286
16.09326490527783,0.031374302491204646
16.100304828683466,0.03841608533168601
16.107344752089098,0.027744637466896194
16.114384675494733,0.001750521797320363
16.121424598900365,-0.026920913103025204
16.128464522306,-0.04357151406498765
16.135504445711632,-0.04221651031125912
16.142544369117267,-0.02926818398032372
16.1495842925229,-0.015380906426250606
16.15662421592853,-0.008275671837526206
16.163664139334163,-0.010256360098332175
16.170704062739798,-0.01744861348944076
16.17774398614543,-0.02472167964588334
16.184783909551065,-0.030338116678762166
16.191823832956697,-0.03496998789881829
16.198863756362332,-0.03960223462553409
16.205903679767964,-0.041403710988867616
16.2129436031736,-0.03294548103973592
16.21998352657923,-0.01402062817236652
16.227023449984866,0.001999160378469602
16.234063373390498,0.0041775883319013244
16.241103296796133,-0.00017820669834563933
16.248143220201765,0.007333665645612241
16.2551831436074,0.0390771125006247
16.262223067013032,0.09345619358225397
16.269262990418667,0.14955570484002526
16.276302913824296,0.16954219656233105
16.28334283722993,0.1338459479597726
16.290382760635563,0.06856418543314609
16.297422684041198,0.014595282558786032
16.30446260744683,-0.011650225484127454
16.311502530852465,-0.017351915567992354
16.318542454258097,-0.014616015125505952
16.325582377663732,-0.009886657050889949
16.332622301069364,-0.005420534856006715
16.339662224475,-0.0038545109997655744
16.34670214788063,-0.008628969983694706
16.353742071286266,-0.02181440906626687
16.360781994691898,-0.042405510223733296
16.367821918097533,-0.06702237161967713
16.374861841503165,-0.08774560750723531
16.3819017649088,-0.08865889616445197
16.388941688314432,-0.05749423190930841
16.395981611720064,-0.0041946781697478445
16.4030215351257,0.043598133610980326
16.41006145853133,0.06481075076789326
16.417101381936966,0.057206307535933976
16.424141305342598,0.030669744194595908
16.431181228748233,0.00031509726980162144
16.438221152153865,-0.018593561671798736
16.4452610755595,-0.02007392274810769
16.452300998965132,-0.01056910062686145
16.459340922370767,-0.00039818952668190964
16.4663808457764,0.005153703078952744
16.473420769182034,0.005688767936980711
16.480460692587666,0.001488537317831666
16.4875006159933,-0.00602370766267229
16.494540539398933,-0.012929643454248657
16.50158046280457,-0.015844249562416403
16.508620386210197,-0.014271630127103418
16.515660309615832,-0.010728390366662397
16.522700233021464,-0.009990209440824216
16.5297401564271,-0.013064869930538925
16.53678007983273,-0.012543987499020467
16.543820003238366,-0.0007422830809500847
16.550859926643998,0.020987399636350004
16.557899850049633,0.045137939150562946
16.564939773455265,0.06271481236902518
16.5719796968609,0.0641293208995913
16.579019620266532,0.04613319030284142
16.586059543672167,0.017944976106232552
16.5930994670778,-0.005863355127633437
16.600139390483434,-0.01591420196579694
16.607179313889066,-0.010789020272200692
16.6142192372947,0.005584286794894148
16.62125916070033,0.02553825760037452
16.628299084105965,0.03870132634161482
16.635339007511597,0.03853814232078417
16.642378930917232,0.027973183540835764
16.649418854322864,0.014739941571421562
16.6564587777285,0.004311095830814137
16.66349870113413,-0.0019328858592753593
16.670538624539766,-0.00549751709479947
16.677578547945398,-0.007417060568349868
16.684618471351033,-0.006135122353846032
16.691658394756665,0.00011141159830186059
16.6986983181623,0.010308705959858881
16.705738241567932,0.019480356492706852
16.712778164973567,0.020815679196416387
16.7198180883792,0.012241998759534313
16.726858011784834,-7.884857908028618e-05
16.733897935190463,-0.007667459583736774
16.740937858596098,-0.007436377859978677
16.74797778200173,-0.0017121146008731462
16.755017705407365,0.006181451938690286
16.762057628812997,0.013915139862169816
16.769097552218632,0.018624197209298806
16.776137475624267,0.016764090125553736
16.7831773990299,0.00894499462974035
16.790217322435534,0.0005258969149702581
16.797257245841166,-0.005588470835554476
16.8042971692468,-0.010936638902099543
16.811337092652433,-0.016216407079112937
16.81837701605807,-0.020866968222524783
16.8254169394637,-0.027727920522347738
16.832456862869336,-0.04038998835706723
16.839496786274967,-0.05431303569598521
16.846536709680603,-0.059041960457265195
16.85357663308623,-0.05283977543383366
16.860616556491866,-0.04590913922510254
16.867656479897498,-0.045008511805946276
16.874696403303133,-0.04398431925864899
16.881736326708765,-0.03244486204075273
16.8887762501144,-0.007154181320784555
16.895816173520032,0.02663795048272343
16.902856096925667,0.05741406602027932
16.9098960203313,0.06965209009888587
16.916935943736934,0.05703948586686723
16.923975867142566,0.03237277868479966
16.9310157905482,0.012959325710522043
16.938055713953833,0.004759118228101543
16.94509563735947,0.0057694997747107036
16.9521355607651,0.013486329181409898
16.959175484170736,0.026295425499873796
16.966215407576364,0.04341470168397145
16.973255330982,0.06407443826427116
16.98029525438763,0.08253677170540318
16.987335177793266,0.08646585353515389
16.994375101198898,0.07051389398591637
17.001415024604533,0.046284759264690015
17.008454948010165,0.02707352792954231
17.0154948714158,0.014043248052550803
17.022534794821432,0.00391341035232558
17.029574718227067,-0.0032046639038374276
17.0366146416327,-0.0055358719692824845
17.043654565038334,-0.0014791221004872976
17.050694488443966,0.009754759287871638
17.0577344118496,0.025053536634127727
17.064774335255233,0.035480652390361384
17.07181425866087,0.032429472566525876
17.0788541820665,0.014934941175635603
17.085894105472132,-0.01196892646497476
17.092934028877764,-0.040721162090131914
17.0999739522834,-0.06104432409469182
17.10701387568903,-0.06322883223444213
17.114053799094666,-0.047143997721617925
17.121093722500298,-0.025310224324095992
17.128133645905933,-0.01220787211022887
17.135173569311565,-0.01193195923950804
17.1422134927172,-0.017093416302341343
17.149253416122832,-0.01793817840496102
17.156293339528467,-0.012173096157530422
17.163333262934103,-0.0052158999138966645
17.170373186339734,-0.0021537651098795948
17.17741310974537,-0.003039175499024302
17.184453033151,-0.005342102839964159
17.191492956556637,-0.007786039116684158
17.198532879962265,-0.011301295851158936
17.2055728033679,-0.015413025671152937
17.212612726773532,-0.015726484679794726
17.219652650179167,-0.00965505974218019
17.2266925735848,-0.0016890939924402272
17.233732496990434,0.0015248472564013424
17.240772420396066,-0.0013721102261717083
17.2478123438017,-0.006265523949422944
17.254852267207333,-0.008941156722348558
17.26189219061297,-0.008077733047604833
17.2689321140186,-0.0032991225224829742
17.275972037424236,0.005543179974124177
17.283011960829867,0.017121599555095585
17.290051884235503,0.029614960793921404
17.297091807641134,0.039891202440802166
17.30413173104677,0.04225375938025988
17.3111716544524,0.03507215134406417
17.318211577858033,0.025329516169893457
17.325251501263665,0.019570050199096554
17.3322914246693,0.01563306382826137
17.339331348074932,0.008359197450131976
17.346371271480567,-0.001932864302569363
17.3534111948862,-0.01044150795273036
17.360451118291834,-0.012713910675881608
17.367491041697466,-0.006587919653460146
17.3745309651031,0.007402171728657959
17.381570888508733,0.026359874054420078
17.38861081191437,0.04387517839004454
17.39565073532,0.05085993578384178
17.402690658725636,0.043580306065551425
17.409730582131267,0.02760820334529126
17.416770505536903,0.011535028593690292
17.423810428942534,0.0007715643110339837
17.430850352348166,-0.005033330661415778
17.437890275753798,-0.010968350255611492
17.444930199159433,-0.020379671416631835
17.451970122565065,-0.030754888759258154
17.4590100459707,-0.03833159787792067
17.466049969376332,-0.04302071856359986
17.473089892781967,-0.046461459833253345
17.4801298161876,-0.04807735809247698
17.487169739593234,-0.04537354208946963
17.494209662998866,-0.03785134228326878
17.5012495864045,-0.029057796090311304
17.508289509810133,-0.023693061901141375
17.51532943321577,-0.022981342957732787
17.5223693566214,-0.0246280606685592
17.529409280027036,-0.026864306845922212
17.536449203432667,-0.02861731656536484
17.543489126838303,-0.026893597996053405
17.550529050243934,-0.01879575859364264
17.557568973649566,-0.005750295461660834
17.5646088970552,0.006630164883133682
17.571648820460833,0.012821620376991666
17.57868874386647,0.01113028908066465
17.5857286672721,0.005087146041618333
17.592768590677736,0.001266367496309092
17.599808514083367,0.0026198960922362525
17.606848437489003,0.00497048837408713
17.613888360894634,0.003424549295967962
17.62092828430027,-0.001051956087387404
17.6279682077059,-0.005969430191828693
17.635008131111537,-0.011610432361579787
17.64204805451717,-0.015372173682828838
17.649087977922804,-0.011670098602324727
17.656127901328436,-0.0024482829172305523
17.663167824734067,0.0017729549264244332
17.6702077481397,-0.005851740037899152
17.677247671545334,-0.021405426977762373
17.684287594950966,-0.035923724550567825
17.6913275183566,-0.043833253878882865
17.698367441762233,-0.04504103060607845
17.70540736516787,-0.041276359640030534
17.7124472885735,-0.0319987005826234
17.719487211979136,-0.014537843322733182
17.726527135384767,0.012131839407804695
17.733567058790403,0.04417520909792017
17.740606982196034,0.07064139870363746
17.74764690560167,0.07631838650064336
17.7546868290073,0.055490613534786244
17.761726752412937,0.02088353129554462
17.76876667581857,-0.007485510419435557
17.775806599224204,-0.019046144370482944
17.782846522629832,-0.017764208783840305
17.789886446035467,-0.015521856191621611
17.7969263694411,-0.02289943035237227
17.803966292846734,-0.043449068272117745
17.811006216252366,-0.06892418733116079
17.818046139658,-0.08151504084706324
17.825086063063633,-0.07145978678192505
17.83212598646927,-0.04810388241693623
17.8391659098749,-0.024362294747066165
17.846205833280536,0.00010349906752873624
17.853245756686167,0.032443350793256005
17.860285680091803,0.06984921158803982
17.867325603497434,0.09427972999402666
17.87436552690307,0.0879027484262082
17.8814054503087,0.05349594614955862
17.888445373714337,0.012050039953578338
17.895485297119965,-0.016665509351805125
17.9025252205256,-0.025171502110734975
17.909565143931236,-0.018094377209338472
17.916605067336867,-0.005859893137742322
17.923644990742503,0.0052784432341247915
17.930684914148134,0.01722930719828357
17.93772483755377,0.03334865493599513
17.9447647609594,0.04904436529442172
17.951804684365037,0.0529313469194483
17.95884460777067,0.04133293508139064
17.965884531176304,0.02547680776281373
17.972924454581936,0.01885603917740255
17.97996437798757,0.02302341502327401
17.987004301393203,0.027186062541659273
17.994044224798838,0.019877238281654754
18.00108414820447,0.0008040574967992349
18.0081240716101,-0.02036927221601669
18.015163995015733,-0.033929978022315156
18.02220391842137,-0.03601351214254089
18.029243841827,-0.027895124165693026
18.036283765232636,-0.014012031056278082
18.043323688638267,-0.001057462972181206
18.050363612043903,0.006223663856132539
18.057403535449534,0.008729360361290345
18.06444345885517,0.008941763056604973
18.0714833822608,0.00726808565850814
18.078523305666437,0.004203047820475521
18.08556322907207,0.0008927582572515627
18.092603152477704,-0.003038975537900681
18.099643075883336,-0.009200724938237148
18.10668299928897,-0.016023452683662953
18.113722922694603,-0.017391014601413502
18.120762846100238,-0.01043586362428751
18.127802769505866,-4.4803327228732336e-05
18.1348426929115,0.008160529931352462
18.141882616317133,0.012814265838856772
18.14892253972277,0.013735806713835062
18.1559624631284,0.010426708664993895
18.163002386534036,0.003779268507876146
18.170042309939667,-0.005535007634675725
18.177082233345303,-0.018016216081644196
18.184122156750934,-0.030936649202905047
18.19116208015657,-0.03778536374400099
18.1982020035622,-0.03323023966103624
18.205241926967837,-0.014794131120527841
18.21228185037347,0.01578523092831868
18.219321773779104,0.047681516487827515
18.226361697184736,0.0636285680326504
18.23340162059037,0.0562800808358697
18.240441543996,0.03723693425283715
18.247481467401634,0.02293866476989278
18.254521390807266,0.019453965592837838
18.2615613142129,0.02293069945653158
18.268601237618533,0.02636885644834433
18.27564116102417,0.024305873398848498
18.2826810844298,0.013578108618670945
18.289721007835436,-0.0065812637984779005
18.29676093124107,-0.03381504150427355
18.303800854646703,-0.06076004623692161
18.310840778052338,-0.0738721158233693
18.31788070145797,-0.06420202035493572
18.324920624863605,-0.038811353340720854
18.331960548269237,-0.010777680687256591
18.339000471674872,0.014858169749470669
18.346040395080504,0.036222777723808317
18.35308031848614,0.04598560644478426
18.360120241891767,0.03891356292819752
18.367160165297403,0.0217494411883963
18.374200088703034,0.005755006419589919
18.38124001210867,-0.004793806100146663
18.3882799355143,-0.011773080092028187
18.395319858919937,-0.017152639459598627
18.40235978232557,-0.019975315638316504
18.409399705731204,-0.01790766316707716
18.416439629136836,-0.011392203250839474
18.42347955254247,-0.004396459774990164
18.430519475948103,-0.000593696146652313
18.437559399353738,-0.0013941852684048977
18.44459932275937,-0.006773215204661178
18.451639246165005,-0.013764377956773011
18.458679169570637,-0.017347596429703828
18.465719092976272,-0.01552576634354433
18.4727590163819,-0.010710442315395686
18.479798939787536,-0.007890780442656613
18.486838863193167,-0.01102204510895034
18.493878786598803,-0.019243127961326646
18.500918710004434,-0.0281565683729678
18.50795863341007,-0.033050138749729834
18.5149985568157,-0.031123760352368968
18.522038480221337,-0.024503582173693174
18.52907840362697,-0.020888678064108678
18.536118327032604,-0.02644743651690988
18.543158250438236,-0.03628226989670752
18.55019817384387,-0.03810074691148954
18.557238097249503,-0.02664285290216613
18.564278020655138,-0.00742893004893334
18.57131794406077,0.012490795266142753
18.578357867466405,0.029769555610156626
18.585397790872037,0.04284240009300003
18.59243771427767,0.051825681188684636
18.5994776376833,0.05619187662480426
18.606517561088936,0.05037803893818241
18.613557484494567,0.03206552701914851
18.620597407900203,0.010714028314024304
18.627637331305834,-0.0026018006169729155
18.63467725471147,-0.004900317706319363
18.6417171781171,0.0019121846133097024
18.648757101522737,0.013674096922624642
18.65579702492837,0.02456847671922392
18.662836948334004,0.03120576608074262
18.669876871739636,0.035260189538576375
18.67691679514527,0.040667478631841475
18.683956718550906,0.04855912835014179
18.690996641956538,0.054718900279990955
18.698036565362173,0.052896087420755425
18.7050764887678,0.04054648316278307
18.712116412173437,0.02103722805586935
18.71915633557907,0.0016252649734974037
18.726196258984704,-0.012096806103663068
18.733236182390336,-0.0193974165747515
18.74027610579597,-0.021632422912818524
18.747316029201603,-0.021214110785084485
18.754355952607238,-0.02241773192239404
18.76139587601287,-0.027694841895986446
18.768435799418505,-0.03456884223793637
18.775475722824137,-0.038010338972162744
18.782515646229772,-0.03359339799997872
18.789555569635404,-0.020351213166149205
18.79659549304104,-0.004437759514684734
18.80363541644667,0.003245605635677598
18.810675339852306,-0.0021967200177370797
18.817715263257938,-0.014108762361924232
18.82475518666357,-0.022784359169427323
18.8317951100692,-0.02520965078300887
18.838835033474837,-0.024584514044806275
18.84587495688047,-0.024938618564284965
18.852914880286104,-0.026803895653953143
18.859954803691735,-0.026924820986834463
18.86699472709737,-0.023434252593489784
18.874034650503003,-0.018248092521073726
18.881074573908638,-0.013295522720043357
18.88811449731427,-0.009420223812298949
18.895154420719905,-0.009400773798903472
18.902194344125537,-0.019628636259906223
18.909234267531172,-0.04491627768766436
18.916274190936804,-0.07550685292314255
18.92331411434244,-0.08652983546140562
18.93035403774807,-0.06316197725953866
18.937393961153703,-0.017961987508102743
18.944433884559334,0.02468931470320626
18.95147380796497,0.04834076109338469
18.9585137313706,0.049065861116335624
18.965553654776237,0.0341113427683069
18.97259357818187,0.015009518348629215
18.979633501587504,-0.0005751655213508005
18.986673424993135,-0.009549036636395822
18.99371334839877,-0.01083425876746517
19.000753271804403,-0.004653888720800581
19.007793195210038,0.00570941738065758
19.01483311861567,0.013377336360438407
19.021873042021305,0.015579563294202903
19.028912965426937,0.020632527434577174
19.035952888832572,0.03740578873199602
19.042992812238204,0.060308810273891365
19.050032735643835,0.07320458626185605
19.05707265904947,0.06569581413448973
19.064112582455103,0.04579989450807284
19.071152505860738,0.03708120153966918
19.07819242926637,0.058821698263362
19.085232352672005,0.10972585341423907
19.092272276077637,0.1631435123085073
19.099312199483272,0.17952049828526792
19.106352122888904,0.1431777795926057
19.11339204629454,0.07883392003541362
19.12043196970017,0.02061339061743846
19.127471893105806,-0.016400131035997335
19.134511816511438,-0.032328055562439006
19.141551739917073,-0.029792940017947665
19.148591663322705,-0.009353799452235106
19.15563158672834,0.027226899202575306
19.162671510133972,0.06853574987499667
19.169711433539604,0.09303090713892595
19.176751356945235,0.08967952689158375
19.18379128035087,0.07186435938192795
19.190831203756503,0.05800988431696858
19.197871127162138,0.05181485673647704
19.20491105056777,0.04983009049836754
19.211950973973405,0.05241411005777
19.218990897379037,0.05738604150262691
19.226030820784672,0.05479207706519972
19.233070744190304,0.037642247711909334
19.24011066759594,0.009128976835937413
19.24715059100157,-0.02640182537225114
19.254190514407206,-0.07197975067588788
19.261230437812838,-0.13147577644310965
19.268270361218473,-0.19039820103455574
19.275310284624105,-0.21098350527735302
19.282350208029737,-0.1709314806723252
19.28939013143537,-0.09640532245105102
19.296430054841004,-0.031019498492700838
19.303469978246635,0.0046047442318862776
19.31050990165227,0.011396758031496618
19.317549825057903,-0.0008789734645795256
19.324589748463538,-0.01857550740505158
19.33162967186917,-0.030441002685016778
19.338669595274805,-0.03377501348012948
19.345709518680437,-0.03253973355632239
19.352749442086072,-0.029039077984388525
19.359789365491704,-0.02147287810482704
19.36682928889734,-0.01018703947497283
19.37386921230297,0.00044725636254400744
19.380909135708606,0.007910167410513994
19.387949059114238,0.013266277685343785
19.394988982519873,0.016207267332189856
19.4020289059255,0.012507257377348842
19.409068829331137,-0.002568087220408927
19.41610875273677,-0.02756117510777833
19.423148676142404,-0.05049325605288817
19.43018859954804,-0.05611078367103843
19.43722852295367,-0.04113490729305666
19.444268446359306,-0.01670634089591452
19.451308369764938,0.004388798438849838
19.458348293170573,0.016191950089473717
19.465388216576205,0.019403723910611334
19.47242813998184,0.018249295151908068
19.479468063387472,0.015682397846838014
19.486507986793107,0.011917008826194791
19.49354791019874,0.007009790509690856
19.500587833604374,0.002407162860573413
19.507627757010006,0.0010338650789413764
19.514667680415638,0.004116582747167116
19.52170760382127,0.006706228416725727
19.528747527226905,0.002778830870658519
19.535787450632537,-0.0064257959896673045
19.542827374038172,-0.014642281874728968
19.549867297443804,-0.017428736386547416
19.55690722084944,-0.015808128296181397
19.56394714425507,-0.014856794397862761
19.570987067660706,-0.017572008172964247
19.578026991066338,-0.021360094890019464
19.585066914471973,-0.02231420726067353
19.592106837877605,-0.020172119490370892
19.59914676128324,-0.016822272456255782
19.606186684688872,-0.01397047486551406
19.613226608094507,-0.012538527232330588
19.62026653150014,-0.012452090753373042
19.627306454905774,-0.014456731811943683
19.634346378311403,-0.018800436907724188
19.641386301717038,-0.02278040968862919
19.64842622512267,-0.024376255513855697
19.655466148528305,-0.02467819671416862
19.662506071933937,-0.024994950338821983
19.669545995339572,-0.02562580580150889
19.676585918745204,-0.027249655101000834
19.68362584215084,-0.030904776553742446
19.69066576555647,-0.037856275131647146
19.697705688962106,-0.051708263254314664
19.704745612367738,-0.07657081161043384
19.711785535773373,-0.10552965197052143
19.718825459179005,-0.11721673186919812
19.72586538258464,-0.10078087857013704
19.732905305990272,-0.07628496987464368
19.739945229395907,-0.07159986835380423
19.746985152801535,-0.08528809367771985
19.75402507620717,-0.08737915493290753
19.761064999612802,-0.061584379729092927
19.768104923018438,-0.025979176173826928
19.77514484642407,-0.0017132531075867842
19.782184769829705,0.008293532671757867
19.789224693235337,0.007999382515345167
19.796264616640972,0.0026276340700360995
19.803304540046604,-0.00022603394153387088
19.81034446345224,0.002174981727237675
19.817384386857874,0.0034374988896343317
19.824424310263506,-0.003074039377647414
19.83146423366914,-0.014420001301011835
19.838504157074773,-0.02167324348530582
19.84554408048041,-0.019731057341615038
19.85258400388604,-0.007610282371690942
19.859623927291675,0.01636277973389476
19.866663850697304,0.05140019593770308
19.87370377410294,0.08719102860068369
19.88074369750857,0.10689177766252086
19.887783620914206,0.10369221947729668
19.894823544319838,0.08968402777887906
19.901863467725473,0.07829080934415458
19.908903391131105,0.0641648200474936
19.91594331453674,0.03164052719853111
19.922983237942372,-0.023955505051237745
19.930023161348007,-0.09260579906349946
19.93706308475364,-0.15268097801762956
19.944103008159274,-0.17354656594367607
19.951142931564906,-0.14256872687290062
19.95818285497054,-0.0853058903192071
19.965222778376173,-0.03602861491929242
19.97226270178181,-0.007099160738658973
19.979302625187437,0.004678564943947763
19.986342548593072,0.004753882010813013
19.993382471998704,-0.0015810403018732353
20.00042239540434,-0.008653117534969886
20.00746231880997,-0.012021294760479615
20.014502242215606,-0.009070296047809866
20.021542165621238,0.002473314272340464
20.028582089026873,0.021118931437589035
20.035622012432505,0.0391247511318388
20.04266193583814,0.05283727505568114
20.049701859243772,0.06830532313853549
20.056741782649407,0.08964434066434625
20.06378170605504,0.1138604228828784
20.070821629460674,0.13214962193701607
20.077861552866306,0.12638144374475344
20.08490147627194,0.08738662182255591
20.091941399677573,0.0366236958747386
20.098981323083205,0.003787050260121154
20.106021246488837,-0.0034371933782921084
20.113061169894472,0.0044209458200401165
20.120101093300104,0.014154647928280438
20.12714101670574,0.01864641567714988
20.13418094011137,0.018950603848583922
20.141220863517006,0.018970914213864137
20.148260786922638,0.019966369216251133
20.155300710328273,0.020976395736366702
20.162340633733905,0.020987903173522175
20.16938055713954,0.020323073322828306
20.176420480545172,0.020524281666735564
20.183460403950807,0.02066344150428704
20.19050032735644,0.015897255441088578
20.197540250762074,0.005326436718618219
20.20458017416771,-0.0034493019596656405
20.211620097573338,-0.004904046013947464
20.218660020978973,-0.003221040198435212
20.225699944384605,-0.003937283406229187
20.23273986779024,-0.005757827922044625
20.239779791195872,-0.004156000051581768
20.246819714601507,0.0018971537687829292
20.25385963800714,0.008979813269924544
20.260899561412774,0.012679212667586735
20.267939484818406,0.010485543032449068
20.27497940822404,0.0016683573648147393
20.282019331629673,-0.01321232713487394
20.28905925503531,-0.03036775441587013
20.29609917844094,-0.04111702724879831
20.303139101846575,-0.03368759493955467
20.310179025252207,0.0015176378120056963
20.317218948657843,0.06357820969684172
20.32425887206347,0.1297628834601912
20.331298795469106,0.15875620797153892
20.338338718874738,0.12806418153624863
20.345378642280373,0.06197933169350217
20.352418565686005,0.0026563893476349056
20.35945848909164,-0.02993515959933381
20.366498412497272,-0.04011206145631675
20.373538335902907,-0.039037502763635795
20.38057825930854,-0.03603230277340405
20.387618182714174,-0.04016614786252125
20.394658106119806,-0.05720602625132422
20.40169802952544,-0.08011193029882728
20.408737952931073,-0.09005803441109053
20.41577787633671,-0.07379788973161755
20.42281779974234,-0.03514605828709219
20.429857723147975,0.013009132105755607
20.436897646553607,0.05758072181842523
20.44393756995924,0.086314577080839
20.45097749336487,0.09088689395224697
20.458017416770506,0.07283047908068764
20.465057340176138,0.04359896649477852
20.472097263581773,0.014570933786721182
20.479137186987405,-0.01063197420701727
20.48617711039304,-0.03167326594202753
20.493217033798672,-0.04580626024986038
20.500256957204307,-0.047683395908091536
20.50729688060994,-0.03389550814537241
20.514336804015574,-0.011328544065749558
20.521376727421206,0.006752016184323599
20.52841665082684,0.01599129509250308
20.535456574232473,0.022813990818085765
20.54249649763811,0.03577841530357678
20.54953642104374,0.06289804058377685
20.556576344449372,0.10418353917588616
20.563616267855004,0.13720515651226492
20.57065619126064,0.13443338488882597
20.577696114666274,0.09833002714268693
20.584736038071906,0.05204019853927741
20.59177596147754,0.011469118022574868
20.598815884883173,-0.016451381978512182
20.60585580828881,-0.030443946227221855
20.61289573169444,-0.03655768251512045
20.619935655100075,-0.041547494228170834
20.626975578505707,-0.04384198349728366
20.634015501911342,-0.03618271260522742
20.641055425316974,-0.014790595286103785
20.64809534872261,0.014518260068259667
20.65513527212824,0.03681484343051208
20.662175195533877,0.04373450255124629
20.66921511893951,0.04683839795605917
20.67625504234514,0.061925907210623625
20.683294965750772,0.08518254266750835
20.690334889156407,0.0945934999191721
20.69737481256204,0.0766660585800342
20.704414735967674,0.04412341921375764
20.711454659373306,0.01846095805266945
20.71849458277894,0.0064854659296859
20.725534506184573,0.0021870477673045998
20.73257442959021,0.00038967347397503077
20.73961435299584,0.0006898375805203271
20.746654276401475,0.002035495332827284
20.753694199807107,0.0013226460683523895
20.760734123212742,-0.0016151046454753277
20.767774046618374,-0.0028539765672399653
20.77481397002401,-4.827292423474844e-05
20.78185389342964,0.003963265784718411
20.788893816835273,0.005077983253363707
20.795933740240905,0.0016741280685012398
20.80297366364654,-0.006588773249170377
20.810013587052172,-0.018023890252440763
20.817053510457807,-0.027063495122500503
20.82409343386344,-0.027596626351105602
20.831133357269074,-0.017838483387593074
20.838173280674706,-0.0025091578557714725
20.84521320408034,0.009465508989879036
20.852253127485973,0.012710091410504555
20.85929305089161,0.00970026095387705
20.86633297429724,0.004076813246235018
20.873372897702875,-0.0053098696662736925
20.880412821108507,-0.01858188782136041
20.887452744514142,-0.028894230504255006
20.894492667919774,-0.028484846882796074
20.90153259132541,-0.01855647767748255
20.908572514731038,-0.009107541966218017
20.915612438136673,-0.01061648028978614
20.922652361542305,-0.028551444221115274
20.92969228494794,-0.059725619589550444
20.936732208353572,-0.08758655713755947
20.943772131759207,-0.08882479152672308
20.95081205516484,-0.057278781632275774
20.957851978570474,-0.01482131534836165
20.96489190197611,0.012667084438347562
20.97193182538174,0.019356412844083917
20.978971748787377,0.014273752648503371
20.98601167219301,0.005980278612565883
20.993051595598644,-0.0018223252626548502
21.000091519004275,-0.007369327577111481
21.00713144240991,-0.01037052265761396
21.014171365815542,-0.012894390219807445
21.021211289221174,-0.01794862246412725
21.028251212626806,-0.026442667441511858
21.03529113603244,-0.0348190340786991
21.042331059438073,-0.03752254112784283
21.04937098284371,-0.032002883802488294
21.05641090624934,-0.01979395206068606
21.063450829654975,-0.004847390702136718
21.070490753060607,0.007939158642527129
21.077530676466242,0.015265419058149585
21.084570599871874,0.016884354740353456
21.09161052327751,0.012639512025825455
21.09865044668314,0.0014627906372665536
21.105690370088777,-0.014587870847505739
21.11273029349441,-0.03050869148870059
21.119770216900044,-0.043558966515567975
21.126810140305675,-0.054397197713299254
21.13385006371131,-0.06381191514684403
21.14088998711694,-0.06955342415060584
21.147929910522574,-0.06611792823329403
21.154969833928206,-0.05123254411166216
21.16200975733384,-0.0309994637726484
21.169049680739473,-0.013870412703540412
21.17608960414511,-0.0034870691702836593
21.18312952755074,0.001837482352008746
21.190169450956375,0.006741384836010604
21.197209374362007,0.013845403288352596
21.204249297767642,0.019873753958567712
21.211289221173274,0.019466082765761727
21.21832914457891,0.011549977457690316
21.22536906798454,-0.00019208395769658047
21.232408991390177,-0.0104669088089741
21.23944891479581,-0.01551810376895621
21.246488838201444,-0.014913928533731058
21.253528761607072,-0.010716969752630576
21.260568685012707,-0.006791760932514077
