,0
0.0,-0.04875958083795241
0.007042303114810668,-0.0678899428765524
0.014084606229621335,-0.07236412249482177
0.021126909344432003,-0.060624190741402316
0.02816921245924267,-0.04231737844379133
0.03521151557405334,-0.02570265031470268
0.042253818688864006,-0.013661673144771631
0.049296121803674674,-0.00865887917967794
0.05633842491848534,-0.011572647882606629
0.063380728033296,-0.019183725353584865
0.07042303114810668,-0.0269018569511257
0.07746533426291735,-0.031069560223892432
0.08450763737772801,-0.03294788765607344
0.09154994049253867,-0.0401550254603214
0.09859224360734935,-0.055607049151233476
0.10563454672216002,-0.06899480188936201
0.11267684983697068,-0.06831593143471702
0.11971915295178134,-0.05388440341956159
0.126761456066592,-0.03494363172364569
0.1338037591814027,-0.019074498616927855
0.14084606229621335,-0.0078472333640781
0.14788836541102401,-0.0006180318807217974
0.1549306685258347,-0.0001121116759882179
0.16197297164064536,-0.008778673877680145
0.16901527475545602,-0.022415618718055298
0.17605757787026668,-0.03389288937462109
0.18309988098507735,-0.039890850723453386
0.19014218409988803,-0.0424367986055348
0.1971844872146987,-0.0450449452090883
0.20422679032950936,-0.04715481719990071
0.21126909344432004,-0.04550026273976586
0.2183113965591307,-0.040320828090994146
0.22535369967394137,-0.03633121636266997
0.23239600278875203,-0.03652411371351249
0.2394383059035627,-0.036315308164138735
0.24648060901837338,-0.02616911171743254
0.253522912133184,0.0007875640626058061
0.2605652152479947,0.041241268205816056
0.2676075183628054,0.0780612016253819
0.274649821477616,0.09232694825312496
0.2816921245924267,0.08205569957418833
0.2887344277072374,0.06154615888486265
0.29577673082204803,0.04312187783995574
0.3028190339368587,0.02640527407821872
0.3098613370516694,0.008109815708525198
0.31690364016648004,-0.007341283826768269
0.3239459432812907,-0.015062942948113823
0.33098824639610136,-0.01747350489163972
0.33803054951091205,-0.019223520055511794
0.34507285262572274,-0.021399244490233452
0.35211515574053337,-0.023220250826962774
0.35915745885534406,-0.02482917090309444
0.3661997619701547,-0.025267301271207993
0.3732420650849654,-0.021610429436130528
0.38028436819977607,-0.01303664319608797
0.3873266713145867,-0.0036957415417851673
0.3943689744293974,-4.52919447615093e-05
0.4014112775442081,-0.004367840481616545
0.4084535806590187,-0.011719455720031509
0.4154958837738294,-0.01447672300032242
0.4225381868886401,-0.008282277553821661
0.4295804900034507,0.004874898311921296
0.4366227931182614,0.014637128368197663
0.44366509623307204,0.009750121900772181
0.45070739934788273,-0.0041593358304424875
0.4577497024626934,-0.009074377410760998
0.46479200557750405,-0.001351387013373711
0.47183430869231474,0.007067171237798957
0.4788766118071254,0.008242776470354169
0.48591891492193606,0.0027290051172391733
0.49296121803674675,-0.004170055058391288
0.5000035211515574,-0.004188144255309984
0.507045824266368,0.007202649527310587
0.5140881273811787,0.02337009905792063
0.5211304304959894,0.0274626479310494
0.5281727336108001,0.003839488441236676
0.5352150367256108,-0.04066451063464444
0.5422573398404215,-0.07177526267978179
0.549299642955232,-0.06489703383001229
0.5563419460700427,-0.03468305580126605
0.5633842491848534,-0.010071413022448898
0.5704265522996641,-0.0007903689600086909
0.5774688554144748,0.0012303953734944947
0.5845111585292854,0.003737660192309723
0.5915534616440961,0.006225855687674522
0.5985957647589067,0.006926071906782158
0.6056380678737174,0.009734749080312566
0.6126803709885281,0.01782679018952052
0.6197226741033388,0.024607354565148884
0.6267649772181494,0.02073004604134077
0.6338072803329601,0.008669332928248537
0.6408495834477708,-0.0002150560827132112
0.6478918865625815,-0.0012772813024419427
0.6549341896773921,0.000427753956735768
0.6619764927922027,-0.0010007991168635415
0.6690187959070134,-0.007933208692349956
0.6760610990218241,-0.019163501435801745
0.6831034021366348,-0.029676107474177666
0.6901457052514455,-0.03433027257064056
0.697188008366256,-0.03187672569984951
0.7042303114810667,-0.02371924842632439
0.7112726145958774,-0.012197881514011582
0.7183149177106881,0.0005667938198050699
0.7253572208254988,0.013157464623789215
0.7323995239403094,0.022675015829934447
0.7394418270551201,0.024188446339939062
0.7464841301699308,0.014350591738626801
0.7535264332847414,-0.003242447729750297
0.7605687363995521,-0.01762958690310918
0.7676110395143628,-0.018182504034019685
0.7746533426291734,-0.00197982426169271
0.7816956457439841,0.025278516348796576
0.7887379488587948,0.051867444875465026
0.7957802519736055,0.0643050056967439
0.8028225550884162,0.05628822388394327
0.8098648582032267,0.03497767146388528
0.8169071613180374,0.012643642332409862
0.8239494644328481,-0.004949224614576877
0.8309917675476588,-0.017817653373188563
0.8380340706624695,-0.02561459782748298
0.8450763737772802,-0.026303311597697353
0.8521186768920908,-0.01895665520650077
0.8591609800069014,-0.008445426227269152
0.8662032831217121,-0.007254799187573994
0.8732455862365228,-0.026025762641422753
0.8802878893513335,-0.05793516818984507
0.8873301924661441,-0.0801331783984033
0.8943724955809548,-0.08061426409360797
0.9014147986957655,-0.07413200520665675
0.9084571018105762,-0.07852657154925874
0.9154994049253868,-0.08764625179506676
0.9225417080401974,-0.08175534254459499
0.9295840111550081,-0.05640886258256084
0.9366263142698188,-0.028046741956619083
0.9436686173846295,-0.013172051572080614
0.9507109204994402,-0.012313205987382272
0.9577532236142507,-0.01493087449735097
0.9647955267290614,-0.012760364914829663
0.9718378298438721,-0.005608452153510407
0.9788801329586828,0.003172584045122964
0.9859224360734935,0.012017861166920116
0.9929647391883042,0.020223633507279192
1.0000070423031149,0.027163998613662768
1.0070493454179255,0.03450785804520025
1.014091648532736,0.0428578656214556
1.0211339516475468,0.046526738176701374
1.0281762547623574,0.03896440690384716
1.0352185578771682,0.022324821034839563
1.0422608609919788,0.006078827050844701
1.0493031641067896,-0.003504200760149346
1.0563454672216002,-0.008883514074748789
1.0633877703364107,-0.01548838277881279
1.0704300734512215,-0.025764483579314882
1.0774723765660321,-0.042141668442069354
1.084514679680843,-0.06572202503612785
1.0915569827956535,-0.08647179202601124
1.098599285910464,-0.08942832823501677
1.1056415890252749,-0.07438226579225257
1.1126838921400855,-0.0543646304011778
1.1197261952548963,-0.03774689304710174
1.1267684983697068,-0.024244990044487907
1.1338108014845174,-0.012765061368086451
1.1408531045993282,-0.005012094937395882
1.1478954077141388,-0.003204442913687053
1.1549377108289496,-0.007285104297148402
1.1619800139437602,-0.015362147469049072
1.1690223170585707,-0.026107361846831222
1.1760646201733815,-0.038164587166713164
1.1831069232881921,-0.04688022351394761
1.190149226403003,-0.04488258743635087
1.1971915295178135,-0.028692988754304045
1.204233832632624,-0.004072460868386005
1.2112761357474349,0.01651916199315012
1.2183184388622454,0.021765839132154814
1.2253607419770562,0.010719958488358645
1.2324030450918668,-0.005280486712047578
1.2394453482066776,-0.014400742925228225
1.2464876513214882,-0.014163379107016424
1.2535299544362988,-0.008763478661390382
1.2605722575511096,-0.002656000089598278
1.2676145606659202,0.0037718863045875075
1.274656863780731,0.013245589606053324
1.2816991668955415,0.026166639821838797
1.288741470010352,0.03726164891687529
1.295783773125163,0.038163899908774286
1.3028260762399735,0.02470248185593518
1.3098683793547843,0.0006614704162761819
1.3169106824695949,-0.02319204150559433
1.3239529855844054,-0.03220019556667448
1.3309952886992162,-0.02025705591771305
1.3380375918140268,0.0016438410069071177
1.3450798949288376,0.0185280023148615
1.3521221980436482,0.025373198744634815
1.3591645011584588,0.024816083574439173
1.3662068042732696,0.020764302064338228
1.3732491073880801,0.016731654791823723
1.380291410502891,0.01651721900741975
1.3873337136177015,0.021652621835660524
1.394376016732512,0.02823661742737304
1.401418319847323,0.031602758411212475
1.4084606229621335,0.03176098526443585
1.4155029260769443,0.03070470168004286
1.4225452291917549,0.028572896506480157
1.4295875323065654,0.024338888651028835
1.4366298354213762,0.01882172619751072
1.4436721385361868,0.015340271781444668
1.4507144416509976,0.017106184573750897
1.4577567447658082,0.024582705341229392
1.4647990478806188,0.034908714805129686
1.4718413509954296,0.04491834524700711
1.4788836541102401,0.05226375579043634
1.485925957225051,0.05252099725863307
1.4929682603398615,0.041877385206365074
1.5000105634546723,0.02340044297281434
1.507052866569483,0.005442421407778396
1.5140951696842935,-0.005536462678962877
1.5211374727991043,-0.008330567508830487
1.5281797759139149,-0.005998458968216419
1.5352220790287257,-0.004033142380285737
1.5422643821435362,-0.005710131288211562
1.5493066852583468,-0.0070688355874866955
1.5563489883731576,-0.0016932626999920939
1.5633912914879682,0.009803395442338887
1.570433594602779,0.02071847708824799
1.5774758977175896,0.02609386454628847
1.5845182008324001,0.025617228460917706
1.591560503947211,0.021332419715187546
1.5986028070620215,0.01521045777580322
1.6056451101768323,0.009112327869179761
1.612687413291643,0.005544700737735336
1.6197297164064535,0.0062698480435827
1.6267720195212643,0.010839852946738266
1.6338143226360748,0.016667629871913413
1.6408566257508856,0.01922847359513455
1.6478989288656962,0.015779817818915493
1.6549412319805068,0.009980982191645334
1.6619835350953176,0.008702416572293493
1.6690258382101282,0.01426022232244546
1.676068141324939,0.0214535170807229
1.6831104444397496,0.02314115616796016
1.6901527475545604,0.01681806540376564
1.697195050669371,0.004414415609479196
1.7042373537841815,-0.009256714646181262
1.7112796568989923,-0.01941281719177112
1.7183219600138029,-0.026042174505343407
1.7253642631286137,-0.031004546089541674
1.7324065662434243,-0.03296959138815834
1.7394488693582348,-0.02899174796547057
1.7464911724730456,-0.017358145074197535
1.7535334755878562,0.0005541469981910283
1.760575778702667,0.019571107345967925
1.7676180818174776,0.0342830967991219
1.7746603849322882,0.042205834668034355
1.781702688047099,0.04010568753578192
1.7887449911619095,0.020984248925025782
1.7957872942767203,-0.021428078962169896
1.802829597391531,-0.08639320573573495
1.8098719005063415,-0.15671669821534887
1.8169142036211523,-0.19596230665432357
1.8239565067359629,-0.17871384061931428
1.8309988098507737,-0.12188587119216618
1.8380411129655843,-0.06408326472647782
1.8450834160803948,-0.027507573464929855
1.8521257191952056,-0.012454268830643846
1.8591680223100162,-0.009880055841592185
1.866210325424827,-0.010170697039599204
1.8732526285396376,-0.008825749929587496
1.8802949316544482,-0.007267907442685982
1.887337234769259,-0.004932111668447117
1.8943795378840695,0.006074251547955736
1.9014218409988803,0.031103651461524842
1.908464144113691,0.060143234818453205
1.9155064472285015,0.0751580303433586
1.9225487503433123,0.06885591659534082
1.9295910534581229,0.04801931343478677
1.9366333565729337,0.024762290564439526
1.9436756596877443,0.008922546435274608
1.950717962802555,0.0024422537742268156
1.9577602659173656,0.0005693628522489202
1.9648025690321762,-0.0012399812994975412
1.971844872146987,-0.003180569882082376
1.9788871752617976,-0.0004695362187380641
1.9859294783766084,0.012507885672832909
1.992971781491419,0.03432433810098603
2.0000140846062298,0.0556240681463426
2.00705638772104,0.06604792448348792
2.014098690835851,0.06045088128204581
2.0211409939506617,0.04161145683819954
2.028183297065472,0.018515094553451378
2.035225600180283,0.0018590328762150337
2.0422679032950937,-0.0014740984531127115
2.0493102064099045,0.006720058181529941
2.056352509524715,0.018421618099403805
2.0633948126395256,0.025729835177037304
2.0704371157543364,0.022958084436653522
2.0774794188691468,0.008412143834788163
2.0845217219839576,-0.01341907409691325
2.0915640250987684,-0.033843864243128005
2.098606328213579,-0.044722454095943165
2.1056486313283895,-0.041303943896108926
2.1126909344432003,-0.021474109049069018
2.119733237558011,0.012475845543133041
2.1267755406728215,0.049529080660037424
2.1338178437876323,0.07419542437206342
2.140860146902443,0.07771065858276657
2.1479024500172534,0.06321140178627432
2.1549447531320642,0.04168965114760198
2.161987056246875,0.023188516923847192
2.169029359361686,0.011167781479050325
2.176071662476496,0.005182845008164822
2.183113965591307,0.003839176963772541
2.190156268706118,0.003508187788267354
2.197198571820928,-0.00037815239879072406
2.204240874935739,-0.008276405211684403
2.2112831780505497,-0.014998409694907334
2.21832548116536,-0.01623144597515729
2.225367784280171,-0.013748550601965418
2.2324100873949817,-0.010706531457917518
2.2394523905097925,-0.0057737103132306155
2.246494693624603,0.003476675075546748
2.2535369967394137,0.011771669985676029
2.2605792998542245,0.008160904778795653
2.267621602969035,-0.009075696534564257
2.2746639060838456,-0.027540784501925805
2.2817062091986564,-0.03387764133874272
2.288748512313467,-0.025090355520974553
2.2957908154282776,-0.007677491777204167
2.3028331185430884,0.008044174516349678
2.309875421657899,0.013369270217456104
2.3169177247727095,0.005740204943146187
2.3239600278875203,-0.00869696483226349
2.331002331002331,-0.018441711717622537
2.3380446341171415,-0.01719540615617075
2.3450869372319523,-0.011487427497695499
2.352129240346763,-0.01461023645385564
2.359171543461574,-0.03043291402077238
2.3662138465763842,-0.04659804748743294
2.373256149691195,-0.04905603277473248
2.380298452806006,-0.03728801328423147
2.387340755920816,-0.020883171185409593
2.394383059035627,-0.009986048681758763
2.401425362150438,-0.010682138136530166
2.408467665265248,-0.02110585823519376
2.415509968380059,-0.03185790039139433
2.4225522714948697,-0.034550583064960005
2.4295945746096805,-0.02759402832847072
2.436636877724491,-0.013744377422668569
2.4436791808393017,0.0018111800048580954
2.4507214839541125,0.010730841715385457
2.457763787068923,0.0060151098942389895
2.4648060901837336,-0.010291655825326353
2.4718483932985444,-0.027864199548913858
2.4788906964133552,-0.036797641650934125
2.4859329995281656,-0.033311723722050185
2.4929753026429764,-0.020387976780375815
2.500017605757787,-0.007112098665966509
2.5070599088725976,-0.002893637816972156
2.5141022119874084,-0.006238472706499948
2.521144515102219,-0.004373402720762169
2.5281868182170295,0.011621230342043291
2.5352291213318403,0.03680085923073193
2.542271424446651,0.056571495598532875
2.549313727561462,0.05783514404892442
2.5563560306762723,0.04160784013155221
2.563398333791083,0.021988653892910156
2.570440636905894,0.008173467486247891
2.577482940020704,-0.0010117861697902723
2.584525243135515,-0.003817887063643328
2.591567546250326,0.005982274261989462
2.598609849365136,0.02777941159770152
2.605652152479947,0.05585874572740891
2.6126944555947578,0.08886553735416003
2.6197367587095686,0.1225359391353171
2.626779061824379,0.1391566732068373
2.6338213649391897,0.12383860025633178
2.6408636680540005,0.08519488317437748
2.647905971168811,0.04585933842047114
2.6549482742836217,0.020206150853459087
2.6619905773984325,0.009054190476502568
2.669032880513243,0.008309321705759968
2.6760751836280536,0.012438849600172535
2.6831174867428644,0.01516127897380717
2.6901597898576752,0.013808531721241591
2.6972020929724856,0.009797515296679953
2.7042443960872964,0.005019980959006732
2.711286699202107,-0.0035391337508405454
2.7183290023169175,-0.02759771079067834
2.7253713054317283,-0.08243283214164292
2.732413608546539,-0.1688498653961382
2.73945591166135,-0.2519709961494886
2.7464982147761603,-0.27583837296547714
2.753540517890971,-0.22223008544252593
2.760582821005782,-0.13324479741042272
2.7676251241205923,-0.05965680709782166
2.774667427235403,-0.017833477481653724
2.781709730350214,0.0008846062305578179
2.788752033465024,0.011041719926275173
2.795794336579835,0.02242512837919986
2.802836639694646,0.031856021586718485
2.8098789428094566,0.029232703793654405
2.816921245924267,0.01404694143825549
2.8239635490390778,-0.002482486047073922
2.8310058521538886,-0.009210979311768444
2.838048155268699,-0.002354905070532506
2.8450904583835097,0.0133046047618805
2.8521327614983205,0.026460756306986945
2.859175064613131,0.028390376230088395
2.8662173677279417,0.021257128272712353
2.8732596708427525,0.012140449672395106
2.8803019739575633,0.0024845119747543996
2.8873442770723736,-0.009150074391752909
2.8943865801871844,-0.019429634881689778
2.901428883301995,-0.02244723540450884
2.9084711864168056,-0.016695099929630804
2.9155134895316164,-0.006054462282634222
2.922555792646427,0.004824595804874079
2.9295980957612375,0.01133623324754907
2.9366403988760483,0.008045945863922568
2.943682701990859,-0.004638380991309339
2.95072500510567,-0.016731960327418794
2.9577673082204803,-0.01806324411968657
2.964809611335291,-0.007959073339304682
2.971851914450102,0.006028618171718844
2.9788942175649122,0.016596125917383357
2.985936520679723,0.02347850266948257
2.992978823794534,0.03197381607491326
3.0000211269093446,0.046448061650184364
3.007063430024155,0.06576978679808226
3.014105733138966,0.08200249736208028
3.0211480362537766,0.08355751417465114
3.028190339368587,0.0641187690386744
3.0352326424833977,0.031596578837823325
3.0422749455982085,0.004045865700343694
3.049317248713019,-0.006543640246208093
3.0563595518278297,-0.0026965852649601446
3.0634018549426405,0.004099842980402829
3.0704441580574513,0.00430050917187041
3.0774864611722617,-0.0024922577738583397
3.0845287642870725,-0.011353650652607126
3.0915710674018833,-0.019439982604030653
3.0986133705166936,-0.026088824158866104
3.1056556736315044,-0.029923712791033563
3.112697976746315,-0.029498080225953096
3.1197402798611256,-0.02473644081821139
3.1267825829759364,-0.01664785197300202
3.133824886090747,-0.00856621765248065
3.140867189205558,-0.0062085112433996606
3.1479094923203683,-0.011997718921125772
3.154951795435179,-0.022575693699000456
3.16199409854999,-0.033862385373591965
3.1690364016648003,-0.0431257171734548
3.176078704779611,-0.046865602400937276
3.183121007894422,-0.041707789186015004
3.1901633110092327,-0.026779476707896054
3.197205614124043,-0.003635373706543873
3.204247917238854,0.023914810226095505
3.2112902203536646,0.04910600264326127
3.218332523468475,0.06556170692326153
3.225374826583286,0.07348802996138595
3.2324171296980966,0.07914647397051505
3.239459432812907,0.08411289143303737
3.2465017359277177,0.07944595160217305
3.2535440390425285,0.05781738292118841
3.2605863421573393,0.023333755632053275
3.2676286452721497,-0.01657258459682929
3.2746709483869605,-0.05672440240939397
3.2817132515017713,-0.08670459485213736
3.2887555546165816,-0.08972980351622482
3.2957978577313924,-0.060002746902069984
3.3028401608462032,-0.014680662014311022
3.3098824639610136,0.020684947619191364
3.3169247670758244,0.03300700572730449
3.323967070190635,0.028492321460213833
3.331009373305446,0.025194198933454957
3.3380516764202564,0.03495539514771266
3.345093979535067,0.05038390474451041
3.352136282649878,0.05379193204012398
3.3591785857646883,0.03745376812892201
3.366220888879499,0.007797412800866262
3.37326319199431,-0.028663662281380044
3.3803054951091207,-0.07151051536432296
3.387347798223931,-0.11165707086847693
3.394390101338742,-0.12482639068490413
3.4014324044535527,-0.10077900170481195
3.408474707568363,-0.06283554566851025
3.415517010683174,-0.03676679331858325
3.4225593137979846,-0.022872181464186243
3.429601616912795,-0.009052767921167241
3.4366439200276058,0.01129431176338555
3.4436862231424166,0.03739665884386723
3.4507285262572274,0.06195485754196566
3.4577708293720377,0.07167163571812442
3.4648131324868485,0.05784560555261087
3.4718554356016593,0.027631038222921303
3.4788977387164697,-0.0026072023478969624
3.4859400418312805,-0.01972442491020076
3.4929823449460913,-0.015938524450664182
3.5000246480609016,0.010062602228600438
3.5070669511757124,0.048124092153348674
3.5141092542905232,0.07792876245044401
3.521151557405334,0.08207191262410873
3.5281938605201444,0.06103629956222552
3.535236163634955,0.0321948706196921
3.542278466749766,0.01329127556145843
3.5493207698645763,0.009469907765941324
3.556363072979387,0.012408765890662959
3.563405376094198,0.010029411870262442
3.5704476792090083,0.0006582608012424955
3.577489982323819,-0.004699342964417207
3.58453228543863,0.0038077247035347645
3.5915745885534407,0.023211514899133097
3.598616891668251,0.03973299215048102
3.605659194783062,0.03848895436611604
3.6127014978978726,0.014684612366995264
3.619743801012683,-0.021025969724330656
3.626786104127494,-0.048696407824168494
3.6338284072423046,-0.05173764578126875
3.6408707103571154,-0.030082452387542022
3.6479130134719258,-0.001237418882417623
3.6549553165867366,0.01613855821841679
3.6619976197015474,0.016744898958095233
3.6690399228163577,0.00873282725064324
3.6760822259311685,0.003927817072048897
3.6831245290459793,0.0075445136915029045
3.6901668321607897,0.01496423477491941
3.6972091352756005,0.01580916225649506
3.7042514383904113,0.0038235610641032505
3.711293741505222,-0.01590060073598161
3.7183360446200324,-0.03263514506363173
3.725378347734843,-0.04025703556993079
3.732420650849654,-0.038886165844473686
3.7394629539644644,-0.0316222564669556
3.746505257079275,-0.02386546070432533
3.753547560194086,-0.020955505780273994
3.7605898633088963,-0.022882760979930854
3.767632166423707,-0.02544700881041489
3.774674469538518,-0.02481320961610846
3.7817167726533287,-0.017771289523104895
3.788759075768139,-0.004741700221551348
3.79580137888295,0.007061078320447353
3.8028436819977607,0.011533869413797224
3.809885985112571,0.011420363865271652
3.816928288227382,0.01107001811326949
3.8239705913421926,0.00833092606562773
3.831012894457003,0.0012101428217424276
3.838055197571814,-0.005693065430672033
3.8450975006866246,-0.006834024122211009
3.8521398038014354,0.00026360907763987195
3.8591821069162457,0.018439090639750466
3.8662244100310565,0.05119280024751398
3.8732667131458673,0.09229309830490269
3.8803090162606777,0.11890749599697635
3.8873513193754885,0.11112938354169485
3.8943936224902993,0.07481556463083293
3.90143592560511,0.03234117155755557
3.9084782287199205,0.0005077299414395341
3.9155205318347313,-0.01691510019607606
3.922562834949542,-0.024726268184027206
3.9296051380643524,-0.02814263413229196
3.936647441179163,-0.028151705318118114
3.943689744293974,-0.02451162432288212
3.9507320474087844,-0.018913909469139976
3.957774350523595,-0.013656508498441612
3.964816653638406,-0.012156986437143002
3.9718589567532168,-0.0198222566175087
3.978901259868027,-0.04008356075718925
3.985943562982838,-0.06909156233302663
3.9929858660976487,-0.09334193449807342
4.0000281692124595,-0.09717205082313893
4.00707047232727,-0.07712727240941403
4.01411277544208,-0.044362168760649225
4.021155078556891,-0.014714986257033586
4.028197381671702,0.0002767963939062008
4.035239684786513,-0.00020621375107034005
4.042281987901323,-0.006744667679453897
4.049324291016134,-0.010134146686222117
4.056366594130944,-0.009260636483137014
4.063408897245755,-0.007570646893383348
4.070451200360566,-0.005416346632853479
4.0774935034753765,-0.0018067712337147509
4.084535806590187,-0.0018169844793096048
4.091578109704998,-0.010047159802338923
4.098620412819809,-0.020728214679207123
4.105662715934619,-0.025188254392713435
4.11270501904943,-0.019835048781887382
4.11974732216424,-0.004396913596651053
4.126789625279051,0.01621144242283561
4.133831928393862,0.03070314561060372
4.140874231508673,0.030352864710342518
4.147916534623484,0.017848916105643823
4.1549588377382936,0.004816514286510466
4.162001140853104,0.0018617515307702095
4.169043443967915,0.009885833912817645
4.176085747082726,0.01915383461921141
4.183128050197537,0.01952576116026883
4.1901703533123476,0.0114545364529965
4.197212656427158,0.002996158131881502
4.204254959541968,-0.001073552829223855
4.211297262656779,-0.002835825172576745
4.21833956577159,-0.006597278695174945
4.225381868886401,-0.013464231976181068
4.2324241720012115,-0.02024077226196073
4.239466475116022,-0.023261458980667882
4.246508778230832,-0.021595767221790123
4.253551081345643,-0.015206549018271117
4.260593384460454,-0.0028621947317412164
4.267635687575265,0.014919130985798694
4.274677990690075,0.03247039503157149
4.281720293804886,0.04133272748201552
4.288762596919697,0.03657818004653806
4.295804900034507,0.021904101237383934
4.302847203149318,0.0067574994441993675
4.3098895062641285,-0.002946590857973769
4.316931809378939,-0.007487038124594972
4.32397411249375,-0.008400316229889718
4.331016415608561,-0.00615828185468734
4.338058718723372,-0.0027813806085741147
4.345101021838182,-0.003792091771316087
4.352143324952992,-0.015406800157016395
4.359185628067803,-0.039326748102657676
4.366227931182614,-0.06860691316587952
4.373270234297425,-0.08850354676291684
4.380312537412236,-0.08773047927952285
4.387354840527046,-0.06918896530253929
4.394397143641856,-0.04399485106255098
4.401439446756667,-0.02015869669877731
4.408481749871478,-0.0007438339687093156
4.415524052986289,0.011753067907789336
4.4225663561010995,0.013504696229745114
4.42960865921591,0.005405570901879816
4.43665096233072,-0.004703417551865008
4.443693265445531,-0.011277509831170518
4.450735568560342,-0.014943745491351034
4.457777871675153,-0.017201722776000652
4.464820174789963,-0.01886590788213902
4.471862477904774,-0.019665082820243925
4.478904781019585,-0.016007512546586885
4.485947084134395,-0.005081134749652057
4.492989387249206,0.00939096195456533
4.5000316903640165,0.02107642295819369
4.507073993478827,0.028879920877421795
4.514116296593638,0.03633167881275173
4.521158599708449,0.043132448105318785
4.52820090282326,0.04177044404272307
4.53524320593807,0.028081395383255835
4.54228550905288,0.011589587987539184
4.549327812167691,0.006193236988708499
4.556370115282502,0.013015294517945265
4.563412418397313,0.020825509254126035
4.570454721512124,0.02227598289922847
4.577497024626934,0.02242431121303446
4.584539327741744,0.02977634916395026
4.591581630856555,0.04383201445492291
4.598623933971366,0.05455213710792388
4.605666237086177,0.05369872369372681
4.6127085402009875,0.043557093521461754
4.619750843315798,0.03359137321814775
4.626793146430608,0.030062240229486364
4.633835449545419,0.029547863761571022
4.64087775266023,0.02527384681874254
4.647920055775041,0.015808519756027234
4.654962358889851,0.003316792772919388
4.662004662004662,-0.009313476336829414
4.669046965119473,-0.017908721611790947
4.676089268234283,-0.01868904488721966
4.683131571349094,-0.011526665967393565
4.6901738744639045,-0.0019740140532346876
4.697216177578715,0.0031327646326131655
4.704258480693526,0.00491737230761737
4.711300783808337,0.012056691493002277
4.718343086923148,0.028392469720685397
4.725385390037958,0.04467834511069435
4.7324276931527685,0.04601480539749083
4.739469996267579,0.02942520986986158
4.74651229938239,0.008442237080614678
4.753554602497201,-0.004293227193892327
4.760596905612012,-0.009616673894014136
4.7676392087268225,-0.014304532306461176
4.774681511841632,-0.019974927410804855
4.781723814956443,-0.022638679405726118
4.788766118071254,-0.020374061677991176
4.795808421186065,-0.016208825776464396
4.802850724300876,-0.012329461463234805
4.809893027415686,-0.007660892364432695
4.816935330530496,-0.0016798117080826923
4.823977633645307,0.005128924266583645
4.831019936760118,0.014072634875527333
4.838062239874929,0.027488396008518167
4.8451045429897395,0.04249544564854675
4.85214684610455,0.04816853338866976
4.859189149219361,0.03790341542339398
4.866231452334171,0.020619151686751585
4.873273755448982,0.010973757302977527
4.880316058563793,0.014724150572790268
4.887358361678603,0.025011533205424163
4.894400664793414,0.029313866899202182
4.901442967908225,0.02340395254900079
4.908485271023036,0.015424536270178212
4.915527574137846,0.01409738447583385
4.9225698772526565,0.021581674050938124
4.929612180367467,0.037064947851778
4.936654483482278,0.05508855474568655
4.943696786597089,0.06292125817002157
4.9507390897119,0.0525300521548032
4.9577813928267105,0.030072667217287404
4.96482369594152,0.006487017807512332
4.971865999056331,-0.012062915552194638
4.978908302171142,-0.024165327352700883
4.985950605285953,-0.030860356148450615
4.992992908400764,-0.03224355689580041
5.000035211515574,-0.027746842591141768
5.007077514630384,-0.020771760249330907
5.014119817745195,-0.01687420385524588
5.021162120860006,-0.016520342593755018
5.028204423974817,-0.01535353790642914
5.0352467270896275,-0.01092184462015983
5.042289030204438,-0.004528332648722199
5.049331333319249,0.0008583529230646396
5.056373636434059,0.0007318647443571998
5.06341593954887,-0.00843259344977104
5.070458242663681,-0.025402537065453243
5.077500545778491,-0.04614164325671928
5.084542848893302,-0.06362853381204897
5.091585152008113,-0.0656947919175011
5.098627455122924,-0.045781495503844874
5.105669758237734,-0.013947906381898786
5.1127120613525445,0.01165997608381214
5.119754364467355,0.019123183710302864
5.126796667582166,0.006633986765331672
5.133838970696977,-0.02008665453358335
5.140881273811788,-0.047151837861591245
5.147923576926598,-0.0531680479200371
5.154965880041408,-0.027434970259076374
5.162008183156219,0.01371931742992463
5.16905048627103,0.04450665602515991
5.176092789385841,0.055074366304691466
5.183135092500652,0.050730843315654715
5.190177395615462,0.03914714755671142
5.197219698730272,0.024341855898020764
5.204262001845083,0.0073810303112280505
5.211304304959894,-0.010423604154165432
5.218346608074705,-0.02623743397447987
5.2253889111895155,-0.03722295625553019
5.232431214304326,-0.041708976690948044
5.239473517419137,-0.04010191582208445
5.246515820533947,-0.034819181796292474
5.253558123648758,-0.027517885709597206
5.260600426763569,-0.018444712736430953
5.2676427298783794,-0.007778085276989319
5.27468503299319,0.006997689400822705
5.281727336108001,0.03117779463179297
5.288769639222812,0.06576871604199502
5.295811942337622,0.10390743547344104
5.302854245452433,0.13048595965685325
5.309896548567243,0.12675650376977668
5.316938851682054,0.09092716273088222
5.323981154796865,0.04653630784349052
5.331023457911676,0.017113924955292854
5.338065761026486,0.005592515533210109
5.3451080641412965,0.0023233589961210075
5.352150367256107,0.0006924112009891492
5.359192670370918,0.0010347977917994444
5.366234973485729,0.0045927557917975455
5.37327727660054,0.009172465904529107
5.3803195797153505,0.010646608382417714
5.38736188283016,0.0068922252179676145
5.394404185944971,-0.0006444344307412812
5.401446489059782,-0.008850261974213111
5.408488792174593,-0.015276986932149263
5.415531095289404,-0.020022537332004736
5.422573398404214,-0.025334385452250228
5.429615701519025,-0.03181556285644703
5.436658004633835,-0.03560677361505791
5.443700307748646,-0.031351112697251306
5.450742610863457,-0.018634572598982768
5.4577849139782675,-0.0034172730842182177
5.464827217093078,0.007316230171674126
5.471869520207889,0.010129086568413985
5.4789118233227,0.005932300720722127
5.48595412643751,0.00020633973533047212
5.492996429552321,0.0006327896354666381
5.500038732667131,0.011251521666845465
5.507081035781942,0.02735637221201059
5.514123338896753,0.035094362340969985
5.521165642011564,0.022556414412725923
5.528207945126374,-0.007723022246327392
5.5352502482411845,-0.04398656432628671
5.542292551355995,-0.07688042227848967
5.549334854470806,-0.09930713840678063
5.556377157585617,-0.10198240013073624
5.563419460700428,-0.0798223300660388
5.5704617638152385,-0.041538894752684595
5.577504066930048,-0.004369742208707195
5.584546370044859,0.018091559108803213
5.59158867315967,0.021683663743854577
5.598630976274481,0.012103588903508163
5.605673279389292,-0.0007673608292498701
5.612715582504102,-0.011609836125029825
5.619757885618913,-0.02153390613028764
5.626800188733723,-0.03086531380565384
5.633842491848534,-0.03527287657717823
5.640884794963345,-0.03239961665931425
5.6479270980781555,-0.025705854024005263
5.654969401192966,-0.019609161402424625
5.662011704307777,-0.016362868195791816
5.669054007422588,-0.01639418622788815
5.676096310537398,-0.01792669089803124
5.683138613652209,-0.016987599830559866
5.690180916767019,-0.009719054690904087
5.69722321988183,0.003916422003173077
5.704265522996641,0.01871589094576648
5.711307826111452,0.026633371102250385
5.718350129226262,0.02218138493902471
5.7253924323410725,0.00807030062272178
5.732434735455883,-0.005957405296001634
5.739477038570694,-0.011532524098793647
5.746519341685505,-0.006989690670750092
5.753561644800316,0.0045647626373289335
5.7606039479151265,0.01813750885862012
5.767646251029936,0.026511047572058
5.774688554144747,0.022001274325442556
5.781730857259558,0.006012138261522657
5.788773160374369,-0.007049663858753331
5.79581546348918,-0.004117824391681683
5.80285776660399,0.012497243059662046
5.809900069718801,0.029635460093383765
5.816942372833611,0.03711727652710572
5.823984675948422,0.03507452988934784
5.831026979063233,0.03083171919914019
5.8380692821780436,0.03199274643249851
5.845111585292854,0.04037134674001726
5.852153888407665,0.05028185497520488
5.859196191522475,0.05638696667949931
5.866238494637286,0.05884815198289566
5.873280797752097,0.056044046990143495
5.8803231008669075,0.04438384469746173
5.887365403981718,0.02790760742760512
5.894407707096529,0.01582735002011982
5.90145001021134,0.012865282928759714
5.90849231332615,0.017579196047812207
5.915534616440961,0.02359724647895869
5.922576919555771,0.020501417043966432
5.929619222670582,0.0003290826364701566
5.936661525785393,-0.030794835882829243
5.943703828900204,-0.05172079592333034
5.950746132015015,-0.048667502526672464
5.9577884351298245,-0.03208859280302041
5.964830738244635,-0.021056999352246898
5.971873041359446,-0.024367332995558162
5.978915344474257,-0.03851479798409501
5.985957647589068,-0.05192919402899448
5.9929999507038785,-0.05583080736287389
6.000042253818689,-0.051522422611019886
6.007084556933499,-0.04408306945876861
6.01412686004831,-0.03535852820510128
6.021169163163121,-0.022240940231448885
6.028211466277932,8.715689675898794e-05
6.035253769392742,0.031061744697179434
6.042296072507553,0.061102352220756766
6.049338375622363,0.07496863536950986
6.056380678737174,0.062084057051230476
6.063422981851985,0.02452013303526506
6.0704652849667955,-0.028004192578333226
6.077507588081606,-0.08623222934414802
6.084549891196417,-0.13761654307227889
6.091592194311228,-0.16222089643198448
6.098634497426038,-0.14794681063503617
6.105676800540849,-0.10426557870532956
6.112719103655659,-0.05311891329818776
6.11976140677047,-0.01507403754315767
6.126803709885281,0.0002683761232770176
6.133846013000092,-0.0017738708557051685
6.140888316114903,-0.009120784222437107
6.1479306192297125,-0.013463037023954379
6.154972922344523,-0.012887921742926429
6.162015225459334,-0.008595031721987322
6.169057528574145,-0.002070476466006577
6.176099831688956,0.003507642691163018
6.1831421348037665,0.0033383349452403045
6.190184437918577,-0.003396820618098454
6.197226741033387,-0.011286545797483295
6.204269044148198,-0.013976796441088372
6.211311347263009,-0.009220865476196032
6.21835365037782,0.00126243059243546
6.22539595349263,0.013787936660311
6.232438256607441,0.022824138471351868
6.239480559722251,0.021525616501128043
6.246522862837062,0.004451498731108618
6.253565165951873,-0.02734820548010137
6.2606074690666835,-0.05989318555120812
6.267649772181494,-0.07081537223330049
6.274692075296305,-0.05150324260981601
6.281734378411116,-0.018957266117320636
6.288776681525926,0.004161176510116212
6.295818984640737,0.010545958658428977
6.302861287755547,0.0052122708923663195
6.309903590870358,-0.003982472418401705
6.316945893985169,-0.00930797662857059
6.32398819709998,-0.003308524295051841
6.331030500214791,0.018720513112692117
6.3380728033296005,0.05106661440827605
6.345115106444411,0.07696692429071739
6.352157409559222,0.08424336529942213
6.359199712674033,0.07535294337056153
6.366242015788844,0.05858596298967578
6.3732843189036545,0.040556249209066156
6.380326622018465,0.026735150494578343
6.387368925133275,0.020050319349459507
6.394411228248086,0.019568006541612754
6.401453531362897,0.020741303602154374
6.408495834477708,0.015974782709734715
6.4155381375925185,9.714744714349292e-06
6.422580440707329,-0.023607181942723897
6.429622743822139,-0.043898305829973366
6.43666504693695,-0.05082749561742508
6.443707350051761,-0.043240593421474
6.450749653166572,-0.028664002320647617
6.457791956281382,-0.015100455400047261
6.464834259396193,-0.004826860749804697
6.471876562511004,0.0036655061405515372
6.478918865625814,0.010580896209509326
6.485961168740625,0.01356318919500078
6.4930034718554355,0.010513392761185732
6.500045774970246,0.0027981374010200115
6.507088078085057,-0.005434956510030033
6.514130381199868,-0.012227612066818412
6.521172684314679,-0.020032199182069724
6.528214987429489,-0.0303088729763785
6.535257290544299,-0.037563915461983066
6.54229959365911,-0.034782408968510654
6.549341896773921,-0.023268310200567095
6.556384199888732,-0.009953220156768285
6.563426503003543,0.0013761641248851483
6.570468806118353,0.011383300513159328
6.577511109233163,0.020653965481600076
6.584553412347974,0.026526423257758867
6.591595715462785,0.02618414824425047
6.598638018577596,0.0219913015258665
6.6056803216924065,0.01981278694471528
6.612722624807217,0.021342272941388112
6.619764927922027,0.02217877050483788
6.626807231036838,0.018591975892832468
6.633849534151649,0.010860023373929379
6.64089183726646,-0.00045813487856888064
6.64793414038127,-0.013840593542327893
6.654976443496081,-0.02211959774079748
6.662018746610892,-0.017450515331850294
6.669061049725702,-0.0013375454289549253
6.676103352840513,0.0157438624734543
6.6831456559553235,0.022901597884720383
6.690187959070134,0.016691823046348173
6.697230262184945,0.0041093327171745
6.704272565299756,-0.003751415111709605
6.711314868414567,-0.0035245542181506673
6.718357171529377,-0.0011379145191245466
6.725399474644187,-0.0013576436649810932
6.732441777758998,-0.004437393321017155
6.739484080873809,-0.01032616833955947
6.74652638398862,-0.01664594132195764
6.753568687103431,-0.0168871505898491
6.760610990218241,-0.006183489976065595
6.767653293333051,0.012379638766232628
6.774695596447862,0.028791098190314193
6.781737899562673,0.03273945056702931
6.788780202677484,0.01885050216918808
6.7958225057922945,-0.007700385399392807
6.802864808907105,-0.031103356737337978
6.809907112021915,-0.038439277352660894
6.816949415136726,-0.029833533443607067
6.823991718251537,-0.014221371551231564
6.831034021366348,-0.001213477473392564
6.838076324481158,0.0039002115456963967
6.845118627595969,0.000786008911049558
6.85216093071078,-0.00801245750988995
6.85920323382559,-0.01843622634393112
6.866245536940401,-0.025870434289457383
6.8732878400552115,-0.02675090282367502
6.880330143170022,-0.019570219813364077
6.887372446284833,-0.005721186650197492
6.894414749399644,0.010986696128556878
6.901457052514455,0.028954943464859946
6.908499355629265,0.049299924111593
6.9155416587440754,0.06883220365224772
6.922583961858886,0.0794557569620018
6.929626264973697,0.0750773285584283
6.936668568088508,0.05738001805454595
6.943710871203319,0.03678504569303934
6.950753174318129,0.023715671874534605
6.957795477432939,0.019493066806525263
6.96483778054775,0.019043629327725527
6.971880083662561,0.017869947309551448
6.978922386777372,0.014545347650088775
6.9859646898921826,0.009961683412150752
6.993006993006993,0.004906356831249626
7.000049296121803,-0.0014153889030989067
7.007091599236614,-0.00871019701147183
7.014133902351425,-0.014254109479139028
7.021176205466236,-0.015708598638887922
7.0282185085810465,-0.01062995754846977
7.035260811695857,0.002684157987893103
7.042303114810668,0.01748780683158474
7.049345417925478,0.021439759496846397
7.056387721040289,0.009728411670510174
7.0634300241551,-0.01300382573187844
7.07047232726991,-0.036098853056527144
7.077514630384721,-0.04407007743428003
7.084556933499532,-0.025970731262587796
7.091599236614343,0.010502866154509915
7.098641539729153,0.040510980130232514
7.1056838428439635,0.046716035231779064
7.112726145958774,0.03484363528486712
7.119768449073585,0.018564529723261725
7.126810752188396,0.0051328906272091355
7.133853055303207,-0.0024921733533964092
7.140895358418017,-0.004389561139709493
7.147937661532827,-0.004053795274176682
7.154979964647638,-0.005946816700775484
7.162022267762449,-0.012549312828486868
7.16906457087726,-0.020601282905264147
7.176106873992071,-0.023161021337460633
7.183149177106881,-0.0179153808233206
7.190191480221691,-0.008709962613866362
7.197233783336502,-0.0012614588843571687
7.204276086451313,-0.0016109365846784837
7.211318389566124,-0.01376111907422271
7.2183606926809345,-0.035771772888529896
7.225402995795745,-0.05916479282282332
7.232445298910556,-0.07220731179684484
7.239487602025366,-0.06739540405203806
7.246529905140177,-0.047827614165800614
7.253572208254988,-0.023714113907576582
7.260614511369798,-0.004142993116348263
7.267656814484609,0.0062146826998432225
7.27469911759942,0.00682198613452779
7.281741420714231,0.00022185001652485809
7.288783723829041,-0.010079959074769053
7.2958260269438515,-0.020945565356037765
7.302868330058662,-0.02929818561920805
7.309910633173473,-0.03235166133615699
7.316952936288284,-0.029598919791327165
7.323995239403095,-0.02366386624204911
7.331037542517905,-0.018039738601856932
7.338079845632715,-0.013566597188717864
7.345122148747526,-0.007432265059716739
7.352164451862337,0.002639768385256519
7.359206754977148,0.014829909473796369
7.366249058091959,0.024590484905170244
7.373291361206769,0.027410605140405712
7.380333664321579,0.02219035328824249
7.38737596743639,0.011902276020750035
7.394418270551201,0.00025306026675794326
7.401460573666012,-0.009339053516449383
7.4085028767808225,-0.014912279055997497
7.415545179895633,-0.018003560015262
7.422587483010444,-0.020163106054301726
7.429629786125254,-0.02010551157225421
7.436672089240065,-0.016310947139485388
7.443714392354876,-0.008641945979028263
7.450756695469686,0.002383088292119435
7.457798998584497,0.015659252267501613
7.464841301699308,0.0283181440254852
7.471883604814119,0.03524968261852952
7.478925907928929,0.03182221641901549
7.4859682110437396,0.01807837736240939
7.49301051415855,-0.0006517675223583646
7.500052817273361,-0.018077264749993743
7.507095120388172,-0.03062396611238539
7.514137423502983,-0.03662362523442828
7.521179726617793,-0.03468107957003429
7.5282220297326035,-0.02469803384097896
7.535264332847414,-0.009902089989266387
7.542306635962225,0.004538437969077326
7.549348939077036,0.01612000800355224
7.556391242191847,0.026314375803447577
7.5634335453066575,0.03456504883518152
7.570475848421467,0.0341732956326657
7.577518151536278,0.02160263211312495
7.584560454651089,0.005418789045634806
7.5916027577659,-0.0021094056853535035
7.598645060880711,0.0012358130440282514
7.605687363995521,0.005453413477368299
7.612729667110332,-0.0010473180171080127
7.619771970225142,-0.01958901463601958
7.626814273339953,-0.0385757073255793
7.633856576454764,-0.04136384468716968
7.6408988795695745,-0.022729802440099867
7.647941182684385,0.006215625952317901
7.654983485799196,0.033993173379700085
7.662025788914006,0.05382889742359831
7.669068092028817,0.056190877084406614
7.676110395143628,0.03833782462255974
7.683152698258438,0.01388391882322397
7.690195001373249,-0.001779309361837005
7.69723730448806,-0.0077057251171778985
7.704279607602871,-0.012685767034843112
7.711321910717681,-0.019482685582336682
7.7183642138324915,-0.01731706984297419
7.725406516947302,0.011887068079826101
7.732448820062113,0.07848928093217994
7.739491123176924,0.16281581530027414
7.746533426291735,0.2117851716486806
7.7535757294065455,0.1883436289535943
7.760618032521355,0.1145663305003268
7.767660335636166,0.04030122894463438
7.774702638750977,-0.005484974210545279
7.781744941865788,-0.02233730844699905
7.788787244980599,-0.023283878919746422
7.795829548095409,-0.019326066709212934
7.80287185121022,-0.014227606423824207
7.80991415432503,-0.008332686404150415
7.816956457439841,-0.0013796794840181697
7.823998760554653,0.0069531810640815405
7.8310410636694625,0.01683384236500269
7.838083366784272,0.0259534745442533
7.845125669899084,0.027592593884907934
7.852167973013895,0.017623136440396876
7.859210276128705,0.0019904084031852364
7.866252579243515,-0.008921173447032606
7.873294882358326,-0.010219543693291856
7.880337185473138,-0.005898911493397122
7.887379488587948,-0.0048896735271806435
7.894421791702758,-0.011088451735138363
7.901464094817569,-0.01803142672859672
7.90850639793238,-0.016623173994701087
7.91554870104719,-0.005596196472579975
7.922591004162,0.007594250671406247
7.929633307276812,0.014749364885284956
7.936675610391624,0.014984510214558678
7.9437179135064335,0.014359433598024983
7.9507602166212425,0.019513205333613802
7.957802519736054,0.03190202744566776
7.964844822850866,0.04411730623167972
7.971887125965676,0.04413905526872744
7.978929429080486,0.027151047288980254
7.985971732195297,0.0007352091316283576
7.993014035310109,-0.022187779543516348
8.000056338424919,-0.03377283374250949
8.007098641539729,-0.035116980172496384
8.01414094465454,-0.03073071628566556
8.02118324776935,-0.021670406678200888
8.02822555088416,-0.009428853614287396
8.03526785399897,-0.004415473192425522
8.042310157113782,-0.021255739764864494
8.049352460228594,-0.06290410984574385
8.056394763343404,-0.10929345705273147
8.063437066458214,-0.12717963479474167
8.070479369573025,-0.10266949186316048
8.077521672687837,-0.05622050040383603
8.084563975802647,-0.017621073205311994
8.091606278917457,0.00017185442974020256
8.098648582032268,0.0021076450732452567
8.10569088514708,-0.0011582006738365407
8.112733188261888,-0.003086007060319905
8.119775491376698,-0.0011514272681742324
8.12681779449151,0.005703078255565146
8.133860097606322,0.01523749980159122
8.140902400721131,0.021641028827881933
8.147944703835941,0.01978833876081802
8.154987006950753,0.008261700592565799
8.162029310065565,-0.012229772032653088
8.169071613180375,-0.038523813237252076
8.176113916295185,-0.05842759723223101
8.183156219409996,-0.05350183411989129
8.190198522524808,-0.02147198937382739
8.197240825639618,0.015266178698908256
8.204283128754428,0.03715858540967532
8.211325431869238,0.04561772879719656
8.21836773498405,0.04649096655127023
8.22541003809886,0.03916148082712369
8.23245234121367,0.024650435054430243
8.23949464432848,0.008053730475754807
8.246536947443293,-0.004954107314158504
8.253579250558102,-0.010502706467618184
8.260621553672912,-0.011118680115981504
8.267663856787724,-0.013507524798654342
8.274706159902536,-0.01825737775200475
8.281748463017346,-0.019437279022512167
8.288790766132156,-0.013948619865701778
8.295833069246967,-0.004546572755401162
8.302875372361777,0.0033514050606668873
8.309917675476587,0.005095440842127694
8.316959978591397,0.0010555625890509642
8.324002281706209,-0.0025817167937382908
8.33104458482102,1.8416932003179434e-05
8.33808688793583,0.00888157322721076
8.34512919105064,0.019934847761761458
8.352171494165452,0.028315894506723956
8.359213797280264,0.028218119589506974
8.366256100395074,0.014093315646425315
8.373298403509883,-0.011530431222173716
8.380340706624695,-0.034344833004412136
8.387383009739507,-0.04170322377945205
8.394425312854317,-0.035622454291710196
8.401467615969125,-0.026393223719868526
8.408509919083937,-0.02099241172284696
8.415552222198748,-0.019960709688251418
8.422594525313558,-0.019070469966563107
8.429636828428368,-0.01434050418992872
8.43667913154318,-0.007715072173813857
8.443721434657991,-0.0045454830932694455
8.450763737772801,-0.006257415918795785
8.457806040887611,-0.009283643828801504
8.464848344002423,-0.007975602603196583
8.471890647117235,0.0021018787755725083
8.478932950232045,0.018596449499675916
8.485975253346854,0.031979129547438284
8.493017556461664,0.03614444406821042
8.500059859576476,0.03548680513738295
8.507102162691286,0.03617926724978184
8.514144465806096,0.037821612045377956
8.521186768920908,0.03882008291007461
8.52822907203572,0.04128602195940635
8.53527137515053,0.046192238820984444
8.542313678265339,0.04939295291316289
8.54935598138015,0.046609013940710015
8.556398284494962,0.0407327266281856
8.563440587609772,0.04032672137961276
8.570482890724582,0.05125494119308604
8.577525193839394,0.06948683782259843
8.584567496954206,0.08000087037215313
8.591609800069014,0.0688670820798973
8.598652103183824,0.03747596630540575
8.605694406298635,-0.0006073860557442154
8.612736709413447,-0.03166425165399418
8.619779012528257,-0.04833906745207471
8.626821315643067,-0.049961082102329635
8.633863618757879,-0.03886505443134242
8.64090592187269,-0.0194515390286423
8.6479482249875,-0.00043756864201365854
8.65499052810231,0.009989764479060392
8.662032831217122,0.01141153698294129
8.669075134331933,0.008177708497543736
8.676117437446743,0.002236694991617004
8.683159740561553,-0.009900384630049516
8.690202043676363,-0.03372673790388556
8.697244346791175,-0.063121985861507
8.704286649905985,-0.07312938051543981
8.711328953020795,-0.04125726092780478
8.718371256135606,0.02614042643764699
8.725413559250418,0.09448664098441709
8.732455862365228,0.12282676615678274
8.739498165480038,0.09676686173997842
8.74654046859485,0.04248482510487485
8.753582771709661,-0.003361735251542545
8.760625074824471,-0.023729559254186808
8.767667377939281,-0.02099748061966948
8.774709681054093,-0.007415797657857632
8.781751984168903,0.005241947526668312
8.788794287283713,0.01256451755951636
8.795836590398523,0.015392947445928553
8.802878893513334,0.01582142510004891
8.809921196628146,0.015927808441284115
8.816963499742956,0.01632719816634988
8.824005802857766,0.012481786581533207
8.831048105972577,-0.0034507769242561035
8.838090409087389,-0.03224260416367004
8.845132712202199,-0.06227721188902331
8.852175015317009,-0.07703118254074691
8.85921731843182,-0.06920980370800837
8.866259621546632,-0.046269331474877606
8.87330192466144,-0.01988528246135348
8.88034422777625,0.004093434611408484
8.887386530891062,0.024878125447851757
8.894428834005874,0.0433073240222116
8.901471137120684,0.0573558822460107
8.908513440235494,0.05897097007421317
8.915555743350305,0.043343119113419766
8.922598046465117,0.018976636889380644
8.929640349579927,-0.0009322429031773591
8.936682652694737,-0.009805920327622186
8.943724955809548,-0.007335258313896045
8.95076725892436,0.0018276102766335745
8.95780956203917,0.00986714733775328
8.96485186515398,0.012322424817142729
8.97189416826879,0.011450911540346661
8.978936471383602,0.011129666841265288
8.985978774498411,0.011542935783161366
8.993021077613221,0.0112855117396132
9.000063380728033,0.011144546270238948
9.007105683842845,0.014051258646528649
9.014147986957655,0.020493385794030677
9.021190290072465,0.024469146160145328
9.028232593187276,0.021059028427846176
9.035274896302088,0.014744972636323527
9.042317199416898,0.01263253198604339
9.049359502531708,0.017417347923425162
9.05640180564652,0.02839921922312023
9.06344410876133,0.0397113469914188
9.07048641187614,0.04123743862987943
9.07752871499095,0.029541483891551704
9.08457101810576,0.013669521973921978
9.091613321220573,0.004341080078934149
9.098655624335382,0.0020855490425543697
9.105697927450192,0.0014222004032976787
9.112740230565004,0.0007300609609244403
9.119782533679816,0.002977544065341972
9.126824836794626,0.012128809381098407
9.133867139909436,0.028067234324959795
9.140909443024247,0.04205716623814726
9.147951746139059,0.042230943878808457
9.154994049253869,0.02187638859218689
9.162036352368677,-0.021235606307047027
9.169078655483489,-0.08678937492221443
9.1761209585983,-0.15992176706371075
9.18316326171311,-0.2026805221162118
9.19020556482792,-0.18804599284166054
9.197247867942732,-0.13394369508304643
9.204290171057544,-0.07477064112831691
9.211332474172353,-0.0262172727930843
9.218374777287163,0.007145310814875744
9.225417080401975,0.02307515983661184
9.232459383516787,0.026862608270637224
9.239501686631597,0.028072990128955644
9.246543989746407,0.03258307128411793
9.253586292861216,0.04057882197244127
9.260628595976028,0.04622115758766545
9.267670899090838,0.03820116384400042
9.274713202205648,0.004655177267933607
9.28175550532046,-0.057266852474932635
9.288797808435271,-0.12825045703920973
9.295840111550081,-0.17118653770604716
9.302882414664891,-0.1690342560610255
9.309924717779703,-0.14084550876625093
9.316967020894515,-0.10505934663612225
9.324009324009324,-0.061675751169546815
9.331051627124134,-0.013848414010634332
9.338093930238946,0.024310210734336746
9.345136233353756,0.041371056852097826
9.352178536468566,0.04005403370326556
9.359220839583376,0.03414661383081875
9.366263142698187,0.036048777211860894
9.373305445813,0.04816190247813022
9.380347748927809,0.0610836054490387
9.387390052042619,0.05925508163181506
9.39443235515743,0.031402646838133784
9.401474658272242,-0.025398851734812787
9.408516961387052,-0.10596741612854076
9.415559264501862,-0.18492675838081832
9.422601567616674,-0.21528476670766614
9.429643870731486,-0.17577848018838907
9.436686173846295,-0.10308842830841991
9.443728476961104,-0.04569210720740683
9.450770780075915,-0.016687654877787537
9.457813083190727,-0.002917742323189906
9.464855386305537,0.01048544707534389
9.471897689420347,0.028152009088726646
9.478939992535159,0.043981942527449316
9.48598229564997,0.049519216524783305
9.49302459876478,0.04291099548602646
9.50006690187959,0.02942673536521328
9.507109204994402,0.015355986154373016
9.514151508109213,0.0037190877670950804
9.521193811224023,-0.004998271993454568
9.528236114338833,-0.011290147368275973
9.535278417453645,-0.015252542761883505
9.542320720568455,-0.01513899051952118
9.549363023683265,-0.009725224257987095
9.556405326798075,-0.0018443931025808906
9.563447629912886,0.002821071205758952
9.570489933027698,0.002165715253824329
9.577532236142508,0.0017469510605534915
9.584574539257318,0.006511584295218257
9.59161684237213,0.010612462112281847
9.598659145486941,0.005959734397602383
9.605701448601751,-0.002468322305721783
9.612743751716561,-0.0019059353646504974
9.619786054831373,0.010277749535023861
9.626828357946184,0.024847242347436654
9.633870661060993,0.03608583339453739
9.640912964175802,0.049766174520740995
9.647955267290614,0.07458227677721702
9.654997570405426,0.10551048921233942
9.662039873520236,0.1186688721842651
9.669082176635046,0.09723479667954223
9.676124479749857,0.05349457784430538
9.683166782864669,0.009763074611420404
9.690209085979479,-0.02186677172722262
9.697251389094289,-0.03509525154387037
9.7042936922091,-0.02735301328560609
9.711335995323912,-0.003261351210294464
9.718378298438722,0.028016763734533965
9.725420601553532,0.05647799996258121
9.732462904668342,0.07495767632712427
9.739505207783154,0.08009946597227147
9.746547510897964,0.06744577679109867
9.753589814012773,0.03669883369592053
9.760632117127585,0.002533661693054535
9.767674420242397,-0.013749278268605027
9.774716723357207,-0.0027001338902172003
9.781759026472017,0.02497817166080232
9.788801329586828,0.04598770165627819
9.79584363270164,0.045637019166960134
9.80288593581645,0.028969564597194734
9.80992823893126,0.006564953179520157
9.816970542046072,-0.018621904117074754
9.824012845160881,-0.046679072625856056
9.831055148275691,-0.07145584170089408
9.838097451390501,-0.07838855155127647
9.845139754505313,-0.057675362735203496
9.852182057620125,-0.01814516749229396
9.859224360734935,0.02050830286217381
9.866266663849744,0.043054425046775084
9.873308966964556,0.04381849632819481
9.880351270079368,0.022633417167070846
9.887393573194178,-0.022578135879798192
9.894435876308988,-0.09319011971111177
9.9014781794238,-0.1707391694689978
9.908520482538611,-0.21122562509815293
9.915562785653421,-0.18641941797709946
9.922605088768229,-0.1196084394845554
9.92964739188304,-0.05494293259068769
9.936689694997852,-0.014880642225210693
9.943731998112662,0.001051542337484673
9.950774301227472,0.0017492432672493547
9.957816604342284,-0.0028865622011258717
9.964858907457096,-0.0052474136923509
9.971901210571906,-0.0036504928665155065
9.978943513686716,-0.0022405577533517306
9.985985816801527,-0.003950745614110734
9.993028119916339,-0.006060600701301882
10.000070423031149,-0.0037873505525279553
10.007112726145959,0.005756384260662315
10.014155029260769,0.021023302018512224
10.02119733237558,0.03515058363957751
10.02823963549039,0.0435142310605119
10.0352819386052,0.051179578375397196
10.042324241720012,0.0645047366243194
10.049366544834824,0.07718955364241561
10.056408847949633,0.0745550157870853
10.063451151064443,0.05206185715206272
10.070493454179255,0.019878800767973697
10.077535757294067,-0.011298963475350008
10.084578060408877,-0.038955905065921934
10.091620363523687,-0.06120428959203108
10.098662666638498,-0.06974994350666193
10.105704969753308,-0.05896875086840142
10.112747272868118,-0.03606619029869177
10.119789575982928,-0.013931913947264367
10.12683187909774,0.0010836495885969072
10.133874182212551,0.010970465492890533
10.140916485327361,0.01922482885926358
10.147958788442171,0.026156801754700518
10.155001091556983,0.030424272026590024
10.162043394671795,0.030363604994488105
10.169085697786604,0.023757834017367547
10.176128000901414,0.007976329426128538
10.183170304016226,-0.01862638467847052
10.190212607131038,-0.05331777876299703
10.197254910245848,-0.08457821307927234
10.204297213360656,-0.09328263646998643
10.211339516475467,-0.06987197691761435
10.21838181959028,-0.029397683379854926
10.225424122705089,0.0026243727788292414
10.232466425819899,0.013337293090642782
10.23950872893471,0.006237335465702827
10.246551032049522,-0.008583903539874153
10.253593335164332,-0.022415007928753703
10.260635638279142,-0.027996437169225088
10.267677941393954,-0.018448564523160956
10.274720244508766,0.007312421519524884
10.281762547623575,0.03789495352953536
10.288804850738385,0.054177861974037095
10.295847153853195,0.04821478323150499
10.302889456968007,0.031826916649053176
10.309931760082817,0.01904925827803043
10.316974063197627,0.010380505777469943
10.324016366312438,-0.0008995452504555546
10.33105866942725,-0.015174439661825268
10.33810097254206,-0.024111896362215647
10.34514327565687,-0.023851965218235842
10.352185578771682,-0.020996983521152566
10.359227881886493,-0.018080794554858715
10.366270185001303,-0.007073823559921786
10.373312488116113,0.01861334186596935
10.380354791230925,0.05424524188245531
10.387397094345737,0.08564393993292538
10.394439397460545,0.10393161715819892
10.401481700575355,0.11594466010172344
10.408524003690166,0.12731644486380136
10.415566306804978,0.12612318955132976
10.422608609919788,0.10557774768631117
10.429650913034598,0.08512084366879702
10.43669321614941,0.08202204776285224
10.443735519264221,0.08350442468084468
10.450777822379031,0.06899525880433205
10.457820125493841,0.03917325837187168
10.464862428608653,0.00997550883379245
10.471904731723464,-0.006307816060180964
10.478947034838274,-0.009021975426628612
10.485989337953082,-0.006521389569405914
10.493031641067894,-0.006241364224869384
10.500073944182706,-0.008753778848090657
10.507116247297516,-0.012116757134256802
10.514158550412326,-0.015709335015109623
10.521200853527137,-0.019433462589589296
10.528243156641949,-0.02386545853125635
10.535285459756759,-0.030177714221998237
10.542327762871569,-0.03724887808391247
10.54937006598638,-0.04094401044412176
10.556412369101192,-0.03818599410427253
10.563454672216002,-0.030191283286138296
10.570496975330812,-0.020986366068162104
10.577539278445624,-0.01304945968496916
10.584581581560434,-0.00543001384872807
10.591623884675244,0.0026580564252582017
10.598666187790053,0.008812242276762226
10.605708490904865,0.009376242540023337
10.612750794019677,0.002111296461748089
10.619793097134487,-0.01231795132643598
10.626835400249297,-0.02831308175245586
10.633877703364108,-0.03593011015419703
10.64092000647892,-0.028235083097637337
10.64796230959373,-0.008616806358822912
10.65500461270854,0.010783855688397109
10.662046915823352,0.017385259814647183
10.669089218938163,0.008649651256731054
10.676131522052971,-0.004533659216904583
10.683173825167781,-0.009255821259495915
10.690216128282593,-0.0030256542787123622
10.697258431397405,0.006342622504177086
10.704300734512215,0.009568729498701838
10.711343037627024,0.005785610244430673
10.718385340741836,0.0017837441627127915
10.725427643856648,0.0007832613846158668
10.732469946971458,0.0012735812269329997
10.739512250086268,0.004091306323962055
10.74655455320108,0.0096113149968242
10.753596856315891,0.014087978506099691
10.760639159430701,0.014201647340842366
10.76768146254551,0.009568558857267474
10.77472376566032,0.0015872423680872963
10.781766068775132,-0.006590712624213754
10.788808371889942,-0.010721568332459604
10.795850675004752,-0.00869169902365351
10.802892978119564,-0.0033007427257619355
10.809935281234376,-4.381235353886144e-05
10.816977584349186,-0.0012672555537499158
10.824019887463995,-0.004971474675648758
10.831062190578807,-0.009954226248805726
10.838104493693619,-0.016564584810286664
10.845146796808429,-0.022586466678394212
10.852189099923239,-0.023829434701680353
10.85923140303805,-0.01586746762187428
10.86627370615286,0.005320180748533916
10.87331600926767,0.03661645113317072
10.88035831238248,0.062484849335815155
10.887400615497292,0.06797238233919917
10.894442918612103,0.056579201985043
10.901485221726913,0.04233154298876929
10.908527524841723,0.029636915181935734
10.915569827956535,0.014920419463690198
10.922612131071347,-8.95284626820955e-05
10.929654434186157,-0.008986045641109532
10.936696737300966,-0.009873279723232676
10.943739040415778,-0.007277395850055733
10.95078134353059,-0.007469009600306711
10.9578236466454,-0.013211106175462792
10.964865949760208,-0.02021893122048694
10.97190825287502,-0.02060586469322367
10.978950555989831,-0.011455102001037238
10.985992859104641,0.002613447965056753
10.993035162219451,0.013509585464637921
11.000077465334263,0.014555337479828253
11.007119768449074,0.006325144676679555
11.014162071563884,-0.0027613863373631697
11.021204374678694,-0.005816645399015417
11.028246677793506,-0.004140984280876754
11.035288980908318,-0.0036481451131987
11.042331284023128,-0.008527019599620737
11.049373587137937,-0.01761090410768102
11.056415890252747,-0.02579571737144564
11.063458193367559,-0.029839708345677618
11.070500496482369,-0.030119687148536585
11.077542799597179,-0.027272656259456157
11.08458510271199,-0.021518666706847357
11.091627405826802,-0.012999808701515512
11.098669708941612,-0.002168845683832671
11.105712012056422,0.007176559179168222
11.112754315171234,0.008697189953844919
11.119796618286045,-0.0004720263883417964
11.126838921400855,-0.015672816059804844
11.133881224515665,-0.026822893653652757
11.140923527630477,-0.02609430087603035
11.147965830745289,-0.012760211484273563
11.155008133860097,0.009865551636074934
11.162050436974907,0.037217516634194744
11.169092740089718,0.05996454290544741
11.17613504320453,0.06487519007517818
11.18317734631934,0.04963127520426964
11.19021964943415,0.030051912818646127
11.197261952548962,0.021901682256118545
11.204304255663773,0.023338544185601745
11.211346558778583,0.021946464182890778
11.218388861893393,0.012707572371986097
11.225431165008205,0.001858984223785226
11.232473468123017,-0.005026514249034621
11.239515771237826,-0.009393378523939446
11.246558074352635,-0.013298171435954437
11.253600377467446,-0.014682444622244918
11.260642680582258,-0.012560351856085965
11.267684983697068,-0.011797877921331877
11.274727286811878,-0.016425507323096392
11.28176958992669,-0.02063133641649485
11.288811893041501,-0.010284279191479354
11.295854196156311,0.026133575273489466
11.302896499271121,0.07923836233989856
11.309938802385933,0.11349299496903756
11.316981105500744,0.10269617180136263
11.324023408615554,0.06304147314036469
11.331065711730364,0.02904760374052683
11.338108014845176,0.014342055618543147
11.345150317959986,0.010909096913157964
11.352192621074796,0.009509340170865131
11.359234924189606,0.008633309458112672
11.366277227304417,0.009196291505515548
11.373319530419229,0.009176366948289653
11.380361833534039,0.005890930204424011
11.387404136648849,-0.0009193199379272173
11.39444643976366,-0.010782273304600049
11.401488742878472,-0.022512583705734265
11.408531045993282,-0.0319608225585476
11.415573349108092,-0.03486697784394885
11.422615652222904,-0.031480130612769296
11.429657955337715,-0.025653338715325436
11.436700258452523,-0.02090553106949809
11.443742561567333,-0.01916033807552812
11.450784864682145,-0.02102143216061228
11.457827167796957,-0.023956339757477716
11.464869470911767,-0.022936314738581317
11.471911774026577,-0.01560311428793219
11.478954077141388,-0.003276204807201435
11.4859963802562,0.013445317544641181
11.49303868337101,0.034846214982696175
11.50008098648582,0.05508217520300178
11.507123289600631,0.06149203875424948
11.514165592715443,0.04914595836439213
11.521207895830253,0.028529084030288022
11.528250198945063,0.01186570143211164
11.535292502059873,0.0024400748760506465
11.542334805174685,-0.0016438043004745263
11.549377108289494,-0.004199339034792515
11.556419411404304,-0.009031226182512089
11.563461714519116,-0.015892824162488037
11.570504017633928,-0.021264929839610473
11.577546320748738,-0.02307029484207331
11.584588623863548,-0.022880689820668734
11.59163092697836,-0.02355015103104463
11.598673230093171,-0.024592597566366337
11.60571553320798,-0.022393976120658035
11.61275783632279,-0.016193960403627226
11.619800139437602,-0.010350835114746878
11.626842442552412,-0.008291418601286482
11.633884745667222,-0.008914583992928445
11.640927048782032,-0.012822246846556438
11.647969351896844,-0.025811852980307005
11.655011655011656,-0.05257299543927941
11.662053958126466,-0.09003513145330348
11.669096261241275,-0.12406677271474546
11.676138564356087,-0.13323235289402657
11.683180867470899,-0.10767336259063502
11.690223170585709,-0.06315650682713266
11.697265473700519,-0.02557540051296396
11.70430777681533,-0.007744946510770337
11.711350079930142,-0.0067588000227057346
11.71839238304495,-0.013710467537508373
11.72543468615976,-0.019913864567620333
11.732476989274572,-0.018185019506938276
11.739519292389383,-0.0036539161093559276
11.746561595504193,0.022716330048293192
11.753603898619003,0.050325441543436746
11.760646201733815,0.06252895633096138
11.767688504848627,0.04954223294058836
11.774730807963437,0.01929941916077288
11.781773111078246,-0.008205894484319569
11.788815414193058,-0.01785695565966531
11.79585771730787,-0.009145873179021794
11.80290002042268,0.006173790596969318
11.80994232353749,0.01612151302718374
11.8169846266523,0.0229467839735494
11.824026929767111,0.0384354416918653
11.831069232881921,0.06388298235900253
11.838111535996731,0.087274711596619
11.845153839111543,0.0974674579308243
11.852196142226354,0.09427861139179312
11.859238445341164,0.08510403462718504
11.866280748455974,0.07176979893087199
11.873323051570786,0.05036938092791782
11.880365354685598,0.023367583084422466
11.887407657800408,-0.002326323627167952
11.894449960915217,-0.02554718368013646
11.90149226403003,-0.04870863571738734
11.908534567144839,-0.0670838611781918
11.915576870259649,-0.06782781453933848
11.922619173374459,-0.04608007309333047
11.92966147648927,-0.01611667005877425
11.936703779604082,0.002592396433462002
11.943746082718892,0.003936120715574414
11.950788385833702,-0.005121003048745733
11.957830688948514,-0.014741416398674784
11.964872992063325,-0.017644498053236594
11.971915295178135,-0.010492417768943867
11.978957598292945,0.004124396692247783
11.985999901407757,0.01816062352753028
11.993042204522569,0.021611617151139306
12.000084507637379,0.004394943713878702
12.007126810752187,-0.038125063094782106
12.014169113866998,-0.09162103760742916
12.02121141698181,-0.1229293560896703
12.02825372009662,-0.11195934314850176
12.03529602321143,-0.07490563095708119
12.042338326326242,-0.040200983400008064
12.049380629441053,-0.018791957112403744
12.056422932555863,-0.0074743184387760925
12.063465235670673,-0.0029395722677575684
12.070507538785485,-0.004164515621770065
12.077549841900296,-0.008235320781054633
12.084592145015106,-0.011345626418981042
12.091634448129916,-0.013169451063044879
12.098676751244726,-0.015618134337111508
12.105719054359538,-0.019193609608201292
12.112761357474348,-0.02180709718102621
12.119803660589158,-0.02015914203802628
12.12684596370397,-0.014194854697288973
12.133888266818781,-0.007379296885462081
12.140930569933591,-0.0027447624027769537
12.147972873048401,-0.002947149250868253
12.155015176163213,-0.007148877430764811
12.162057479278024,-0.005214081200695087
12.169099782392834,0.015552030302566362
12.176142085507644,0.05690343311995019
12.183184388622456,0.10491037836743651
12.190226691737267,0.13682910104036064
12.197268994852076,0.13652809064082033
12.204311297966886,0.10428094971113457
12.211353601081697,0.053308627616411856
12.218395904196509,0.003297403206345046
12.225438207311319,-0.029398942095483254
12.232480510426129,-0.041884350149538396
12.23952281354094,-0.04165792371969121
12.246565116655752,-0.0355100505050997
12.253607419770562,-0.02271672846256962
12.260649722885372,0.0030285778157142893
12.267692026000184,0.04314276495623029
12.274734329114995,0.08230291165194135
12.281776632229805,0.09422085566178441
12.288818935344615,0.07229713000111379
12.295861238459425,0.03898542961216689
12.302903541574237,0.01412312584462937
12.309945844689047,-0.0006898302457128255
12.316988147803857,-0.009755215600361916
12.324030450918668,-0.017540245775554568
12.33107275403348,-0.027261474563491386
12.33811505714829,-0.03717591404320128
12.3451573602631,-0.04246340437686938
12.352199663377911,-0.04018476918337463
12.359241966492723,-0.030564388781964123
12.366284269607533,-0.01509691210055068
12.373326572722343,0.00418999453002554
12.380368875837155,0.022780936647281275
12.387411178951965,0.03391842568963785
12.394453482066774,0.03326028630130103
12.401495785181584,0.02286954896652045
12.408538088296396,0.01019818650106405
12.415580391411208,0.0014675750932602865
12.422622694526018,-0.0036831660231493226
12.429664997640828,-0.008437211425269547
12.43670730075564,-0.013440948175259083
12.443749603870451,-0.01895720252380454
12.45079190698526,-0.027800720867462127
12.45783421010007,-0.043464552724112704
12.464876513214882,-0.06471658423040841
12.471918816329694,-0.08054265447519346
12.478961119444502,-0.07788378337868697
12.486003422559312,-0.0576727490797608
12.493045725674124,-0.03291461242163175
12.500088028788936,-0.012854684826812558
12.507130331903745,0.0005409837965161517
12.514172635018555,0.007129233417328972
12.521214938133367,0.007801287517502625
12.528257241248179,0.004688904770928659
12.535299544362989,-0.0008149172996992466
12.542341847477799,-0.008267692502924199
12.54938415059261,-0.015966421561318205
12.556426453707422,-0.01982461552221892
12.563468756822232,-0.013943260746425485
12.570511059937042,0.007537317686288246
12.577553363051852,0.044144192328191195
12.584595666166663,0.08460646430033013
12.591637969281473,0.11304706435156216
12.598680272396283,0.11711926755812338
12.605722575511095,0.0947287885764791
12.612764878625907,0.05920679185362543
12.619807181740716,0.02908664313787162
12.626849484855526,0.011773131708291208
12.633891787970338,0.0031865440303188086
12.64093409108515,-0.0027606499417236244
12.64797639419996,-0.007804820107022612
12.65501869731477,-0.00913210096165439
12.662061000429581,-0.004667110795960067
12.669103303544391,0.005004098070929981
12.676145606659201,0.020070596357289274
12.683187909774011,0.03823369660566073
12.690230212888823,0.04983848860612501
12.697272516003634,0.04778580583188275
12.704314819118444,0.03794180138477056
12.711357122233254,0.030238936609546525
12.718399425348066,0.025674428976544643
12.725441728462878,0.017713932809698702
12.732484031577687,0.0014178893015631324
12.739526334692497,-0.023908494352413063
12.746568637807309,-0.05756149540098293
12.75361094092212,-0.09176655213444547
12.76065324403693,-0.10514993904243167
12.767695547151739,-0.08192974194396613
12.77473785026655,-0.034794910981881165
12.781780153381362,0.009980269964174301
12.788822456496172,0.03789300408829686
12.795864759610982,0.04628717699601516
12.802907062725794,0.03737270846839921
12.809949365840605,0.018907564335485103
12.816991668955415,0.0019980774847571338
12.824033972070225,-0.006253062840913638
12.831076275185037,-0.0057770014175353495
12.838118578299849,0.0002998923371740538
12.845160881414659,0.009045194693764594
12.852203184529468,0.016757446825313438
12.859245487644278,0.01945153066981506
12.86628779075909,0.016996499499587613
12.8733300938739,0.013231151183165916
12.88037239698871,0.011688384960794043
12.887414700103522,0.013518631562859018
12.894457003218333,0.01707029943189756
12.901499306333143,0.019543533909409293
12.908541609447953,0.020191030893693507
12.915583912562765,0.018320288630656677
12.922626215677576,0.010860981710027202
12.929668518792386,-0.002106609702914815
12.936710821907196,-0.013457971826245236
12.943753125022008,-0.01607094689354203
12.950795428136818,-0.011332804442620316
12.957837731251628,-0.006888061844721377
12.964880034366438,-0.007960715826383146
12.97192233748125,-0.015477943264066225
12.978964640596061,-0.02930326344255921
12.986006943710871,-0.045516846882658724
12.99304924682568,-0.05322586038452042
13.000091549940493,-0.04359638847563073
13.007133853055304,-0.020322701638956046
13.014176156170114,0.004809410733914556
13.021218459284924,0.021030314669054265
13.028260762399736,0.01957156716025727
13.035303065514547,-0.009239008510405164
13.042345368629357,-0.07128312297303742
13.049387671744165,-0.14881734038184774
13.056429974858977,-0.19375617007494783
13.063472277973789,-0.16721217674348196
13.070514581088599,-0.07488918629973301
13.077556884203409,0.05286834509838214
13.08459918731822,0.177696796574182
13.091641490433032,0.2461198690237318
13.098683793547842,0.2261542581203887
13.105726096662652,0.1480869923145947
13.112768399777464,0.06876716423368015
13.119810702892275,0.017422723835321036
13.126853006007085,-0.009930541523900365
13.133895309121895,-0.030817851055350013
13.140937612236707,-0.05683579635812846
13.147979915351517,-0.08431307652838801
13.155022218466327,-0.10645896950384201
13.162064521581136,-0.12649680384199907
13.169106824695948,-0.14209041084789778
13.17614912781076,-0.132871765360151
13.18319143092557,-0.08990449032396416
13.19023373404038,-0.035999875069730645
13.197276037155191,0.004001930463771023
13.204318340270003,0.025768536484605944
13.211360643384813,0.032686747313472486
13.218402946499623,0.0263158124902693
13.225445249614435,0.010977746683105279
13.232487552729246,-0.003915191325583575
13.239529855844054,-0.009346843168272702
13.246572158958864,-0.003841915440174923
13.253614462073676,0.005660506148797407
13.260656765188488,0.010390201053926343
13.267699068303298,0.006316737411569058
13.274741371418108,-0.005207612935054536
13.28178367453292,-0.018464242201854636
13.28882597764773,-0.025163847485975305
13.29586828076254,-0.020121135280914543
13.30291058387735,-0.004530303400771426
13.309952886992162,0.017355141810039224
13.316995190106974,0.04029913646050241
13.324037493221784,0.054641223466344646
13.331079796336594,0.050641152135264274
13.338122099451404,0.03272553169756908
13.345164402566216,0.01724791865357287
13.352206705681025,0.012496467657302699
13.359249008795835,0.011970795864830342
13.366291311910647,0.006296696441800906
13.373333615025459,-0.005091005552532095
13.380375918140269,-0.013811673881408599
13.387418221255079,-0.012173391449029328
13.39446052436989,-0.0009858698439703139
13.401502827484702,0.0119212774627021
13.408545130599512,0.01731227032452913
13.415587433714322,0.008230492743401553
13.422629736829133,-0.018891038242485524
13.429672039943943,-0.06544418478776794
13.436714343058753,-0.12884245748649542
13.443756646173563,-0.18892552351558717
13.450798949288375,-0.20487377133519422
13.457841252403187,-0.15505402355132966
13.464883555517996,-0.06943538369718114
13.471925858632806,0.002648088287726596
13.478968161747618,0.03568367802536687
13.48601046486243,0.033258062548309965
13.49305276797724,0.01571545752529026
13.50009507109205,0.004485112813623272
13.507137374206861,0.007309270783177467
13.514179677321673,0.016971882464805597
13.521221980436483,0.025747938378564136
13.528264283551291,0.03241085535107857
13.535306586666103,0.03375946418781344
13.542348889780914,0.02619498430764023
13.549391192895724,0.015518999628269702
13.556433496010534,0.012271272637712606
13.563475799125346,0.021235243683654016
13.570518102240158,0.0383884669431043
13.577560405354967,0.05054979161408595
13.584602708469777,0.04027762819407024
13.591645011584589,0.0014271192491866272
13.5986873146994,-0.049491918605726694
13.60572961781421,-0.08424299039826022
13.61277192092902,-0.08832402454326345
13.61981422404383,-0.07111658542632351
13.626856527158642,-0.04957950483659159
13.633898830273452,-0.03216315219979846
13.640941133388262,-0.01971472880977347
13.647983436503074,-0.010959928394014913
13.655025739617885,-0.004100500367879133
13.662068042732695,0.002598365740059118
13.669110345847505,0.00945230313523714
13.676152648962317,0.015616428314458372
13.683194952077129,0.019972770949023624
13.690237255191938,0.019620160997139452
13.697279558306748,0.011152401988714707
13.70432186142156,-0.002822028048997692
13.71136416453637,-0.012417928960250228
13.71840646765118,-0.008637164834021306
13.72544877076599,0.008840672135048034
13.732491073880801,0.03077012705829192
13.739533376995613,0.04445013866603986
13.746575680110423,0.04398940921255464
13.753617983225233,0.033983843458658736
13.760660286340045,0.02181265551043125
13.767702589454856,0.0120116157060269
13.774744892569666,0.007400327579653634
13.781787195684476,0.007303486273022565
13.788829498799288,0.007268094644627537
13.7958718019141,0.004961131694974467
13.80291410502891,0.0015580175167915786
13.809956408143718,-0.0019455392901886095
13.81699871125853,-0.004375441462133944
13.824041014373341,-0.002450362300362452
13.831083317488151,0.005038656081588374
13.83812562060296,0.012557033406012458
13.845167923717772,0.014388486927728553
13.852210226832584,0.012019275041294904
13.859252529947394,0.009042084648563108
13.866294833062204,0.0072665432107539875
13.873337136177016,0.012204040130053818
13.880379439291827,0.035915368681865754
13.887421742406637,0.08828479192978986
13.894464045521447,0.1551297564604634
13.901506348636257,0.19184229335238975
13.908548651751069,0.1680616093850477
13.915590954865879,0.10586951269657131
13.922633257980689,0.04737530313499872
13.9296755610955,0.01187548506129417
13.936717864210312,-0.0040591684505418
13.943760167325122,-0.009738730140860605
13.950802470439932,-0.010141993226184504
13.957844773554744,-0.006999857902297542
13.964887076669555,-0.0029153245947148468
13.971929379784365,-4.2977033750844166e-05
13.978971682899175,0.0022982258413486384
13.986013986013987,0.00663633381754801
13.993056289128798,0.013347133859586708
14.000098592243607,0.018741038860329084
14.007140895358416,0.018329082161427663
14.014183198473228,0.010844458134116313
14.02122550158804,-0.00047872190214989243
14.02826780470285,-0.00995917166201398
14.03531010781766,-0.014884457959747039
14.042352410932471,-0.017384844601501533
14.049394714047283,-0.018293788895276834
14.056437017162093,-0.013927704629763801
14.063479320276903,-0.0009930583855427481
14.070521623391715,0.020739985950221054
14.077563926506526,0.05007102489754472
14.084606229621336,0.08270671992616105
14.091648532736144,0.10762497645919601
14.098690835850956,0.11246004641203747
14.105733138965768,0.09717357692049561
14.112775442080578,0.07480187628844719
14.119817745195387,0.055953213599490854
14.1268600483102,0.04200117933610917
14.13390235142501,0.03257855949677116
14.14094465453982,0.029512191778622493
14.14798695765463,0.03200563050272771
14.155029260769442,0.033787275697150274
14.162071563884254,0.02840966641539386
14.169113866999064,0.015677976084481935
14.176156170113874,0.00039283592251790464
14.183198473228686,-0.013431159287317578
14.190240776343495,-0.024718199095848867
14.197283079458305,-0.033397351085054795
14.204325382573115,-0.03769146079971918
14.211367685687927,-0.034901285361951216
14.218409988802739,-0.026222774621650503
14.225452291917549,-0.017211599301801224
14.232494595032358,-0.012489419590706905
14.23953689814717,-0.012010771802305168
14.246579201261982,-0.011865532699380588
14.253621504376792,-0.008641441716989572
14.260663807491602,-0.001550990592251293
14.267706110606413,0.007985755093821193
14.274748413721225,0.013749171997083367
14.281790716836033,0.004316350361809641
14.288833019950843,-0.030884175986401415
14.295875323065655,-0.09294905764570463
14.302917626180466,-0.16288592769635146
14.309959929295276,-0.20270798911554896
14.317002232410086,-0.18728313634604205
14.324044535524898,-0.13163247530575065
14.33108683863971,-0.07104344314991784
14.33812914175452,-0.028696223007853836
14.34517144486933,-0.009336864319658529
14.352213747984141,-0.006249663668078272
14.359256051098953,-0.0079099553425887
14.366298354213763,-0.005397466313481531
14.373340657328573,0.0008724957827934117
14.380382960443383,0.003356354844137652
14.387425263558194,-0.0014753321714364072
14.394467566673004,-0.008540587774300603
14.401509869787814,-0.011715187050398795
14.408552172902626,-0.010740760803942855
14.415594476017437,-0.00997294808195043
14.422636779132247,-0.013336925289954758
14.429679082247057,-0.020882892761462546
14.436721385361869,-0.026589290129352208
14.44376368847668,-0.018353786679740643
14.45080599159149,0.015348540261351112
14.4578482947063,0.07629603462261533
14.464890597821112,0.14516179214592725
14.471932900935922,0.18078605999121508
14.478975204050732,0.15760822442692923
14.486017507165542,0.09756700214402554
14.493059810280354,0.040621322887845084
14.500102113395165,0.005505816705677729
14.507144416509975,-0.009502031882925983
14.514186719624785,-0.013095062931339147
14.521229022739597,-0.014815278916664357
14.528271325854409,-0.01992710641718637
14.535313628969218,-0.025388811785556735
14.542355932084028,-0.024429094779242735
14.54939823519884,-0.015484196488335728
14.556440538313652,-0.0038058652646383003
14.563482841428462,0.0032362428715541976
14.57052514454327,0.002621666206995907
14.577567447658081,-0.0013758120744643688
14.584609750772893,-0.0039591985447867
14.591652053887703,-0.00688006943829161
14.598694357002513,-0.013386942222582349
14.605736660117325,-0.019104223331647678
14.612778963232136,-0.014802134991627674
14.619821266346946,0.0021646881247452086
14.626863569461756,0.023391320437033163
14.633905872576568,0.03512961250132905
14.64094817569138,0.02792969775660584
14.64799047880619,0.005187585144802546
14.655032781921,-0.017512405051045156
14.66207508503581,-0.02586731129001751
14.669117388150621,-0.019225277348639994
14.67615969126543,-0.0069062466515078065
14.68320199438024,0.0032191034656422514
14.690244297495052,0.008292864911570209
14.697286600609864,0.008141166924891856
14.704328903724674,0.0035689980208689527
14.711371206839484,-0.004208637918692275
14.718413509954296,-0.014762294205709622
14.725455813069107,-0.03125510490365844
14.732498116183917,-0.06037878826514751
14.739540419298727,-0.10496800786145895
14.746582722413539,-0.14959315303659204
14.75362502552835,-0.16095942421007642
14.760667328643159,-0.12360873485695939
14.767709631757969,-0.06400940915858937
14.77475193487278,-0.02034614877269815
14.781794237987592,-0.006351203589526221
14.788836541102402,-0.01181321219360244
14.795878844217212,-0.0201335723377272
14.802921147332023,-0.021394405869930595
14.809963450446835,-0.01660627773642151
14.817005753561645,-0.01223456000237108
14.824048056676455,-0.011114320409402191
14.831090359791267,-0.011215443326126494
14.838132662906078,-0.011395671232092487
14.845174966020888,-0.012873362150536671
14.852217269135696,-0.014547327036419113
14.859259572250508,-0.012312160210769522
14.86630187536532,-0.005366525039996114
14.87334417848013,0.0018198191824846505
14.88038648159494,0.005203486441625995
14.887428784709751,0.00507931825066102
14.894471087824563,0.0037636916331260073
14.901513390939373,0.0018547706943087597
14.908555694054183,-0.0018122707312061453
14.915597997168994,-0.008327256839778927
14.922640300283806,-0.017335406859425386
14.929682603398616,-0.02642935020747767
14.936724906513426,-0.032394816233262215
14.943767209628238,-0.03341669341846993
14.950809512743048,-0.030653047212820184
14.957851815857858,-0.02755860878651908
14.964894118972667,-0.027043548268220353
14.971936422087479,-0.028517351384381398
14.97897872520229,-0.028305110183629703
14.9860210283171,-0.025149303547248415
14.99306333143191,-0.02224724508628967
15.000105634546722,-0.020704628364296814
15.007147937661534,-0.016179242695345753
15.014190240776344,-0.006600123689530737
15.021232543891154,0.002212324835818219
15.028274847005965,0.004242075401535416
15.035317150120777,0.0009492466671885973
15.042359453235585,-0.002366038507519428
15.049401756350395,-0.0021232823063960563
15.056444059465207,0.0011874126382058015
15.063486362580019,0.00258475085492025
15.070528665694829,-0.0024319988939024316
15.077570968809638,-0.011844731788692244
15.08461327192445,-0.018749609449299282
15.091655575039262,-0.019112369131839883
15.098697878154072,-0.015891113250679233
15.105740181268882,-0.014238057655279041
15.112782484383693,-0.01526605494162971
15.119824787498505,-0.015715843669426396
15.126867090613315,-0.011965350258895176
15.133909393728125,-0.003979884140804212
15.140951696842935,0.0050314935068777366
15.147993999957746,0.011575660997429564
15.155036303072556,0.014874737917676696
15.162078606187366,0.019011224052214386
15.169120909302178,0.028478092182743824
15.17616321241699,0.042093018201734285
15.1832055155318,0.056391973338601034
15.19024781864661,0.07300099239206191
15.197290121761421,0.10243997285703571
15.204332424876233,0.15797483650591615
15.211374727991043,0.22845604081190052
15.218417031105853,0.2635154706196278
15.225459334220664,0.22249667144086296
15.232501637335474,0.1277613566069473
15.239543940450284,0.036188527603637846
15.246586243565094,-0.017586779059648002
15.253628546679906,-0.03335718167103654
15.260670849794717,-0.028956466998792896
15.267713152909527,-0.02127112489161751
15.274755456024337,-0.016294205245550523
15.281797759139149,-0.012808038154397952
15.28884006225396,-0.009162187622366544
15.29588236536877,-0.006786223325918064
15.30292466848358,-0.010611434290315712
15.309966971598392,-0.023728765883085243
15.317009274713204,-0.04111895010905863
15.324051577828012,-0.05262720142794262
15.331093880942822,-0.05099450141646755
15.338136184057634,-0.03647397942836896
15.345178487172445,-0.01750276739425189
15.352220790287255,-0.004394885709516687
15.359263093402065,-0.0012542729261198929
15.366305396516877,-0.006102067596444562
15.373347699631688,-0.015507230383317354
15.380390002746498,-0.02665725191777749
15.387432305861308,-0.03618914124293109
15.39447460897612,-0.04040351346812642
15.401516912090932,-0.03820762308611193
15.408559215205742,-0.03166398178840875
15.415601518320551,-0.023670862616059225
15.422643821435361,-0.017631694832691773
15.429686124550173,-0.01877846456222133
15.436728427664983,-0.03184656248017336
15.443770730779793,-0.0582453346437741
15.450813033894605,-0.09738660445056459
15.457855337009416,-0.1406124553603677
15.464897640124226,-0.1634717550451607
15.471939943239036,-0.14556557761274191
15.478982246353848,-0.09546886252728795
15.48602454946866,-0.03909718553086847
15.49306685258347,0.0026757777211705892
15.50010915569828,0.01910138609241025
15.507151458813091,0.011809292179300674
15.514193761927901,-0.005809282484858117
15.52123606504271,-0.020087252161740038
15.52827836815752,-0.02630394148104564
15.535320671272332,-0.027147334748966225
15.542362974387144,-0.02553570400211004
15.549405277501954,-0.01922435217994019
15.556447580616764,-0.0040662663828884464
15.563489883731576,0.02067203604842611
15.570532186846387,0.05639362130864554
15.577574489961197,0.10902654454296795
15.584616793076007,0.1784745842471968
15.591659096190819,0.24100305757779303
15.59870139930563,0.2527668901356544
15.60574370242044,0.19408680210554208
15.612786005535249,0.09950528450800852
15.61982830865006,0.018162673829869767
15.626870611764872,-0.031171974062341817
15.633912914879682,-0.05314393453918449
15.640955217994492,-0.05488823263681091
15.647997521109305,-0.04137308224932698
15.655039824224115,-0.018155390213836352
15.662082127338925,0.0071379969021786935
15.669124430453735,0.025332900276516558
15.676166733568545,0.03088328273232447
15.683209036683358,0.026312475646290513
15.690251339798168,0.016061912246380254
15.697293642912978,0.0005192291391775206
15.70433594602779,-0.019454203012929237
15.7113782491426,-0.039455314941235324
15.71842055225741,-0.05462481430868232
15.72546285537222,-0.06047630862252498
15.73250515848703,-0.0544603736595018
15.739547461601843,-0.04051608152951026
15.746589764716653,-0.027836615976996347
15.753632067831463,-0.023707477104518378
15.760674370946276,-0.029064845123250437
15.767716674061086,-0.0392157671243325
15.774758977175896,-0.0448140913270122
15.781801280290706,-0.032433584609333405
15.788843583405516,0.01072841224758202
15.79588588652033,0.08639291485008328
15.802928189635137,0.16832149210306377
15.809970492749947,0.2039167767837176
15.81701279586476,0.16292727406943622
15.82405509897957,0.07291816882752275
15.83109740209438,-0.017637061713143942
15.83813970520919,-0.08052927858741966
15.845182008324,-0.10376748035947077
15.852224311438814,-0.08699647316773072
15.859266614553624,-0.0476748524314025
15.866308917668434,-0.011766261008896346
15.873351220783247,0.004904236964290266
15.880393523898057,0.003076637205739072
15.887435827012867,-0.009067431934517657
15.894478130127677,-0.024752866764417143
15.901520433242485,-0.03807313406509728
15.908562736357299,-0.04371983351765856
15.915605039472108,-0.04069143308476611
15.922647342586918,-0.03218132697200433
15.929689645701732,-0.021697736371544398
15.936731948816542,-0.01256615121209653
15.943774251931352,-0.00908749875804198
15.950816555046162,-0.012550088326540174
15.957858858160971,-0.018418854296107706
15.964901161275785,-0.021976559367660686
15.971943464390595,-0.02300859756263221
15.978985767505405,-0.022807761225326177
15.986028070620218,-0.020266507010156254
15.993070373735026,-0.011463671808437284
16.000112676849838,0.010622555189993388
16.007154979964646,0.05417382516204589
16.014197283079458,0.11839569186555833
16.02123958619427,0.17911882186145486
16.02828188930908,0.19347505292113654
16.03532419242389,0.14235153086461014
16.0423664955387,0.05847360795988766
16.049408798653513,-0.00837778179671155
16.05645110176832,-0.030290162360850054
16.063493404883133,0.0001361558216313001
16.07053570799794,0.07582546038206155
16.077578011112756,0.16201516425081686
16.084620314227564,0.1957420188619605
16.091662617342376,0.13901614705494206
16.098704920457187,0.027722084970269026
16.105747223572,-0.06597372375580812
16.112789526686807,-0.10351185207162199
16.11983182980162,-0.09612722793717472
16.126874132916427,-0.07370878564827141
16.13391643603124,-0.05338641717526181
16.14095873914605,-0.035783058570505656
16.14800104226086,-0.018826305566115586
16.155043345375674,-0.004823879119021136
16.162085648490482,0.0021289512038796528
16.169127951605294,-0.0007455477494066997
16.176170254720102,-0.011566620890017048
16.183212557834914,-0.02189195061406441
16.190254860949725,-0.02382581522197635
16.197297164064537,-0.018766495719474963
16.204339467179345,-0.013865253017748356
16.21138177029416,-0.012827013606657384
16.21842407340897,-0.01540731975271304
16.225466376523777,-0.021829977490412402
16.23250867963859,-0.03085172704382924
16.239550982753396,-0.03699781210844898
16.24659328586821,-0.03567952663568031
16.25363558898302,-0.027312123899790024
16.26067789209783,-0.015376878118088614
16.267720195212643,-0.005053028119161375
16.274762498327455,-0.0009288466554039877
16.281804801442263,-0.002618739829989577
16.288847104557075,-0.0065603663685140905
16.295889407671883,-0.012113786227594908
16.302931710786698,-0.020456178888217103
16.309974013901506,-0.029973311639751594
16.317016317016318,-0.037901158971090906
16.32405862013113,-0.04256163127712703
16.331100923245938,-0.04204291565565451
16.33814322636075,-0.035088054808941616
16.345185529475557,-0.023577897985569963
16.35222783259037,-0.012554500032408225
16.35927013570518,-0.0066016648136763235
16.366312438819993,-0.00614034834885384
16.3733547419348,-0.008590474916092435
16.380397045049616,-0.00880644788332677
16.387439348164424,0.002219298995798015
16.394481651279236,0.033182259058109856
16.401523954394044,0.08565717640405326
16.408566257508856,0.14397092999715366
16.415608560623667,0.17434433327371804
16.422650863738475,0.1577682184664534
16.429693166853287,0.11259849819629877
16.4367354699681,0.06447356909134584
16.44377777308291,0.023114820225351176
16.45082007619772,-0.006008233590762353
16.45786237931253,-0.01921313825005923
16.46490468242734,-0.021499714642600958
16.471946985542154,-0.022089368184260102
16.47898928865696,-0.027911829979418053
16.486031591771773,-0.04075205543667946
16.493073894886585,-0.05393859698503926
16.500116198001397,-0.05537684269742848
16.507158501116205,-0.039710663701465435
16.514200804231013,-0.01497795028668852
16.521243107345825,0.004387229452123598
16.528285410460636,0.00911922474015144
16.535327713575448,0.0012892247023231673
16.542370016690256,-0.01052789802414656
16.54941231980507,-0.021979447529733232
16.55645462291988,-0.034216901813139904
16.56349692603469,-0.046429185514091066
16.5705392291495,-0.05406585137887738
16.57758153226431,-0.05315327210863088
16.584623835379123,-0.04282495630550786
16.591666138493935,-0.02509989993979753
16.598708441608743,-0.0031145431911435966
16.605750744723554,0.017458879061762494
16.612793047838366,0.025874227019749316
16.619835350953174,0.017087851282454925
16.626877654067986,0.0033726376025867916
16.633919957182794,0.0022532553851871955
16.64096226029761,0.01569143824030931
16.648004563412417,0.027724583031199825
16.65504686652723,0.02428655563524034
16.66208916964204,0.01076236713295647
16.669131472756852,0.003017111673373672
16.67617377587166,0.007717951620625635
16.683216078986472,0.01797578570033415
16.69025838210128,0.02462251042118468
16.697300685216096,0.02576159580739045
16.704342988330904,0.02295519950545759
16.711385291445712,0.015663689851969257
16.718427594560527,0.004957372525098179
16.725469897675335,-0.004467953900869042
16.732512200790147,-0.010449015817348719
16.739554503904955,-0.01545627182894015
16.746596807019767,-0.02066689039135095
16.75363911013458,-0.02274547923732128
16.76068141324939,-0.018790790060499243
16.7677237163642,-0.012081382573580948
16.774766019479014,-0.008897826129628507
16.78180832259382,-0.01296165236234235
16.788850625708633,-0.026545097679043873
16.79589292882344,-0.04657345561799718
16.80293523193825,-0.0593226386503304
16.809977535053065,-0.054863440825523545
16.817019838167873,-0.04040910443684837
16.824062141282685,-0.028456713093883958
16.831104444397496,-0.02339799820239956
16.838146747512308,-0.02295799965785483
16.845189050627116,-0.02478110901084557
16.852231353741928,-0.028751411626583998
16.859273656856736,-0.031493164027792876
16.86631595997155,-0.02396736773603803
16.87335826308636,-0.0008835382900673847
16.88040056620117,0.029334345928145683
16.887442869315983,0.04856819111849851
16.89448517243079,0.04751568016758209
16.901527475545603,0.035871555135530746
16.90856977866041,0.027319169549717984
16.915612081775222,0.022393779799791576
16.922654384890034,0.014316001507154785
16.929696688004846,0.005437639536939926
16.936738991119654,0.010439810187294854
16.94378129423447,0.04487119007907767
16.950823597349277,0.11004059527394221
16.95786590046409,0.17837890094323017
16.964908203578897,0.20021895982279234
16.97195050669371,0.15275085676692743
16.97899280980852,0.07110326486368468
16.98603511292333,0.0075243400290782615
16.99307741603814,-0.014970629558548644
17.000119719152952,-0.0020877363621620436
17.007162022267764,0.02617496829567028
17.014204325382572,0.04638667382585354
17.021246628497384,0.04568144651151131
17.02828893161219,0.02693425319663556
17.035331234727007,0.0008727106744368983
17.042373537841815,-0.021439622913292218
17.049415840956627,-0.03434037067627502
17.05645814407144,-0.03993006979018067
17.06350044718625,-0.0421158256429212
17.07054275030106,-0.040872695476753526
17.07758505341587,-0.03444971003055531
17.084627356530678,-0.025418436424281182
17.09166965964549,-0.02028419645911302
17.0987119627603,-0.021295310230834155
17.10575426587511,-0.023632708320404747
17.112796568989925,-0.02485451999513812
17.119838872104733,-0.028844226517111736
17.126881175219545,-0.03520643501503543
17.133923478334353,-0.04081744534710161
17.140965781449164,-0.05368851903645804
17.148008084563976,-0.0853717854589986
17.155050387678788,-0.12683028696842552
17.162092690793596,-0.14540549227192068
17.16913499390841,-0.11963338675622598
17.17617729702322,-0.0669260120450458
17.183219600138028,-0.019069271376567186
17.19026190325284,0.009727476714352253
17.197304206367647,0.019985157790355663
17.204346509482463,0.01722376926247924
17.21138881259727,0.011813181078456799
17.218431115712082,0.01472888428635755
17.225473418826894,0.029137241149443896
17.232515721941706,0.04643235650980006
17.239558025056514,0.05115245667284821
17.246600328171326,0.03827259167744325
17.253642631286134,0.022412295999740525
17.26068493440095,0.018991883199351373
17.267727237515757,0.02602934813953731
17.274769540630565,0.031228019217944672
17.28181184374538,0.02563654427772903
17.28885414686019,0.009337584517247904
17.295896449975,-0.008967977313058914
17.30293875308981,-0.01958924815849632
17.30998105620462,-0.02046826005313792
17.317023359319432,-0.017980038878915635
17.324065662434244,-0.020560570244313753
17.33110796554905,-0.02966305811770137
17.338150268663867,-0.03788513709618584
17.345192571778675,-0.03729431807908849
17.352234874893487,-0.025895604557388433
17.359277178008295,-0.007184148866529888
17.366319481123107,0.012333877673714296
17.373361784237918,0.026106290074537866
17.380404087352726,0.029781612453062666
17.387446390467538,0.022918951555539795
17.39448869358235,0.009564200251779842
17.40153099669716,-0.005421686619833603
17.40857329981197,-0.01911518821212284
17.41561560292678,-0.028954203886232696
17.42265790604159,-0.032394950431134356
17.429700209156405,-0.030532357063501235
17.436742512271213,-0.031872358645064366
17.443784815386024,-0.0461655251385579
17.450827118500836,-0.07028689897384167
17.457869421615648,-0.08464077839409055
17.464911724730456,-0.06743820914593568
17.471954027845264,-0.01912155879109236
17.478996330960076,0.030209939953394986
17.486038634074887,0.051763946288434816
17.4930809371897,0.04747075570787498
17.500123240304507,0.03816261609358849
17.507165543419323,0.03874523384269989
17.51420784653413,0.04879772156970011
17.521250149648942,0.05521177866097417
17.52829245276375,0.04557658311166188
17.535334755878562,0.022111366504897173
17.542377058993374,-0.0015698954902291498
17.549419362108186,-0.014652466416837076
17.556461665222994,-0.0169915898727327
17.563503968337805,-0.016834908466402797
17.570546271452617,-0.02140682371060907
17.577588574567425,-0.02879737952306056
17.584630877682237,-0.03204954081179892
17.591673180797045,-0.028493162646670248
17.59871548391186,-0.019855381177651746
17.60575778702667,-0.008167829295837273
17.61280009014148,0.0035318355449869806
17.61984239325629,0.010274459958410479
17.626884696371103,0.008663692941047378
17.63392699948591,0.0012517039889071184
17.640969302600723,-0.005407847407786105
17.64801160571553,-0.00801555803232266
17.655053908830343,-0.010106445163457647
17.662096211945155,-0.019255457727689072
17.669138515059963,-0.040306237226412175
17.676180818174778,-0.06754572522682079
17.683223121289586,-0.08527474962509866
17.690265424404398,-0.08333749269664302
17.697307727519206,-0.06888360227899498
17.704350030634018,-0.05587461674599015
17.71139233374883,-0.04938598532884433
17.71843463686364,-0.044591964245943146
17.72547693997845,-0.035431789799757224
17.732519243093265,-0.021314156839635882
17.739561546208073,-0.006355551124550201
17.74660384932288,0.00761713872781865
17.753646152437693,0.025547561610051003
17.7606884555525,0.053239063783003956
17.767730758667316,0.08445509885206809
17.774773061782124,0.09887073409149674
17.781815364896936,0.08463088761191422
17.788857668011747,0.05469831534427163
17.79589997112656,0.026611171331796975
17.802942274241367,0.002085571016421233
17.80998457735618,-0.02369131911693537
17.817026880470987,-0.04823634988687368
17.824069183585802,-0.061905073209583335
17.83111148670061,-0.055506518704448185
17.838153789815422,-0.028395983335963444
17.845196092930234,0.007119441649715063
17.852238396045042,0.031049047755600644
17.859280699159854,0.03088472820183817
17.86632300227466,0.011395440843176955
17.873365305389473,-0.01243921056081147
17.880407608504285,-0.02731547405274931
17.887449911619097,-0.025737834857157926
17.894492214733905,-0.006872991657469418
17.90153451784872,0.021003972524478776
17.90857682096353,0.042266731247855426
17.91561912407834,0.04525396076323474
17.922661427193148,0.03138083379319567
17.92970373030796,0.009592943723515632
17.93674603342277,-0.011972741042232626
17.94378833653758,-0.02688418532498536
17.95083063965239,-0.032143856804045454
17.957872942767203,-0.029835547889328805
17.964915245882015,-0.02242644695983649
17.971957548996823,-0.009942268048812394
17.978999852111635,0.006559296893167137
17.986042155226443,0.022816408503279147
17.993084458341258,0.03464291164110634
18.000126761456066,0.0420777692320257
18.007169064570878,0.04681010272467524
18.01421136768569,0.04825221230018051
18.0212536708005,0.04762464089307717
18.02829597391531,0.047827550990759735
18.035338277030117,0.045473960522078236
18.04238058014493,0.03561597131468695
18.04942288325974,0.022269090220951367
18.056465186374552,0.012821673110085086
18.06350748948936,0.00869677644813937
18.070549792604176,0.008526298694813562
18.077592095718984,0.014945639877738741
18.084634398833796,0.03240858307333107
18.091676701948604,0.056275948700747556
18.098719005063415,0.07027948472657719
18.105761308178227,0.06439615004500548
18.11280361129304,0.04773988438398963
18.119845914407847,0.035273660393277506
18.12688821752266,0.03277553009738707
18.13393052063747,0.036208100758027405
18.14097282375228,0.03655501707537667
18.14801512686709,0.030163954519025413
18.1550574299819,0.023872438596567788
18.162099733096714,0.02330525869914137
18.16914203621152,0.024592564847061286
18.176184339326333,0.019932245871270276
18.183226642441145,0.004182331300061328
18.190268945555957,-0.021479305176620084
18.197311248670765,-0.04920518417746499
18.204353551785577,-0.06880666768332737
18.211395854900385,-0.07418859788283877
18.218438158015196,-0.0658132144938766
18.225480461130008,-0.04755371914174606
18.232522764244816,-0.024462060666372243
18.23956506735963,-0.002381905661686675
18.24660737047444,0.012598043701460278
18.25364967358925,0.015962910892406597
18.26069197670406,0.008748757696474057
18.26773427981887,-0.0037345831014582703
18.274776582933683,-0.01814318839153179
18.281818886048494,-0.03151835620504033
18.288861189163303,-0.03604880782683995
18.295903492278118,-0.024964006436751576
18.302945795392926,-0.001843761815035868
18.309988098507738,0.020803894026665617
18.317030401622546,0.028522518779747583
18.324072704737354,0.01219347240471647
18.33111500785217,-0.024953663200782072
18.338157310966977,-0.06845866879169428
18.34519961408179,-0.09860312034640989
18.3522419171966,-0.09745348432759825
18.359284220311412,-0.06612691672319859
18.36632652342622,-0.02852509746217597
18.373368826541032,-0.003573458652818917
18.38041112965584,0.010767397999869586
18.387453432770656,0.023430186716126233
18.394495735885464,0.03566104616948701
18.401538039000275,0.04053937414874179
18.408580342115087,0.03305296414283827
18.415622645229895,0.014870623297500815
18.422664948344707,-0.013204759032634421
18.429707251459515,-0.055284185201782
18.436749554574327,-0.113144982354594
18.44379185768914,-0.17178274792166187
18.45083416080395,-0.19649891508230324
18.45787646391876,-0.16427296655842832
18.464918767033573,-0.09247367723102831
18.47196107014838,-0.019849091734350944
18.479003373263193,0.025923322077013988
18.486045676378,0.04016414718093859
18.493087979492813,0.0394736659940987
18.500130282607625,0.04600537270600362
18.507172585722433,0.06865353386301028
18.514214888837245,0.10433766663309776
18.521257191952056,0.15140986780606913
18.528299495066868,0.21017460826361228
18.535341798181676,0.267530329623297
18.542384101296488,0.28807319707259904
18.549426404411296,0.2442183198245581
18.55646870752611,0.1572762166084414
18.56351101064092,0.07833328775228285
18.57055331375573,0.036880074861002594
18.577595616870543,0.029472244715178994
18.584637919985354,0.039459471860155734
18.591680223100163,0.05381214802489149
18.59872252621497,0.06704129610732044
18.605764829329782,0.07347902951671352
18.612807132444594,0.06519024941306437
18.619849435559406,0.04274640423296343
18.626891738674214,0.017341187551804988
18.63393404178903,-0.0028345289205090594
18.640976344903837,-0.02105966720821412
18.64801864801865,-0.04795767065290534
18.655060951133457,-0.09274449098918151
18.66210325424827,-0.14571547682666436
18.66914555736308,-0.1711551168818826
18.676187860477892,-0.14646061203360927
18.6832301635927,-0.09675273391815734
18.690272466707512,-0.06247041799485667
18.697314769822324,-0.05453571785384262
18.704357072937132,-0.05598275351947162
18.711399376051943,-0.05051479504344544
18.71844167916675,-0.03989390827441517
18.725483982281567,-0.03592938990535708
18.732526285396375,-0.046113744262444994
18.739568588511187,-0.07019659704199263
18.746610891626,-0.09955499450203033
18.75365319474081,-0.11765876302696625
18.760695497855618,-0.11297618871279484
18.76773780097043,-0.09055404302102472
18.774780104085238,-0.06322302113267238
18.781822407200053,-0.03913001718098741
18.78886471031486,-0.020397832839816953
18.79590701342967,-0.005534158306718482
18.802949316544485,0.007491186443179955
18.809991619659293,0.017673560109159058
18.817033922774105,0.02091844259322511
18.824076225888913,0.015117647059893456
18.831118529003724,0.004453517770421976
18.838160832118536,-0.004781274941756359
18.845203135233348,-0.011213073977108573
18.852245438348156,-0.01765654757486386
18.85928774146297,-0.026140423759137388
18.86633004457778,-0.03549336778883134
18.87337234769259,-0.04008721037633583
18.8804146508074,-0.0317309935930069
18.887456953922207,-0.00853981788804793
18.894499257037022,0.019514759715610664
18.90154156015183,0.03846817506338347
18.908583863266642,0.04116742433143321
18.915626166381454,0.02987356645831827
18.922668469496266,0.012182984591204891
18.929710772611074,-0.004110351299544121
18.936753075725886,-0.013145146197277408
18.943795378840694,-0.013599962044364287
18.95083768195551,-0.010790529384684187
18.957879985070317,-0.010786882940463868
18.96492228818513,-0.012546653104625749
18.97196459129994,-0.010163531601850634
18.97900689441475,-0.0019353986368706201
18.98604919752956,0.007799983706588293
18.99309150064437,0.015794789228949238
19.00013380375918,0.021387738277989808
19.00717610687399,0.020578679776793132
19.014218409988803,0.009051608128840444
19.02126071310361,-0.008904343304932557
19.028303016218427,-0.023008075614193553
19.035345319333235,-0.026341391718178807
19.042387622448047,-0.016386605711636342
19.049429925562855,0.009245025759918746
19.056472228677666,0.04803904698313373
19.063514531792478,0.08450632892157985
19.07055683490729,0.09926656818336851
19.077599138022098,0.08679776204687153
19.08464144113691,0.05818120561312684
19.09168374425172,0.03004012704074218
19.09872604736653,0.014050901541456636
19.10576835048134,0.012257059271901648
19.11281065359615,0.016893291968519266
19.119852956710965,0.018243619718243037
19.126895259825773,0.01465424107057544
19.133937562940584,0.010417759557400328
19.140979866055396,0.007881595426079472
19.148022169170208,0.00544571541888906
19.155064472285016,0.00020147422346761175
19.162106775399828,-0.007558735793553448
19.169149078514636,-0.01342472298413011
19.176191381629447,-0.015445930404259879
19.18323368474426,-0.016926293794093085
19.190275987859067,-0.01765459487982844
19.197318290973882,-0.010991419600596738
19.20436059408869,0.005655077269717543
19.211402897203502,0.024223877485769436
19.21844520031831,0.030584085615445657
19.225487503433122,0.018544756116537317
19.232529806547934,0.000996300636410357
19.239572109662745,-0.0014028162996700764
19.246614412777554,0.01536608119328869
19.25365671589237,0.03272874183207379
19.260699019007177,0.03290453433799726
19.267741322121985,0.019085158623134313
19.274783625236797,0.004685829196291244
19.281825928351605,-0.004447440015437384
19.28886823146642,-0.009888502355472856
19.29591053458123,-0.012099466553091706
19.30295283769604,-0.008448127826012626
19.30999514081085,0.001906114281401594
19.317037443925663,0.015083057377695839
19.32407974704047,0.025064563172607263
19.331122050155283,0.027621755601350946
19.33816435327009,0.021568754792222835
19.345206656384907,0.008387435927232623
19.352248959499715,-0.006823953227958803
19.359291262614523,-0.01630254207697364
19.366333565729338,-0.015925847508802684
19.373375868844146,-0.00942234265214903
19.380418171958958,-0.003244959200573946
19.387460475073766,0.0002491968788290789
19.394502778188578,0.0012182019458521496
19.40154508130339,-0.0035004946383201917
19.4085873844182,-0.020379688872793844
19.41562968753301,-0.05203082799573964
19.422671990647824,-0.08596276938592044
19.429714293762633,-0.09289506967161454
19.436756596877444,-0.055224039876867165
19.443798899992252,0.004544374594443649
19.450841203107064,0.0450019529965367
19.457883506221876,0.048307296699472514
19.464925809336684,0.027218794397721575
19.471968112451496,0.0007340208454026951
19.479010415566307,-0.021718590133807426
19.48605271868112,-0.034441947138070014
19.493095021795927,-0.029561539082665754
19.50013732491074,-0.005573573262931277
19.507179628025547,0.02629054667373921
19.514221931140362,0.05464609083980212
19.52126423425517,0.07729489610278624
19.528306537369982,0.08957882107257913
19.535348840484794,0.08165051708467086
19.542391143599605,0.05478620972318973
19.549433446714414,0.023958305910668005
19.55647574982922,0.003503522779331234
19.563518052944033,-0.001063686410834317
19.570560356058845,0.006953179215129657
19.577602659173657,0.01778649931998175
19.584644962288465,0.020282803761487042
19.59168726540328,0.008527269090722203
19.59872956851809,-0.01295390151953697
19.6057718716329,-0.030590587430970262
19.612814174747708,-0.03247124822508913
19.61985647786252,-0.019431523991156968
19.62689878097733,-0.004457063837334746
19.633941084092143,0.00018701532081340233
19.64098338720695,-0.0059526821851141
19.648025690321763,-0.015705765106468785
19.655067993436575,-0.024601859290110058
19.662110296551383,-0.03151236864030783
19.669152599666194,-0.034456122130975486
19.676194902781003,-0.03138876429733493
19.683237205895818,-0.022661048821652433
19.690279509010626,-0.011032894341825228
19.697321812125438,-0.0014552919173231476
19.70436411524025,7.984788108710353e-05
19.71140641835506,-0.00843142863441557
19.71844872146987,-0.021591653998622107
19.72549102458468,-0.03114874058766677
19.73253332769949,-0.032098466253566174
19.7395756308143,-0.02354473843150324
19.746617933929112,-0.006967728191139201
19.75366023704392,0.014130369922207267
19.760702540158736,0.03254620606538095
19.767744843273544,0.038311002049779795
19.774787146388356,0.026181575209486038
19.781829449503164,0.0024580982427271723
19.788871752617975,-0.019863152061498
19.795914055732787,-0.03267689004341994
19.8029563588476,-0.03619793653226174
19.809998661962407,-0.03436187322605947
19.817040965077222,-0.030774621452491737
19.82408326819203,-0.028159946606079688
19.831125571306842,-0.03073242130401935
19.83816787442165,-0.042630819342858894
19.845210177536458,-0.06066686825292054
19.852252480651273,-0.07255951485229423
19.85929478376608,-0.06637545290528045
19.866337086880893,-0.04125818050659057
19.873379389995705,-0.00786931107699318
19.880421693110517,0.01964036542632463
19.887463996225325,0.03265757711332836
19.894506299340136,0.031460939934619854
19.901548602454945,0.020507976373321288
19.90859090556976,0.004628584565589947
19.915633208684568,-0.00963189370479543
19.92267551179938,-0.01539015784524579
19.92971781491419,-0.011894280843535231
19.936760118029,-0.005472782581903958
19.94380242114381,0.00047937885435673437
19.95084472425862,0.009208326934750636
19.95788702737343,0.019011934713713124
19.964929330488243,0.020431634300359866
19.971971633603054,0.01074528388692248
19.979013936717863,-0.001595717741430058
19.986056239832678,-0.008895041885021363
19.993098542947486,-0.00972157985943397
20.000140846062298,-0.0038801143059911335
20.007183149177106,0.010240465641802629
20.014225452291917,0.031238823625030627
20.02126775540673,0.05035693851627296
20.028310058521537,0.05797941657668646
20.03535236163635,0.053893066432445555
20.04239466475116,0.0445558479271856
20.049436967865972,0.032892975344268834
20.05647927098078,0.017884875694919297
20.063521574095592,0.001653757507121773
20.0705638772104,-0.010740246151081491
20.077606180325215,-0.017656629349935726
20.084648483440024,-0.02164922944371227
20.091690786554835,-0.024354176770895256
20.098733089669647,-0.02401362383795654
20.10577539278446,-0.0187421549951691
20.112817695899267,-0.009913726913305956
20.119859999014075,-6.903907189455423e-05
20.126902302128887,0.009964974558073218
20.1339446052437,0.017972631259155936
20.14098690835851,0.019495217730795402
20.148029211473318,0.01469871633019559
20.155071514588133,0.010057456880688558
20.16211381770294,0.011200582675954755
20.169156120817753,0.017880459884429274
20.17619842393256,0.024347142296652642
20.183240727047373,0.02277351695099412
20.190283030162185,0.008880427807877149
20.197325333276996,-0.01315346232484084
20.204367636391805,-0.03188673369347993
20.211409939506616,-0.03695388447124983
20.218452242621428,-0.026532781571932437
20.225494545736236,-0.007277348358017873
20.232536848851048,0.011327039288158813
20.239579151965856,0.02241448528507748
20.24662145508067,0.022454574474460105
20.25366375819548,0.011090047205145101
20.26070606131029,-0.006029193497826456
20.267748364425103,-0.01947795733457637
20.274790667539914,-0.02434383112932422
20.281832970654722,-0.022580505235313714
20.288875273769534,-0.018503442856652126
20.295917576884342,-0.015649920661371546
20.302959879999158,-0.01559086345073625
20.310002183113966,-0.017527516626484364
20.317044486228774,-0.020090793665117544
20.32408678934359,-0.023636837842496976
20.331129092458397,-0.029867243353425395
20.33817139557321,-0.03793632207094363
20.345213698688017,-0.04285270000242658
20.35225600180283,-0.04008947743093098
20.35929830491764,-0.027450963157974243
20.366340608032452,-0.002450891636962115
20.37338291114726,0.03454582042435077
20.380425214262075,0.07198043640901751
20.387467517376884,0.09003436205273048
20.394509820491695,0.08244050654549785
20.401552123606503,0.06397508754134928
20.40859442672131,0.0477732670979097
20.415636729836127,0.0346836416944884
20.422679032950935,0.022566454985645665
20.429721336065747,0.008768685613836442
20.43676363918056,-0.008460602056352653
20.44380594229537,-0.024544631889100985
20.450848245410178,-0.03004922577071057
20.45789054852499,-0.01860794591006499
20.464932851639798,0.008229535018421354
20.471975154754613,0.03979359394037493
20.47901745786942,0.05693637711314298
20.486059760984233,0.04549061641494737
20.493102064099045,0.012876494739475355
20.500144367213853,-0.01926527610273787
20.507186670328664,-0.0365812534198828
20.514228973443473,-0.040018294051368905
20.521271276558284,-0.03716708456436485
20.528313579673096,-0.030586357091389505
20.535355882787908,-0.015163285674900133
20.542398185902716,0.014299762940720509
20.54944048901753,0.0513993755126429
20.55648279213234,0.07500758547852872
20.56352509524715,0.06723892526085809
20.57056739836196,0.033052314768660884
20.57760970147677,-0.0068265808716257365
20.584652004591582,-0.03533608642870501
20.59169430770639,-0.04495641499275653
20.598736610821202,-0.03011433984487029
20.605778913936014,0.017375233489658436
20.612821217050826,0.09767136988638361
20.619863520165634,0.1831016086565901
20.626905823280445,0.22021746657785668
20.633948126395254,0.1796677537578819
20.64099042951007,0.09399784169829596
20.648032732624877,0.01931678546693159
20.65507503573969,-0.016302678881126555
20.6621173388545,-0.01570656366652643
20.669159641969312,0.004903579461714156
20.67620194508412,0.027798554018374017
20.683244248198932,0.03996714946081984
20.69028655131374,0.03522333037510592
20.69732885442855,0.01587091312836531
20.704371157543363,-0.008256871605381718
20.71141346065817,-0.029212091264982636
20.718455763772987,-0.04865741762314592
20.725498066887795,-0.07340908916626603
20.732540370002607,-0.10555393536123317
20.739582673117415,-0.1307890821293534
20.746624976232226,-0.12287167781434298
20.753667279347038,-0.0804041843204431
20.76070958246185,-0.03716224208623227
20.767751885576658,-0.01789996221787886
20.774794188691473,-0.017670029718241626
20.78183649180628,-0.02330416161535728
20.78887879492109,-0.02593742404931848
20.7959210980359,-0.02053031167816625
20.80296340115071,-0.006833923782467249
20.810005704265524,0.009894033589305327
20.817048007380333,0.02243997232759121
20.824090310495144,0.030331769544506917
20.831132613609956,0.04342009135858768
20.838174916724768,0.06938074123050747
20.845217219839576,0.09528317693850324
20.852259522954387,0.09037363899094374
20.859301826069196,0.038677936167294556
20.86634412918401,-0.035908366669015514
20.87338643229882,-0.08768760483621514
20.880428735413627,-0.08930137672087222
20.887471038528442,-0.04987067477054041
20.89451334164325,0.0006524515878876102
20.901555644758062,0.0358813663360551
20.90859794787287,0.04555074349765445
20.915640250987682,0.03650385967206022
20.922682554102494,0.022984048985791924
20.929724857217305,0.012971786862370653
20.936767160332113,0.00469432527049094
20.94380946344693,-0.005966623973684202
20.950851766561737,-0.01897186203757376
20.95789406967655,-0.030000800523030124
20.964936372791357,-0.033605824687106545
20.971978675906165,-0.027481272758422583
20.97902097902098,-0.014684201867644405
20.986063282135788,-0.0010449416165837734
20.9931055852506,0.006932906282207687
21.00014788836541,0.004388904947746826
21.007190191480223,-0.0052817246115763015
21.01423249459503,-0.011405071632927047
21.021274797709843,-0.007331853415421502
21.02831710082465,0.0037249650478469814
21.035359403939466,0.01453459167806782
21.042401707054275,0.022544065819280607
21.049444010169086,0.02920195997551533
21.056486313283898,0.033116606961442745
21.063528616398706,0.03041502422134331
21.070570919513518,0.019640510672868542
21.077613222628326,0.0024840103397666706
21.084655525743138,-0.01805176281346655
21.09169782885795,-0.03874301567308447
21.09874013197276,-0.053916926138104025
21.10578243508757,-0.053791724963032625
21.112824738202384,-0.03483706308474694
21.119867041317193,-0.010170775816461464
21.126909344432004,0.0024786335638141755
21.133951647546812,-0.0005069614030929229
21.140993950661624,-0.01020211322333486
21.148036253776436,-0.018782148995250967
21.155078556891247,-0.023789912225177765
21.162120860006056,-0.025183115649875312
21.169163163120867,-0.025215038017016286
21.17620546623568,-0.02647328915378672
21.183247769350487,-0.028431580845948524
21.1902900724653,-0.029412417874980994
21.197332375580107,-0.030130338465464226
21.204374678694922,-0.03348223202371367
21.21141698180973,-0.040341162501117765
21.218459284924542,-0.045563014245422036
21.225501588039354,-0.04195901610450085
21.232543891154165,-0.029415084966892362
21.239586194268973,-0.016020642646101216
21.246628497383785,-0.01017565629924669
21.253670800498593,-0.01415311180604698
21.260713103613405,-0.023184264892468734
21.267755406728217,-0.02974953653930658
21.274797709843025,-0.029230107106030988
21.28184001295784,-0.0207208524631815
21.288882316072648,-0.0066872921062059885
21.29592461918746,0.005705886408232539
21.302966922302268,0.008082373333448167
