0
-0.002291816574141579
-0.041998378837485605
-0.001085226555473148
0.003490665997891981
-0.01639591066191308
-0.14559241543682264
-0.029152160405017852
0.029929616913561958
0.01328418573855435
0.015278295035111073
-0.039411664803179924
-0.026597694545491796
0.01689997820389196
-0.015368566933373814
0.11406911181921779
0.030233081616077732
0.044884665164763825
0.18840670251562264
0.009230749969095701
-0.005218217234044483
-0.019153464851749177
-0.008027196248651662
-0.01606201779091854
0.009082775959577188
-0.01957091444420444
-0.0683913250518486
-0.006601268664186908
0.02420148236839557
-0.00630713948888781
-0.027218709019568625
-0.040960206799040236
-0.054331000450421774
-0.015095070192501964
0.004180345103977284
0.03977409002384866
0.18320803436445007
0.04908430844840126
0.020446586558384848
0.014287952413807693
-0.02277875848794734
0.00845074938950049
-0.006194148303767213
0.010628618536605775
-0.044394035601887635
-0.006561212339495563
0.01131107377083534
0.03892549352453988
0.05471367317005843
-0.0013965804222451546
-0.08298941485617914
-0.1320155183870249
0.02952787420702066
0.0032879538661027595
0.012059743085937066
0.008625994615443996
-0.009104350521787208
-0.06326585088423614
-0.025014071084890704
0.04993435976775367
0.02793613487381849
-0.039807417511059824
0.00994998378541476
0.010179621144578382
-0.008123023488289142
-0.01017040442022983
-0.02395816694949212
-0.0027269095520418185
-0.00864399442551126
-0.029241309822422294
0.02175474823537165
-0.05780043697824065
-0.03171008944548865
0.03344433672177308
0.037691319224751114
0.0121543479094036
-0.04788517254205428
0.020615778301493526
0.019059904050885302
0.030338357665624528
-0.06019072963389038
0.05476630753263314
0.05960223323998535
-0.06379326210488065
0.007272886058297318
0.027513003800134106
-0.005499387127525584
-0.06094966985784197
-0.0083382409690447
0.0005575255795663952
-0.04131022688272625
-0.007703890755927545
-0.003746802003937604
-0.012757788170108489
-0.011299491211852574
-0.022362843080803822
-0.0030219005915213385
0.0017173160449079619
0.006577740520981676
0.01124187885906184
-0.02342787192675803
0.030314613938435472
-0.028020571025975827
0.09358048102395489
0.0451162246202278
-0.042457437754541395
-0.015066626546971848
-0.0009344237492267066
0.17853053907010763
0.02508487886156162
-0.0026717060595768207
0.00787368441828493
0.0008574196143719528
0.08104922496222525
-0.0022891085007038315
-0.011339067706873145
-0.0018467900087650445
-0.01760348604890255
0.00044400564978352346
-0.00919045826967512
-0.03173698539682876
-0.021751148060748765
-0.011374415918450518
-0.050295625338690884
-0.030041256246944575
0.04003025362453086
0.01739602754537099
0.017344915710918382
0.017860473298232416
-0.03981733886667084
0.026873756433604894
0.04956845119370538
-0.04620251448077296
0.0026447032717929644
-0.00761132381627039
-0.005532579393991404
-0.009632703531418185
-0.012769291319060475
-0.027604923136382336
-0.019369792482517925
-0.026739045720937372
-0.012137149071064923
-0.043966544590920184
-0.032695671598649806
0.0020870355923930683
0.0093703079601615
-0.00998723760400387
-0.011114210541769589
-0.04174122854719643
0.004838532228048797
0.0019658487795993548
-0.008065220370196373
-0.019796674785142066
-0.02565188753832234
-0.013924412550741654
-0.02690474193476793
0.008578658734064711
-0.01648439275803139
-0.02303721646816694
0.06053485505647693
0.05734764084564106
0.028993318167929803
0.02195546663188486
0.007054964303589658
-0.018306869589975856
-0.012992595012219544
0.005221799961457375
0.05513400472709619
0.06889775865323128
-0.022822939647176584
0.014643055697278874
0.02740886287423089
0.012637787716802417
-0.0020575458002851546
0.004269715738552497
0.020095532306811322
0.004291684340891539
-0.052874282264260795
0.012547481232979921
0.006834711248206387
0.06587899081967197
0.054425179767468676
0.045434630557357886
0.060458302482304646
-0.0027956702594535247
-0.009346166033664281
-0.01710888948012672
-0.004308630591762555
-0.05261322354580959
0.005327789816740211
-0.008325191249915561
-0.004323966747195098
0.01956874017694835
0.043790759911717006
0.027482096354480824
0.02802943559868655
0.020010284241354093
0.036934479853336186
0.016878572511798227
-0.08163440689394624
-0.01903740783469067
-0.0015674911550292454
0.01203275485032487
-0.20039644385258462
-0.1317292237858706
0.08228360277752655
-0.021929693271549814
0.02102252368110803
-0.003166534259310799
-0.04345582263226554
0.006397668335600525
0.019208941397965976
-0.016409464250554513
0.05532926680168544
-0.01375669605890832
0.024207817659180945
-0.16577728399298708
-0.1628934054459065
0.005921137202057376
0.04104581389376556
0.00558893516909719
0.010083938089499174
0.01927234732191904
0.03879310029209046
0.04508131977331488
-0.015597512026091194
0.0001867035623615653
0.02694845023393124
0.013201764378386726
0.015322014454073907
-0.006110149177065487
-0.1354105515130798
-0.001905190136640742
0.014894096998571204
0.011654899966050224
0.029149344147109697
0.02370355846571371
0.0357369824310275
0.02490779813941095
0.023813294654953562
0.016255826759142524
0.014243215577367567
0.007175442305601927
0.01744505894174824
0.03629529835135629
0.014766825258496307
-0.018472557011632623
-0.011810218398913204
0.017455469528779414
-0.006549679152397864
0.009283823282649557
0.025655963569002755
0.018201431317518234
0.02272261305270849
0.030661679571497187
0.01287313816182803
-0.0954304379345998
-0.08364872232787454
0.011177258069877146
0.03313013133327194
0.03345420746724967
0.016474909297450043
-0.06119177327780173
-0.039942872077153586
-0.018115394070847654
-0.04888672536827613
0.03139082943844983
0.03061285487229787
0.020792166329344303
0.007532921295227547
0.06171764194469406
0.011482720211280075
0.004028879681658337
-0.008947471273621842
-0.02565156224235056
-0.015323980135454095
0.0022834090647025494
-0.04014804382624172
-0.02295346985912846
-0.004132096529870163
-0.012289662186780381
-0.01721279515750679
0.0032577862087883793
0.01110000557643684
0.07660167654905028
0.001618276227348493
0.04475576937029983
-0.007012648510012086
-0.02861104351733382
-0.010062413988770495
0.00046347572844069473
0.026049021891189694
0.02048674032867881
0.035967972624351814
-0.07168284485163397
-0.030789590522213646
0.012672027603282997
-0.017523440923029078
-0.02908754524421848
0.04397543036369614
0.05214167598130284
-0.019003975602052862
-0.0077630426139651595
0.001177039910357311
0.008382130666731952
-0.028550779565578863
0.0017503401730919626
-0.001097527620805344
-0.00290924427837941
-0.017093658561276405
-0.01830294266520376
-0.007942101416208266
-0.010262946377905485
-0.06995322744432468
0.10319676983183422
0.07090384033686663
-0.005013836246673965
-0.014487061887554274
-0.021992786680727343
-0.018717852024866873
-0.026681827901122692
-0.08220766183615412
0.011391592164916916
0.00017561753534247143
0.08533110237220484
0.12120670915213191
0.014857297101326203
0.015452568037173714
0.005977907465583073
-0.027516583599074072
-0.04168061897713553
-0.002408535742849224
-0.023771967202294554
0.03795431448830301
-0.004365056584153291
-0.02585042261153758
-0.031121287687333455
0.022457385546508835
0.015514513629380793
-0.007127814930868822
-0.015698560135909187
0.00010830855117285357
-0.0019037778165844506
-0.008549808282385062
-0.006441803835902671
-0.012408048118303748
-0.00564236833627907
-0.025245554916560328
-0.025233390661443846
-0.010956233866269132
0.022363447828498743
-0.04059722834694741
-0.03132843684404335
0.04550734550429842
0.04753051838129466
0.033575172545426184
-0.010630538048752027
0.00801610651279277
0.0008485675982922499
-0.005123570163156368
-0.003418924684808573
0.06452332328762087
0.03503849206613219
-0.00945900056438084
-0.10502841211001643
-0.023396933226422466
-0.0038506494173584384
-0.011361288467405669
-0.005201159176257752
0.017105371586404655
0.03621292563006872
-0.01027814029961223
-0.00021437240214808984
-0.016200709565928784
0.009678664869412984
0.02934697824833721
0.005135790912896604
0.026975952227534357
-0.031960971498500204
-0.01294086977290327
0.05244903218517308
0.02940617225869408
0.012275191528639501
-0.03053784997096115
-0.009245597936745932
-0.007473957443929032
-0.0039771845449328444
-0.03842169624347413
0.012381448092117086
-0.03142238518710422
-0.04518392499298328
-0.01845448806327453
-0.02033173464817472
-0.030031757927066687
-0.014957230665273238
0.010762674514638651
-0.02001029964213074
-0.026189484215287
0.022065456879697097
0.04012619285316392
-0.019736404113107942
-0.03427292108557349
-0.014978706873261539
0.04217229407254201
-0.03876558684851969
0.00965887517836705
0.15251559322641256
0.023812019947139676
-0.0005007338550141958
0.021163592441194094
0.044944642658509545
0.02923545767226849
0.04635877200239413
-0.015021833118246097
-0.04020167656633197
-0.01321209042700015
-0.012562970468803582
0.06452180059374545
0.039942210081722704
-0.009705123597563054
-0.007291331084541368
-0.017827988970296645
-0.02722188534017244
-0.03843999119340519
0.0068648535294563665
-0.04072605631693591
-0.03638388671451642
-0.027363992656148143
-0.001937248924786604
0.019169676295019387
-0.021862146377524445
-0.021805429512102625
-0.020428644515225268
0.00033390738799587245
0.008103441074008339
0.04298105093392245
0.042710347629550054
0.04151000638285285
-0.034485949690199844
-0.0019239909311183929
-0.0010944138807449358
-0.007469479688342917
-0.00957083854539674
0.011474699540381808
0.005898601745112223
-0.012261480134792191
0.008586755075813272
-0.016758978999671638
-0.03684085731585344
0.04092754371880241
-0.005727370252709938
-0.07094626513889882
-0.035412101648647
0.011031748148693035
0.00039956340399595764
-0.0325386855193784
0.09955015628667965
0.04900299090475128
-0.027022825911799907
-0.024535862905463245
-0.020277099023225786
0.030712126285603
-0.004339949791570322
-0.012757552493753335
-0.0035519516678279074
0.036555022834753925
0.0999381525152168
-0.008054408253202566
-0.01635353255000417
-0.020160385041768893
-0.046953235683021934
0.014043317900936698
-0.021770150690548315
-0.006766654111688252
-0.007704378982398363
-0.013231800577656733
0.017197706582493956
0.0014799765364118588
-0.01887566682950074
0.019371323993756295
-0.006754409972164528
0.024676138332927398
0.02906444649085879
-0.03102419370611296
0.01384147783389466
-0.0005868522057470965
-0.022224088915296387
-0.013739880308435154
-0.0010717223046416851
0.009475748196149499
0.0022474252432833843
-0.011370158543207184
-0.03691110063572472
-0.0003231055830556461
0.0027803423012121163
0.001218137065404171
-0.006572749776635354
-0.0037387235602923292
-0.028444341024794272
0.04718404568120278
-0.00610426861536874
0.09703002212269199
0.05713108092030993
0.0346620935774447
-0.01975331168937732
0.0310629430524914
-0.009931470842716396
-0.003617524921382626
0.013924557172933628
-0.015307193093104262
0.004895237271391686
-0.008730136025828074
0.0012423738188369518
-0.006045747524622308
0.014096880555129098
0.021339339162876805
-0.0048283974804482176
0.0009582548402137268
0.001791945560228251
-0.0023416543323559564
-0.03692902703799843
-0.025417587084587513
0.046432334883856646
0.0038054145551351267
0.008624868006214838
0.0166763284445228
0.030996044501024247
-0.2312159718169034
-0.1077227027860223
0.04154618623148223
-0.005981263117383035
0.031862663407775334
-0.02845238099117812
0.007990142851070924
-0.0365623596981574
0.01854203120372679
0.013106568401275517
-0.038987725818591
0.06392400466690529
0.004518396949744857
0.018849946421410996
-0.022466376184146618
0.008987277863906473
-0.012336380407721316
0.025525943493937685
0.018193526551051272
0.013057601596745152
-0.05575924170901314
0.02754226627587251
0.018454257322123736
0.0728761065088257
0.04609175742769559
-0.02387430194280295
0.023077554963342364
0.03589628949358723
0.04364459337576633
-0.1698278204203316
-0.113176140534043
0.014992986284808989
-0.021868020930416312
0.0047048433700443
-0.011360579416580502
-0.010416745628941192
-0.04594503499567413
-0.0038862340869010295
-0.01948215545530438
-0.005029398944474526
-0.01760878521977253
0.03661366835899055
0.027658485931940657
-0.017774874260353565
-0.017112077805776192
-0.01554274806207284
0.01402788645820288
0.01214006267775739
0.037452897789825
0.008550695183769066
0.01538079243850698
0.014060397885258627
-0.028886737666127416
0.04629957863264426
0.010036343918586932
-0.027114193052912468
0.012675138762833783
0.07212424839365236
0.02869495340428056
-0.007624310457396236
-0.007442315275950786
0.04279558243829678
0.0741382067331024
0.015889527451076087
-0.008237322513852273
0.04089538267127007
-0.010699167759317159
-0.00809907207098562
-0.015329811765416493
0.004551597514881355
-0.02148688825287904
0.051885061389501504
0.07068472244912381
0.0006867011060078673
-0.022522243829577484
-0.012342649775646362
-0.02308811647595359
-0.04630064522845439
-0.03708223879950078
-0.030102363355227677
0.0004812762131726643
-0.0024849038263959487
-0.0014835695919500436
-0.010497363965031519
-0.0342775348171534
0.0038102426190477516
0.014381009594703436
-0.011105684795454944
0.020567227546709962
0.006795531578936225
0.008178732407655907
0.055487100960611456
0.0546527974263957
0.03701370619796388
0.025469890036611764
0.0003792987786969297
-0.022428953134486774
-0.004366972224809591
-0.03726141571743852
0.004801619561447485
-0.0008806367800638673
0.009507202225426859
-0.11631306020808281
-0.05291429455158068
0.05854175102972525
0.040232322629485145
-0.0508394109143974
-0.09128238757965504
0.0011217511269263564
0.003921243386515763
0.019718569549420945
-0.0626482830877283
0.009724580720084842
-0.011527351657548522
-0.01775386628205983
-0.012358670039362609
0.02322008929143188
0.035197306594796154
0.028288557971722566
0.020850315289064954
-0.01263498743693051
-0.043786109795645206
-0.05404671634353895
0.007279929039739157
-0.021774421937615022
0.012584468179499092
-0.004031185426670254
-0.013787254531174365
0.0049062358792524435
-0.007268658772803389
0.017877375998548144
0.03557891856225307
-0.04825651763687949
-0.010222477559755163
0.011582761421854033
-0.011670103293809726
0.023580522080855346
0.0029390302748485762
-0.004389893401833898
0.005403422586144596
-0.014887342176971916
0.013457270421771984
0.03630079083334686
0.024199131262692748
-0.024034467253474346
0.035411291058737686
0.007792088441382378
-0.05104815502322664
-0.08215209225200684
0.06453162268928452
0.09384342352731515
-0.03067406788904632
0.0160490103068845
-0.0140664456718928
0.006085503414137592
0.016845863116881462
0.010066509716612932
-0.010703341167181371
-0.022116428568333596
0.06635934339060044
0.009560004503540404
0.030077791869029345
0.041073125757359066
0.04186930225084473
0.0590095886795425
0.04017724142947129
0.03411697375950227
-0.0384656723358347
-0.008124911971891741
-0.010468040688278364
-0.004253098362558111
0.016207630845874108
-0.11495322380623964
-0.09922901701622729
-0.08244387266983713
-0.03138542324864703
0.05344169637107446
-0.01587424116081911
0.024445413938526235
-0.020020612780398756
0.04844850374138114
0.016115124865301124
0.029744764244160473
0.026990024904161213
0.028512571861375353
-0.020472638823982786
0.024316631283134396
-0.013992775661010069
0.007875375554867817
0.008355971987675733
-0.011916907244749721
-0.0652306230532302
-0.012277787795889223
0.01283268395776437
0.014387024915730254
-0.003187215455726609
0.058117983964127935
-0.017932059853675072
0.004314498132644604
-0.017691384948869092
0.025179563226865764
0.03247487369299688
-0.0014164067142785673
-0.052751892518460575
-0.15444433870435229
-0.05099068190514162
-0.01096886327217925
-0.037744764730767696
0.024407119614750554
0.004099385351940817
0.001070898285307337
0.0074872760819638395
-0.005818522043528781
-0.011529955873370992
-0.004582489609741465
0.05001806101953939
-0.014418946619352759
0.08715612517297847
0.08189877877158472
-0.05537907929341737
-0.07699514035963326
-0.03624542133754673
-0.008122191682771493
0.01152695845073054
-0.0031194076246606446
-0.011030094485153035
0.03557086390082676
0.009820700285985464
0.027157929685160297
-0.002335819986080616
-0.00690146836217635
-0.007518984031390629
0.004622578547930393
0.02770931407481943
0.045618182213186635
0.07584025864182053
0.01622115679062271
-0.02588198548825428
0.006930576382560713
0.006637711729588713
-0.03364411721096663
-0.004591358108369686
0.016541598964819677
-0.003448505884963555
0.0018549448632822236
0.00768291967729138
0.015351379459946685
0.03518059330945
-0.03708481686632618
-0.044605682056744554
-0.01950455150682547
-0.05218897579861921
-0.024041066858227562
-0.008987469644851713
0.006499958360992647
0.043845602124478425
0.015769586788831204
-0.022963536265649228
0.029317370536110682
0.08739917167849064
0.05915106371650393
0.033870983567956627
-0.015125623950511142
-0.0074457173354553945
0.03613805857575231
0.01907848468087681
-0.0011348627868652365
-0.040309405355293884
-0.049397361311875616
-0.06178154433332485
-0.0411398550655258
0.0034476784620766174
0.003460628858167432
-0.002739282711494707
0.012337373342858131
0.00015579165030796081
-0.028397300922969576
-0.0008732583381607308
0.003901258487808101
0.007864214564537193
0.043864599705111404
0.006134125318196206
0.006618341808320733
0.0009487170822029171
-0.0305847511749894
0.04103131427874929
0.02218391289120835
-0.0069301480582000955
0.03754732259375211
0.03449530495534957
0.009019332411971389
0.016293048153378762
-0.060621839250748606
-0.10321658234502429
-0.033741117768300743
-0.00012435303176465154
-0.020716897492046388
-0.06466822714863593
-0.02129947442308786
-0.018812527596137645
0.023363612041906463
-0.05902703999279163
0.017479351694501
-0.017092980428187042
0.004192604543823644
0.01965600641486992
0.05495329460180948
0.009544100995903953
0.025032349228349154
-0.019252799117202995
0.0002278357360836357
-0.015388564553187361
0.02335676520359288
-0.01094596796766168
-0.062349492219721886
0.06329602665912325
0.058708211940367204
-0.008456922481089459
0.012847393274639948
-0.03950459424362855
-0.06046621770759239
-0.045846053148663635
-0.003511109868903828
0.03398484417973966
-0.11454895571875327
-0.04267011251093137
0.0357444950259198
0.07202747902583616
-0.05399831851916401
-0.024601875414850975
0.030456245922816504
0.12866336193371064
0.04401860001358496
0.018500633487484226
0.14727379427164314
-0.018760352947906723
-0.010946457393312636
-0.009931124589328263
-0.008381767262791655
0.0030529901587069645
0.023428414770139166
-0.019800419583210736
-0.00399767937745701
-0.047281144607266165
0.054002444687108526
-0.013866764654726622
-0.09456889032414414
-0.040924889566135485
0.047418163048149324
0.0255638650949663
-0.016390768697551208
0.056294746345056886
0.07946802514707396
-0.011820446359905543
-0.012274824316242059
0.028816086142066617
0.030360434138353296
0.04372674608065101
-0.0195049675705328
-0.015961363696286073
-0.009250016344181614
-0.0337441456787099
0.026660628905363304
-0.026617972749345513
-0.007593092638016989
0.04620760290115189
0.007068632531988443
-0.0051743092883772355
0.0014225540779004122
0.002704736899797788
-0.004153834003118052
-0.04206860089716155
-0.004624500005224523
-0.10021007995818118
-0.04735457266273794
0.016968167043723486
0.06222713619492646
0.016675036469144835
-0.014020052669613507
0.018473649047629503
-0.025047599129591595
-0.017755263000460528
-0.023962894032499505
-0.019326379329549045
-0.016512334875083322
-0.009120885972849902
-0.011496751612332462
0.031382582957414765
-0.08442916531076704
-0.0252291498479691
-0.0617724982527138
-0.009968014176946568
0.01773057548930743
0.017101981952497104
0.17448261825024655
-0.01970512635208617
-0.02985400209921229
-0.02196477537506975
0.021634252964291306
-0.06652287495526736
-0.06560969138444539
-0.00921374096681054
0.02168161192658454
0.04419687345924411
0.04788829443317514
0.013787453714039343
0.07592545775445907
0.0202805056909789
-0.015265194616071011
-0.010823982064456863
0.00864242576920012
-0.00866113308948387
0.037403461532192026
-0.032001406167824965
0.03832426215019441
0.026805565273449603
-0.02642200009510095
-0.03360462101108155
0.01048212790070769
-0.015448387631811496
-0.018391485430268636
-0.005133034782269514
-0.016054618960242847
-0.00734735144890784
0.007765441097336537
-0.010947850187965043
0.02191813709531512
-0.006177310699802498
0.010117052778050738
-0.0011100244061241563
0.06744700543251386
0.03792252813845225
-0.02459500304889734
0.009045831868548963
-0.019186005692467523
-0.028158149403345205
-0.013097619858371727
-0.027931653270936486
-0.0019862846900026037
-0.06150639616581059
0.20543919267596003
0.14538474543512878
-0.08462818177197465
-0.022220044785039354
-0.01808050726637931
-0.03378897094647312
-0.0631417058608639
-0.041549969500733086
-0.05114245677335248
0.00794627402413817
-0.00029031454327303
-0.010757908230977942
-0.011044001627016999
-0.006431285452064799
-0.01277359128204227
0.04521144488696841
0.0034187133803502676
0.007670634059866028
-0.026556541684490287
-0.005116722340785496
0.0010367132995627163
-0.03175994422618187
-0.04983850440675639
0.02194334258211704
0.0018668917986527913
0.027821498002168626
0.01648884713698215
0.009177533403765302
0.004336378268112178
0.05832005311394099
0.023415019461745564
0.03993858454988344
-0.014575209736724954
-0.022042194552440626
0.02084838028315589
-0.006196357179532631
-0.011384377388733758
-0.004770166182417002
-0.011895450899000324
0.009524179423064234
0.006598448300446019
-0.0029652509297721707
0.0007488400945823926
0.0002552866832300644
-0.022368555808546967
-0.03988986472491752
-0.01158130146596016
-0.030184314640710867
-0.03151607303845436
0.004488079900283578
-0.0077682109583282035
0.06224133790424415
0.04577861304058268
-0.03658936048476925
-0.012050761611111252
-0.05264198344709821
0.06572100996281997
0.07637793933913893
-0.01543905491521136
-0.0065917343811228105
0.08532881543454392
0.07617961424868294
-0.08456605455855662
-0.02133139267447764
-0.025968955988606882
-0.031390282682250054
0.03148526806449508
0.06347755820557624
-0.002711470804638778
-0.015938930611500333
-0.03109902496311465
-0.0029205443918046796
-0.03211603364237789
-0.03569732384489391
-0.018786162280806713
0.02830688657284659
-0.06323557498836395
-0.024114127546821375
-0.08848323370061857
0.004926302230332328
0.0249454061263817
-0.03632734174672987
-0.028364144369424818
-0.010915485104948695
-0.023088924733390734
0.03541470981652813
-0.023680915769605987
-0.012228010665540858
0.09176121370318556
0.04974210121110869
0.11326295243011616
-0.028391804366298158
-0.007835317971515874
-0.008364465801616889
-0.018334972982666325
0.07210610431790392
0.11284588869704823
0.004423943502454358
-0.014710761588226935
-0.0023985967758916407
-0.016253108978064316
-0.027978806142564573
-0.01124511927452821
-0.019450043305937657
-0.035378669832294644
0.020908486108463336
0.032947117260438266
-0.01627673695647976
-0.03834422974148452
-0.015768223498530073
0.0003925553181366098
0.0038815563607996657
0.013265845552564763
-0.031079562833949373
0.0414142657198847
-0.001482041735552073
-0.023798445724162193
0.004976910545587474
-0.010917473693362288
-0.016505354220251876
-0.01415203805983142
-0.047645983815878555
0.00755862260764488
-0.03304183426796948
-0.013627442237461682
0.1339511608106846
-0.07861836754099212
-0.048583890993825325
0.07718416657870288
-0.001850134679025516
-0.003075024383330519
0.0010074792530019889
0.039827087737229025
0.0335771513879419
0.01701616520608702
0.06047444035239328
0.0553210195248373
0.01216956160280025
0.01563390397679435
-0.014851525131404437
0.0027091463258504997
-0.018526812436074142
0.06682078648161914
0.03622012426154454
0.01968643329356479
0.023829559457093304
-0.0030177892147035734
-0.04835874339849358
0.026610995730683103
-0.013364803691327299
0.023728580342652097
-0.03566818320395562
0.033763268335457224
-0.2492987853517241
-0.18091198498049063
0.028756330319752832
0.006049505718111683
-0.0917751727015814
-0.07633825480182527
0.023066940315347787
-0.046440992188000726
0.009742104480275645
-0.003569697498288843
0.020666243399211755
0.024567857560115463
-0.007190752782286886
0.009057978512508476
0.0017933341278156757
0.03012626618875304
0.02480678264649227
0.00035154667651128086
0.04443959945054852
0.07743478454487616
0.0287771004253731
0.020450701948921953
-0.004081920339388791
-0.026119412536232806
-0.0015419465034424995
-0.04656812913863591
0.020722912236871237
0.03229792755872488
-0.008571547741724618
-0.023658465989193467
0.004104808273253627
0.03594592498535382
0.006499321400645786
0.015443937484352778
0.0313857364199173
0.01644180534065566
-0.002947766475556574
-0.05813419162804961
0.0016862623446897457
0.0006930419651782046
0.016283149754459037
0.021098985112896665
0.023732219006869875
0.018690608693744417
-0.02558697390621182
-0.031901809608251494
0.06431122783574922
0.04946790817929327
-0.010147013711691742
-0.009834123494567616
-0.010248383117437485
-0.012342667099374793
-0.03368684704515817
-0.002267189408879907
0.005338411111108707
-0.0005526815282904297
-0.01875324323998865
-0.020373908812048844
0.010046948305246488
-0.01845477812652911
-0.047486116874404974
-0.027072703772484465
0.047296833521084485
0.005096490197769362
-0.010685144655545493
0.00704551857056049
-0.023513919158593435
0.024487068046694475
-0.016050191535647837
-0.023853811595678395
-0.03501597677301355
0.014240384902206893
-0.00243451688896117
0.04426908061465363
0.02823222248692431
-0.04725279118606386
-0.012234967423524831
-0.011717744851223224
0.07123929486980218
0.08046658546024797
0.008555375190954789
0.016458199982608872
0.04560915973547408
-0.021468935284148814
0.05174999794535518
-0.014919772877207258
0.018436173230305417
-0.009329717566937921
0.03666211115081727
0.03216908150554638
0.03645814730041808
-0.15125935598372595
-0.13278029057562496
0.015010004697754029
-0.02556666571129294
0.019735601796861332
-0.020232263978029737
-0.009774497345561618
-0.010671592270975073
-0.054846162804705674
-0.01732302446552663
0.0021113777469461076
0.08625588866074467
0.01689405131595745
0.00037379245154743493
0.03334469772473933
0.04234126554344809
0.00504792449196465
0.013837160938981052
0.021656771100282586
-0.01572771105320138
-0.047972424582783946
0.009198973746034358
0.019574720377493294
-0.015990321478275987
0.003650958048613673
-0.00781551651582601
-0.03463966539874433
0.09370810448949211
-0.011996363800012705
-0.03606303473063385
-0.04753026878649596
-0.04246723163215722
0.009097867942584981
-0.03235473018838299
0.0314980801902848
-0.018531566795167296
-0.011852326688708646
-0.027420613494449915
-0.022211302158742986
0.011254471476184828
-0.011793220330639818
0.016226624059926715
0.0454036033985023
-0.015530798681091976
0.004581662660317897
-0.032166656369926834
0.002482641424555224
0.013338034605302482
-0.008567010969601555
-0.0036930012382738126
-0.026353027919865695
0.009369558838820924
0.02310208027882238
0.03195656493220489
-0.03307653022562087
0.013418865335152673
-0.039633449456040935
0.036352512060234134
0.06760932070250378
0.04305858245215912
0.010048326607087585
-0.04107547120563378
0.00962959880413162
-0.03328025730959149
-0.062013991034404234
-0.008633885037210865
0.039461660560891995
-0.0065503384557950625
0.025524568768768238
0.014554822526227053
-0.015911207184981582
0.018558485929872436
0.026138182461591025
0.10518380060750346
-0.010348927945625853
-0.019927196470985748
0.02564205848926048
-0.0169711934676453
-0.04205572667925198
-0.0034783502943162656
0.006283099950990972
-0.009262871168545577
-0.013532843738519316
0.01196431754287947
0.05604674496933911
-0.031103710420131957
-0.021656426102218452
0.017294460445808756
0.00034124742099863914
-0.031491804294554226
-0.00813629426292294
-0.011397036669842037
-0.006993243456806619
-0.016723474837108523
-0.007040558957355554
-0.005034734113111604
0.007959832372862635
0.026472161366158434
0.015858184126992317
0.008273536058604753
0.015953684624281164
-0.004081128702260779
-0.01653665712527293
-0.01593496489351257
0.04889504529636323
0.015428810672230543
-0.034341000450569446
-0.048705880368026346
-0.028150628199438775
-0.01533894283347567
-0.01704428792990631
-0.02439761395174706
0.011374026232594878
-0.030311197434830458
-0.015904614809417263
-0.011375506251789291
0.0367225506874825
-0.050613521640440196
0.0699157837687224
0.09213538490049825
-0.01627111673096546
0.004572429442262586
-0.050020129628666
-0.012382574490650671
0.03545735063309987
0.04090008432159724
0.026786940334977277
-0.031431782766379576
-0.02712242844858762
-0.012879432169956039
-0.0057976958375345194
-0.014586926617366781
0.002881992987560834
0.014036771013982607
-0.009376689511510555
0.003479904213016841
0.06848839241998653
0.010533246439612612
-0.025910304432368584
-0.011032617150653711
0.009511008945040995
-0.03333992004993472
0.0003348764133820334
0.014724777427457696
-0.008095203133567298
-0.04616371949058687
0.009653114629971675
0.04031376799869123
0.004255286982625135
-0.04435995244442816
0.10787509243962451
0.07246950284160363
-0.02706673886133211
0.0030939716878470437
-0.06271867155559434
0.007986474846455552
0.02655971777318359
-0.007321788795506168
0.008997822243406206
0.00332448612348397
-0.038119446631108334
-0.02319893830548407
0.029514707921167765
0.020166758816048767
-0.017387728101818958
0.006149005147282264
-0.0046227995234823386
-0.0001501626731560144
-0.01657871185848949
0.004465286467298939
-0.013355373903984244
-0.0187572717895121
-0.041742775453370226
-0.06975375023906798
0.013243569529717555
-0.023788263475430383
-0.029227272974206134
-0.01184329107098058
-0.030205326568116808
-0.030650908372023184
0.035343117835833854
0.041543030779375996
0.006528456608575078
0.018084094101525203
-0.02860928208969419
-0.024824440171928693
0.05088772456713474
0.0077041906385053455
-0.030098059802035813
0.013256100424013003
0.04851880558836245
0.012450196179290792
0.0635232313332247
-0.0152750334229362
0.08525902848485868
0.14757158005613064
-0.05019469852905169
-0.05667766999740479
-0.05366055465615053
-0.0057525237049499
0.007384400772335796
-0.0033302645053583284
-0.001608487074086102
0.04571394397623333
-0.002148923860037633
0.007348024323829554
-0.015743008769669175
0.005041147199633123
0.009212032976130831
0.009505425526956214
0.0044314137014242186
0.00356402905443916
-0.055214951513979864
0.03093831767491573
-0.09917420503745612
-0.060583884028168826
0.06428070267670029
-0.0041157348183323925
0.01641828564718953
-0.004883583202024622
0.013810389928495058
0.011887503554886304
0.015272684343014284
-0.07139070319626169
-0.04824305581368584
0.02270429542963348
-0.04454378696592044
0.012824192876103363
-0.02902545125310274
-0.004433204380687482
0.005098433340709019
0.006397372572963478
-0.012893109364916078
0.004480280134639424
0.001608661860839085
0.013412066595389785
0.04946401238290908
0.037725545395649485
0.009271024666883064
-0.008258996265621559
0.02793870012256657
-0.012909386429705171
-0.0013489410208660576
0.04253214832222292
-0.036084385313977056
0.04243849358547094
0.006390717027735571
0.04010468028561227
0.07165800567029663
0.012062522858605516
0.005597348109835821
0.052919709777166604
-0.09741878743871804
-0.1587230032442081
0.0014756698745553248
-0.03709754315005059
0.03655771501036759
0.01624684343040333
0.07039062960105674
0.027953559600316907
0.017719637245474453
-0.09374615335682455
-0.13207025566111297
0.05660151234750412
0.007952537899047511
0.011354994101146954
0.002528127925382904
-0.012645429670069113
0.05347364432475999
-0.05445907131438674
-0.09108567622144138
0.01746894408983313
0.00941742013689232
0.00866061814087837
-0.04723330664394123
0.006703758182322428
0.02605486778222967
-0.0018337862821347687
0.015440481645825066
-0.037478126150810136
-0.0025189417716492
0.02886829935143825
-0.008725801217696755
-0.011846648111538526
0.03812893308948655
0.0747904255695832
-0.030490102818435286
-0.034829282071618665
-0.008973952983193178
-0.006512296776695138
