0
0.007328925694475458
-0.10455200426194189
0.004877519729336852
0.10228733597864138
0.08403158681597225
-0.0181813252042095
0.012959889165529226
-0.012505754541790818
-0.006331008675619381
-0.004819315453449746
-0.008181929759710518
-0.042367578627466145
-0.018132719610489418
0.06683468106486803
0.14596376530114344
0.04399370909810322
0.008495466431119491
-0.012614460492384367
-0.007206320134459894
-0.047830792871867846
-0.014515470606279078
-0.004575478921002604
-0.04709072709468998
-0.005245397700546951
0.06775651263976425
-0.0008178989058574837
-0.03786674405572641
0.07770352835374646
0.07818486115499725
-0.09389541188257651
-0.021555542249682483
0.004925471444231555
0.038054728874847406
0.01570710483690429
0.021606128244490982
-0.03034917729936281
0.007490098774656849
-0.03388863277792918
0.030686744715509987
0.0015049188731740108
-0.05640647122469956
0.031042191576414482
0.013862640145011016
-0.05250643689995903
-0.04093127285847427
-0.012110102150998257
-0.002534875535982894
-0.007473352591100032
-0.03708411771300302
-0.04880917893324939
-0.030109139183008084
0.015922021929628036
-0.037950672827815515
-0.020962334481418668
0.03260812522050164
0.005624364379122534
0.0027340606564166146
-0.00045008378863087755
-0.006892544586648917
0.09503147245499938
0.03480748974785291
0.06867463232820475
0.12237382787673004
0.015872112882887784
-0.04160883252555955
-0.028777036884188978
-0.023072400323830216
0.03347008277885754
0.013743436807933263
-0.0048735927390544135
-0.022379508081447556
0.01713542179448207
0.06909765781980323
-0.004828712358659296
-0.003573613465734266
-0.010811909243822014
-0.009421106699177898
0.0012310893251602903
-0.05406186745408056
-0.03403992872150222
0.00879705870916232
-0.0221762900461797
0.025506198442400013
-0.013031309450141072
-0.003124845620311065
-0.025152568999884398
0.03042640362432637
-0.010160850792876043
-0.04370462052157345
-0.013860522433634568
0.0020310119352001717
-0.08179269519791782
-0.03613372309634912
0.015181075043470427
-0.03773454704381146
-0.026791379468263838
-0.0064222673492553405
-0.0007674897784119915
0.024076189639315917
-0.058112463546612994
-0.020340461224781524
0.023239353681169937
-0.010587811011818596
-0.037988829828926415
0.1341104660902795
0.004175393701188665
0.0034660295636803704
-0.0026959490791356746
-0.032374799577460575
0.04929460729547861
0.012091469804389412
0.02754190244833803
0.01602870010521326
0.1128680623952378
0.05610361406676978
-0.03634792342625748
-0.008206843176059915
-0.051808895201965785
0.03725907387048012
0.024558945685971032
-0.02157056837639373
0.01695725865940278
-0.03637526190014387
-0.05326936518510182
-0.07241880654155378
0.046325908576581705
0.003347379617218024
-0.02606159817518919
-0.028727933095289284
0.0007711399876086753
0.02041690068407494
0.0026360096173850688
0.02004283957131305
0.03409973660475504
-0.025206880531234765
-0.03166261021255481
-0.028360474403402083
-0.007770938198822518
0.022160480677428752
0.004819053880943884
0.050380168134490304
0.12658847835536555
-0.045645400144436646
0.023927169293066132
-0.0391585327339096
-0.03653844119035803
0.01925413057161051
0.007150011117381647
0.005396222423798545
-0.0038107731761857075
0.06511875103582764
-0.0023667706182796478
0.019004162314538334
0.0027311042900263886
-0.03299394726485428
-0.032106340136291975
-0.003071512175480582
-0.01802946468859525
0.005787878261084359
0.03855772813412414
-0.0025008503972625863
0.013645873145283267
-0.03175032831378838
-0.04055562592444476
-0.03963511631638436
-0.03311088351229283
0.012693966900748376
-0.009493020344281448
0.014765195579218866
-0.0069306473509256755
0.04289328421806244
-0.0218569865904938
-0.02440650788645109
0.0066304452070969555
-0.003365430577523389
-0.040009042994573966
0.027736407809076994
-0.03142340120062404
0.0019943397581027216
0.010489814895921084
0.035661041719730384
-0.011832593138529
0.046598489596390874
0.030641144851583896
-0.0324210647303605
-0.0071163921054652165
-0.009762094820075702
-0.007014913845463307
0.005789670341800987
0.011966612952548096
0.029315559125709153
-0.018332312825549042
-0.014750730728174177
-0.005587137565249905
0.011537686889856331
-0.007154730200014621
-0.006785552078756897
-0.01629730264755458
-0.012292106082052489
-0.015979132085074167
0.030764581416913614
-0.045239251526400986
-0.045220001105116044
0.08674662860605807
0.07616364333981725
-0.021939150662733758
0.026528205429620914
-0.013354350913322615
-0.009476615331927596
-0.009489503589922956
0.015463358179423388
-0.03110773875701844
-0.019743000465455574
-0.013904601661464306
0.03451540711296109
0.043759842137681935
-0.008882887811645805
0.009352899158430825
-0.054014289824364375
0.018658920566752335
0.02994345366642305
-0.040901785588586946
0.0026112356794861773
0.0144390104004412
0.02457710521791859
0.022145087206583043
-0.0037256894226464833
-0.018749163664434628
0.028065673903431256
-0.19216568393448172
-0.1239296450785258
0.15570491924311866
0.10213003594269685
-0.004742574191289612
-0.0169471275737765
0.007807686286609667
-0.07641746767412251
-0.08232627765408747
0.06043818717849617
0.013062751417237681
0.059419877309801736
0.016720724980476786
-0.02115200966969847
-0.06548620261696897
-0.014228588281841769
0.059695629400071434
-0.0009933330939584034
-0.03160271926950788
0.00861078942917617
0.027989423267638477
0.006885202723350052
-0.04216178535804863
0.012117470319816782
0.017718626670118625
0.006177353146083677
0.08313454992188953
0.0847158669551209
-0.020642298639570525
0.02978223617627706
-0.03903141046096167
0.06882557987493816
0.02603179884265133
-0.03185269121112691
-0.0028074913767114763
0.0013276053776742718
0.02003584351891433
0.005092110174696534
-0.015476839422328711
0.008279846594852102
0.03323990948149274
-0.005382519138113693
0.03225566401964916
0.02300358048953605
-0.025265490342063095
-0.142854367024279
-0.11769384082050066
-0.03660548374715748
-0.027118558772094004
-0.014153605896935874
-0.001974626707060491
0.07187416689964495
-0.01122403332109585
-0.13628270949484653
-0.008934917196293439
0.021696554768695517
0.013471982864741704
0.07709387663772495
0.057887031460264055
0.06576646164544488
0.036329597368296
0.003202001272788959
-0.006839725314367435
0.020781628694513277
0.019926158197174502
0.029634460215299894
-0.15139783843659596
-0.041357960949349105
0.04355361084291533
-0.006007816381038504
0.03627553682508349
0.02350152636953763
-0.006319046794007065
-0.014096313778425294
-0.007887624291904337
-0.013698314872167409
0.0026282168431795245
-0.0707377453548235
0.015453574699816307
0.018331092563289422
-0.022153423475496353
0.0037243498406595438
-0.011351514638838664
-0.00039279900157001375
-0.00295215298531637
-0.03288327659168222
-0.015051046071302204
-0.011327272982652507
0.02090666133040693
0.09763088547079433
-0.037296515250622275
0.0074771118495680225
0.00883983571007776
-0.014248940926222938
0.01514135921392528
0.024185871489502398
-0.021071885934322465
-0.04899861083524867
-0.01593909581562539
0.021783265029464205
-0.03742460589939672
-0.053546618236009855
0.026096046769095566
-0.01649049680474373
0.05271753500933051
0.04498147532225639
-0.013724577055117043
-0.0034563610566008722
-0.0008435984063669224
-0.01116136921431041
0.1407592997447831
0.09101446180733466
-0.06331653616042499
0.02220679801315896
-0.016256790529467022
-0.004441248480429997
-0.06776174491750468
-0.08556209216694804
0.030860201474090826
-0.030310680890311872
-0.03161703463368682
-0.007939555809610511
-7.048618358766283e-05
-0.012146221745014797
-0.006423336514340883
0.04342009136293857
0.007442594284226781
-0.008315228557691678
-0.0440705949008308
0.0729219367438339
0.1401658583582324
0.006320055537653569
0.03729942233799663
-0.016885461485437767
-0.038724145243879446
-0.019646387678864244
-0.00551509134666934
-0.014568287074866553
0.03703573943437388
-0.07210840919140704
-0.06313887770720432
-0.03194251840571644
0.005390678875898912
0.007612490768125767
0.059802042806415275
0.03786538699276325
-0.01728135813344466
0.056134948737508204
-0.016989715599455314
0.04323120330848677
0.025861900486527818
-0.039809666157795416
0.0032079447517437717
0.0026587932474789306
-0.034901508726792985
-0.03418544567083673
-0.004779433236618088
0.07637495846910884
0.014773439793509837
-0.024076955812545
-0.044209053307531124
-0.005112138487317056
0.012662707316824251
-0.02364595035959321
-0.02915799194751792
-0.009083648608692384
-0.026093859863411926
-0.013941839055836533
0.041101768868467975
-0.01285665420355613
-0.015792026663232855
-0.043163113601897535
0.06283139259522585
-0.004888243503683409
0.018760722265118074
0.04459388814629816
-0.020729685377468287
0.00878803715999248
-0.024857160605013636
-0.06044912218794902
-0.011053847129831096
0.02952334119014977
0.019244705728919932
0.06021988883249455
-0.04249281991212144
-0.0803869439211825
-0.03976157815191636
0.1008350766201625
0.06902286664115662
-0.017757662457322895
-0.013763734957522377
0.01803744367717399
0.10165862966130916
0.005099420077949528
-0.003943613987851204
0.029761140889552135
0.022235083490015878
0.01740078462371686
0.001875215466883363
-0.009783450953738332
-0.04306789208576027
-0.035114450617236524
0.0650826115275505
0.03569321591639978
-0.06841521423313407
0.030616756283098033
-0.09162657716026151
-0.12093709979354204
0.04764421195131603
-0.009152524611272741
0.006777532349234065
-0.020524455742792727
0.01919483138320936
0.003934557507203733
0.027366976427461265
-0.02524563487201822
-0.007777679240967003
-0.03189348698546618
-0.049780098097345744
-0.0005662234101480873
0.036482978935855365
-0.02956032472941047
-0.008346329340639095
0.0023733017783772368
-0.036724619590238115
0.03219081618109539
-0.03469591980809688
-0.029771154076944525
0.011870449367005114
0.036647213854061965
0.021945601231798284
-0.02735656813309107
-0.004721540604927507
-0.01827914223119102
0.014648828533355035
0.05708597546191256
0.033942691231463575
0.00807526060711015
-0.03860271263933751
-0.045063350620050804
-0.048190532692744474
0.001603155078990598
0.03704953189365683
0.167788306226972
0.024146315988974917
0.0009365970857529054
-0.048482104643520624
0.028245227990615265
-0.006778473324913982
-0.02018310103231258
-0.023583362474905882
0.05144633731121128
0.0860243149095405
0.0032446469354047765
0.004415446339844787
0.04198019779912257
-0.09448180162679054
-0.07785930612899153
0.04441556727457743
-0.0009362623586566755
-0.08849326210885408
-0.035458894361572284
-0.015339257266003343
0.09928450864920434
0.13807513484544345
-0.18383456271222406
-0.052669441199838476
-0.01850958989060068
-0.0036172314387125717
0.003533950401478707
0.04522875576757398
-0.0034379052697249297
0.047399537286243666
-0.015554078962624687
-0.029655962711336952
0.021592201654411898
-0.02245079633568919
0.01115854973291034
-0.0031497180349548855
-0.011840604445930913
-0.027294354349242787
-0.011295494036101741
-0.0068496231726880435
-0.03294151971146012
0.019154630299220477
0.07857157576108145
0.014299105577644624
0.037937992820215136
0.02217769632455812
-0.05109816403321751
-0.005880732011235977
-0.013889861032754611
-0.019278755100057707
0.013967806961182116
-0.016405211768225177
-0.005555307586243296
0.03596853112899346
0.028837796424839284
0.0016575580793312817
-0.050658206658542614
0.13184979197972269
0.04136183423458897
-0.004827715132682292
0.01516469283252309
-0.03297207177333096
0.02878004366633963
-0.06953602677442228
-0.14418997275738302
-0.020706941776007095
-0.005591575351524165
0.013348912779661415
-0.006370280908033959
-0.010029004191509096
0.01910472841777148
0.04039762024513748
0.01513435652407257
-0.0070497175857538565
0.004960308187641347
0.01569864386254807
0.005854333489385898
0.01730862642505228
-0.017012925748029525
-0.009691388229187024
-0.005207084315114357
-0.01280436190889793
0.04248763337099342
-0.0038286217731722458
0.020893174155243038
0.11756237781832439
0.017096509193505163
-0.0352709435216036
-0.008809413701648422
0.0010469908220519578
-0.020643113860214383
0.009471999081971173
0.009925306038826272
-0.0005754587023560838
-0.009336141173857613
0.015274323231031646
-0.005549465134737872
-0.017765575490229935
-0.0014602645488883475
-0.003951316639005726
-0.026426442180977134
-0.02135809308005595
0.00010130383409281638
0.03756942207950645
0.050458470658402844
-0.005059398529445133
-0.003939934458360883
-0.02095233957370923
-0.019575102904082663
-0.01814837284846416
0.042010503500636044
0.017122039325140937
0.009453134011427744
-0.11814433127919946
-0.0962710682177874
-0.05546408150924846
-0.07379493818031711
-0.03516066699868713
0.02121411456818751
-0.01945230317045639
-0.012134321402636518
0.012793683153432885
0.10824309705043465
0.08756893913104374
-0.04901999384876932
0.01458437327707173
-0.011257624517591346
-0.006948549731436888
-0.025012927370623245
0.026001344956604368
0.019266790272773893
0.00957222890351462
0.02665899640809409
0.014448300375483265
0.009268900408645102
0.029320852519852055
0.04845409126920779
0.010880432546208085
-0.029595587965882304
-0.007366309519344835
-0.00519064431890316
-0.003629940452931662
0.005370357463278872
0.005495814945205889
0.00823505986401313
0.008068725334121108
0.03831146279626777
0.022346482314259113
-0.007795897689874123
0.00614357368446277
-0.0004893593628825498
-0.027836762919006566
-0.008478191560467906
0.07799333122754888
-0.059259298740001166
-0.16467214018442447
-0.015882271775311423
-0.005625443717688644
0.019909772255120823
-0.05503227949087603
0.010330472023524728
-0.013311011457489934
0.022332846721302313
0.155219406266968
0.021945692634810852
-0.030465613060598005
-0.04573923706169301
-0.013888472660503824
-0.011959270229554233
-0.023179208930961596
0.006222760894933297
-0.0634387669611668
0.08903926605008985
0.04088094879470655
-0.07014835893469712
0.0021193322406581044
-0.01606892956653431
0.00862538439316788
0.002896110830426211
0.003571880517721585
0.0789138421846466
-0.03232475577004483
-0.059085921470765905
-0.004591500835427973
0.021039589880748586
0.008140476546669655
0.0018150179405022478
0.004698234027625459
0.003381806662068961
0.01348582079636866
0.009995670257140014
0.025400498102000117
-0.023986041377165007
-0.03705866304478598
-0.00887642220750225
-0.007736679850393964
0.015103189283205943
0.0016917527463367163
-0.017793957691796612
0.0022745500737258264
-0.0082074041982721
0.0048499909376690485
0.029390416657452723
-0.027579838884297596
-0.10193970275294506
-0.027860731666949926
0.00946347965079901
-0.014546483506965961
-0.01903503010461116
0.07202716204681546
0.12226854727153738
0.12692319415850267
0.014870668923408525
-0.06865891966527529
0.018279829585858214
-0.025202427150524436
0.09096404338215511
-0.009551874262734291
-0.011286581422428848
-0.008138813782816083
0.02886005186217364
-0.011369036947779607
-0.0025058882252798403
0.07581331219407761
-0.011513024658994555
0.009852121979744978
-0.00585687094090801
-0.03617139168378755
0.007191127608847698
0.018066531445206854
-0.040509372473680354
-0.06523237210914652
-0.008414998911184874
0.0921068005023165
0.010438865179966072
-0.014618846325833794
-0.06314748803965343
-0.04387902570152153
0.021534258508903593
-0.06020120047740975
0.017720751038020024
0.024495072077478544
0.007142017790742642
-0.03951922632834883
-0.016577619971059308
-0.03108920480439792
-0.024354033358357334
-0.055463652103229545
0.01377815652998268
-0.00961390779620709
-0.0347948364255559
-0.006300481933948997
-0.005725761256497132
0.019933483049960333
0.018814386028330823
0.0395219354018764
0.054981232142417694
0.013775947256125395
0.032606739935037245
0.022004548566974994
0.05557836022476025
-0.0071796488035773855
-0.02134851099803377
0.007253816486862504
-0.002962784806599241
0.008745994765313988
-0.0028881878584766534
-0.004576354623773143
0.02414028798114467
-0.0037133603369590884
-0.18880940187555342
-0.034843755005207
-0.0006325145020504991
-0.055579148689882674
-0.003470066036677896
0.049075578479025606
-0.0010517974171432192
0.033337933758742784
0.12057572098542559
0.0074663819903522735
0.026412318715143386
-0.008401418941191842
0.024812666298203837
-0.0008036821042249591
-0.016883682283674054
-0.0025866641422302365
-0.0018828493154291108
-0.032841039730363404
-0.019851690033458158
-0.02181210237442231
0.01287621253819193
0.02960086352738011
0.03991212722000788
0.012595301848892909
0.011526702601543592
0.005359194779512626
0.015906092413618855
-0.12733734753133089
-0.03163733655075778
0.0022892292408866
-0.004121181138632427
0.022654536048020358
0.002419032415780748
0.010925472045896806
0.009894965514887418
-0.008345076425092296
-0.022729735254744435
-0.00774814391230534
0.02647562830525932
0.012003619327379263
-0.0017214913636511891
0.017059399647024503
-0.02849317864304128
0.020190665734450414
0.014554852031692019
-0.02457416046353549
-0.031006296874033116
0.027784147411771584
0.02084326576837142
0.0061742254761685995
0.04673724409871768
0.0009582300866577522
0.04745949231435312
-0.03147049163592846
-0.14637442589089317
0.028521746735256707
0.009733279786300597
0.021591375314408603
0.04477133963430991
-0.04113533248277584
-0.0037133762578371093
0.030466077640218005
-0.016207476672115275
-0.009792866176763101
0.045962606442780204
0.025134830574420987
-0.01000328439413004
-0.008465379076277075
0.048469943180361505
0.10234789100545602
-0.04231821770440119
-0.006977388767891952
-0.015836552373699672
0.0016889923611882007
-0.03624467091721468
0.017056084537839432
0.03622382360300661
-0.044941494260925856
-0.12324593228837125
-0.05664546797210706
0.03105683807426393
-0.0073868160288235295
0.044061309623696025
-0.10046769116126056
-0.02121195588594081
0.02893420014128903
-0.022957622230032646
0.0016391755024329558
0.030779268267278868
0.05946783638826837
0.019904240697582933
-0.017579402603393548
-0.03215012954655377
-0.04955093155666271
0.008470109291559015
0.03011391746531503
-0.00017149460135035748
-0.0161240143627053
-0.04863034665005701
0.0007421906183410191
-0.039476053478284465
-0.021220216880855725
-0.010704135536659136
-0.0019506147749856456
0.049648992478512094
-0.02011211998116848
0.04004796111360166
0.00031605437156698494
0.016298235687487
0.02118498049829377
-0.00754505350705475
-0.002535830329014716
0.0619606354201111
-0.0019154011198019136
-0.018184851938683064
-0.042600894915147375
0.04572892315992202
-0.11569919059832962
0.06242912844174875
0.1669954445522036
-0.033978305974549025
0.05782132632934043
0.018032197020911817
-0.0346359453537156
0.07707279272235373
0.07154530348808535
-0.0530828101152482
-0.02686737377854331
-0.06595561103469999
-0.022826607573468452
0.034749406095312546
0.018596836017070295
-0.0031853202687857486
0.006189176434699089
-0.032952681046861707
0.022088449748011066
-0.032846687632596724
-0.003280467673158036
0.12729235821124585
0.02383686715258921
-0.019055576733615326
-0.030530002307598905
-0.04131499021417225
-0.014889458385497836
-0.008221106064327594
0.011095016399328826
-0.020577553227291694
-0.03311356562269404
0.029314153371389994
-0.01304602093290442
-0.06086750819510108
-0.007290240741249068
-0.05290481667058285
-0.04072288271239479
-0.04905174989243931
0.04511060595076064
0.01607935699652489
0.016122311075881506
0.16112388890277896
0.04779783209930642
-0.005678338508433874
-0.0059235652327771565
-0.01717124844283421
0.019561523706227896
-0.037372909902143675
-0.0075917796019561445
0.012846310455812904
0.025519043908074916
-0.010130753505052027
0.0036924428051028587
0.035472838108975085
-0.013561517538788466
0.0009253640976144489
0.023734450454684836
-0.03906145311141138
-0.030533652641048036
-0.012649939152254455
0.007785087267342411
-0.04546556281821338
-0.009978467250197897
0.0170972750363355
0.0008059184174185855
-0.03260620121582821
-0.03111178616306721
0.008540192483498917
-0.0032103691486484605
-0.01431832557079498
-0.04387427083775891
0.0032812613784138907
-0.02721615313514789
0.05834909705781325
0.072915951462279
-0.03327358196835226
0.009092307554714626
-0.005351328388992923
-0.08702201615366603
-0.07937173198343148
0.03326268411277884
0.006664401624125533
0.04132830155992446
0.04332347627993786
-0.02450908552171711
0.04162890302873669
-0.015850817004316637
-0.014569206095623235
0.049335815233860936
-0.01146563874316516
0.0397279216580123
-0.04845789507963509
-0.047574492133320476
0.01600997313040911
0.014192353786382995
-0.01699544922957628
-0.030624102331235907
0.010238568529729023
0.02752108819170601
-0.003100007552104869
-0.03128842620337137
0.000776183058637514
-0.013762488003010878
3.777162665522214e-05
-0.03134925358917247
-0.03387198312772694
-0.043079618290391704
-0.028535166637491362
-0.05028373945310487
0.004836964953137961
0.0778338212315041
0.03939535591698458
0.017762888277417368
-0.013398642223251349
0.11536702603042877
0.1361479628230339
0.008653004322202115
0.016927093994976057
0.007974729330600547
0.0032761560420401666
0.05573617021297397
-0.00479594356623343
-0.010970548587504628
-0.031273098507729954
-0.034312570164865885
-0.04676383226694072
-0.014321295752700164
-0.002582999162197002
0.03444529115176073
0.018259414930174172
-0.054909112255343145
-0.01774003677017656
0.018604483965564734
0.01603029125159218
-0.02665613235238114
0.03758898674500623
0.01742312115892899
-0.02588212733115575
0.008214337303945975
-0.01476481109827504
-0.007200771634849492
0.060223326123773645
0.028198261455331743
0.0029034706255063165
-0.03604488831308566
0.059388885100011134
0.08003224083111513
0.003675231506738446
0.012787494045697624
0.04210290637323221
-0.14157414249022457
-0.04716026495981952
0.027272909565866563
0.00679206449905336
-0.009013370695926844
-0.14304578450653851
-0.05462350563656876
-0.04049984261851198
0.020192243334871917
-0.02724226802430661
-0.11254314930718524
0.017945287805311582
-0.012847725083877708
-0.002727323131591035
-0.020439134113565984
0.11070682882571917
0.032442852691084434
0.0024954261412463642
0.0286239756093806
-0.0079108483726254
-0.010531352631013659
-0.002318740671462072
0.02338509421629654
0.02702036421238964
0.016389260843394267
0.027719731877839646
0.038895451478682855
-0.003796262338399259
0.01803973571580612
0.0061759200059599345
0.002340348310147913
-0.007442928719830158
0.007885700543000279
0.07277888307212865
0.09869784228953817
0.1269833886988202
-0.15305011120396028
-0.15760260004041837
0.006876825322229182
0.019476697715197184
0.017291716577446815
0.017199605086589655
0.020561020107319986
0.0020838323271737953
-0.024771080609117823
-0.10906240934645946
-0.02232337892839092
0.010810350111059838
-0.024021627327760427
-0.02891187328581148
-0.0555522184383563
-0.022745337478937103
0.018263401112640302
0.015566245171176397
0.006129941247952584
-0.019389503795962555
0.060717806729668915
0.002735882944606424
-0.02724658821279993
-0.020653927555505488
-0.03981920897792585
-0.01546404076547158
0.03469174113839994
0.005789372148025859
0.013357828806596955
-0.037933060546039774
-0.05250553165196473
0.1076533737870287
0.07847664874070488
-0.02387922105641597
0.008711985911213277
0.017922825263156045
0.04995589221460096
-0.014553168583046427
-0.018730866403230136
-0.003306232689733337
0.04839727207532859
-0.02120839522327674
-0.014427736912159322
-0.03380298759324044
-0.022125187582756594
0.030172612636801606
0.08060935083680276
0.013965123763764
-0.025933479646249494
0.023198229714462535
-0.030947393224282412
-0.021323683692501517
0.03766089379787409
0.007034607048635363
-0.03822735368079376
-0.022602127272206157
-0.012322389680849996
0.008585915136482249
-0.030229795017865657
-0.010003191986071197
-0.03171546169437018
0.045761260659889336
-0.016111056994252106
0.015370142212760353
0.0486505497115852
-0.011085673776499123
-0.06390576343525599
0.015493281588013552
0.005526634214044289
-0.0381238315805082
0.07278179657299091
-0.012267373000696582
-0.023917119703698777
-0.016121445224815942
-0.002913365176612389
0.002268745996023259
0.014969217547089655
-0.02675692978050806
-0.03895885261111586
-0.08259005621612661
-0.025148721958564643
0.1313229322129275
0.06052025790765009
-0.041156731005164496
0.02878923432438239
0.0829462646454966
-0.004047697470616024
0.03624083731679163
0.021782482873225272
-0.03577880466178196
0.030365505255960486
0.031545523854890525
-0.033517811921639544
-0.05502784512135991
-0.004713303542792853
-0.05916575718701528
-0.04934442203105259
0.02908915081933642
0.024286610117230597
0.01220816371956635
0.004150226664572081
-0.05601705239617518
-0.053354293144789
0.006161154070327934
0.018823622504115362
-0.004567700944338158
0.01684424205287298
0.007378863555571742
-0.03005873621251857
0.04939563709278778
0.17570840920247907
0.00958664127099057
-0.003619149200872282
-0.010129726769933178
-0.042858394279430154
-0.00255310553284107
-0.05421761166254405
-0.15248340878658836
0.12551221081126726
0.014429166779070045
0.04280493875021022
-0.0077369099256240975
-0.04311471227816646
-0.006728979324744779
-0.015786973103991634
0.03161883823639391
0.02202193086655614
-0.07216321722284257
-0.03893658094046939
0.02346994611158393
-0.004409148025725304
-0.04640466490198846
0.01946956070159318
0.03254128958574609
-0.011469219406893147
-0.022400484428417276
-0.019840713125567608
-0.006826345139463357
0.005629705799628614
-0.00696320522654654
0.028700046893663626
0.0519766772069477
-0.012838901678994916
0.03357445919664132
-0.0023519727592143623
-0.020669929471289743
0.022709446886976237
0.04189451683657865
0.038091423703376946
0.12725449879887113
0.04176075800015531
-0.08471598421544915
-0.062123320226757636
0.011413902862447133
0.02202854413262609
0.030337263345474836
0.021015477326994124
0.0069168916548262085
0.002825255553945571
-0.006915449025452532
0.018212005546929737
0.03616790178563325
-0.02299021793378003
0.023309090559636515
-0.07838441111868964
-0.07634558887146815
0.018897585875169657
0.039306310027186986
-0.010528432732392443
-0.03903508751679115
-0.15492848578830334
-0.02814365169280673
0.013050520023735638
-0.07629593571889885
-0.020212665540150575
0.008316730882899855
-0.005330044785157744
-0.02438641839144725
0.014633256301403462
-0.0691808613207864
-0.07424363977596644
0.01587592577368832
0.006510583186198414
0.007436904454680849
-0.0027652931643230754
-0.019295544845675163
-0.018607608512164902
0.08252846032681589
0.04317112832162089
0.07162310674376163
0.038695956216413516
-0.07589789296096598
0.015258550114285554
-0.02060928181284518
0.12416372919459748
0.1048693472077896
-0.020811163645096175
-0.006945040173147245
0.0074508731092262775
-0.023857941286333333
-0.019785311881040348
-0.005910895690412549
-0.019442755338177825
-0.04511902631746373
0.0924020187556245
0.0768631706802679
-0.011797753746074748
-0.010991931983963721
-0.008383208374466915
0.06245847415705638
-0.011425127796067212
0.004857234355677363
-0.02262690248384561
-0.016156430668622202
0.03308872402155758
0.004053470735377586
-0.03005161743624788
-0.03311249531386275
-0.03028531209629439
0.01953903631013256
0.010843191039059893
-0.00834494405856481
-0.034475875041602246
0.02844549499101292
0.019530063637852035
0.002131248214939573
-0.04838691678521209
-0.03873073865224167
0.0060173887092576876
-0.006369524228559847
0.08174841226608655
0.059641843427839236
-0.04362121956918712
-0.0026802775721801245
-0.06395970448339283
-0.04676091580249543
0.024226230398456953
-0.013761709587237561
0.02503559148435589
-0.03598657920414789
0.016599933220200175
0.003762149000529154
0.06759669139348556
0.03214524106054272
-0.01735047701022867
-0.027119419493744423
-0.003402492462823968
-0.026415506583111734
-0.003589096415564588
-0.016287490434805568
-0.02592829529205559
-0.00684095545061191
-0.039208893541961144
0.0025828923332845677
0.004946808799054763
-0.018949677171795416
-0.020629007298774923
0.028795526940330534
0.12072516853481967
-0.05121000921493924
-0.018949569463281715
-0.009725469475523194
0.06401494419517308
-0.0029387876381513646
-0.041433152961249914
-0.0038922581811990757
0.014156357684153893
-0.0023504397107091276
0.042286230804232765
0.0321097362630656
0.013605114870147659
-0.09697589408796325
0.008802373719962444
0.0333972743002564
0.030116492268415052
-0.028106878242434668
-0.011396090734507706
-0.012657418910475098
0.011645429350638205
0.09523321711586227
0.034820640180061264
-0.01467759094714863
0.011535535069820009
0.002573163060944853
9.678048732991048e-05
-0.00857179381449854
-0.005898821047178902
0.0023512642669995835
0.02566283572166818
0.008068807791046156
-0.042130404472801315
-0.02817186778527302
-0.08143327970049155
-0.000891952277734247
0.021453170080782628
-0.06506173488778606
-0.004483977706363255
-0.02721658437936022
-0.016525982115828595
-0.02176198251996037
-0.013225900876317219
0.045424078774907437
0.015540619117153192
0.05940968027605228
0.08358267422053102
-0.014450901257071694
0.02212131565698875
-0.009161722628471447
-0.05209465716196583
-0.055612296330991164
-0.01648802395844047
0.00039544030500897825
-0.0007088690011916381
-0.05268561441338341
0.09798854112878491
0.0444447776708016
-0.02105283899185628
-0.04805183236712267
-0.03041664203689328
-0.10428329558307184
0.03827804106295525
0.025611367286318555
-0.00774689903394337
-0.037208332548497744
-0.0437289225964589
-0.009343456107729851
0.13887408950925054
0.05141263884854282
-0.004216031245725935
0.06348029046698016
0.019994077352112002
-0.02364542783761076
0.008000975832610594
-0.037306364551840006
-0.004057878442579745
-0.011019539100484924
-0.03140521610515709
-0.003578676354102466
-0.02947860009589135
-0.05696257425235706
0.0025477207516388803
0.06308810337160806
0.0063391314601413855
-0.04998221172903728
0.04449598949019139
0.1375973056765658
0.03880581518599456
-0.03378287439613643
-0.063779207613628
0.00412248752727338
0.002212937156094717
-0.0022546122732389874
0.0600359217101797
0.02233129305366045
-0.01866588074728106
0.007347716256013464
-0.03367476788801503
-0.02611038444525479
-0.014246634876866558
-0.00236371337137735
-0.009612639575068074
0.006535915333169516
-0.008945069803457838
-0.0023229613508364225
-0.024769978163825302
-0.04856153563407152
-0.020049779553766862
-0.03619094265637482
0.08065440216235507
0.11518189487774191
0.04656977873486736
0.0390835293425464
0.018404019137426886
0.019707976152576766
-0.007647138493626785
0.012407946755992381
0.0194350707094609
-0.1935636463048029
-0.16321045514988003
0.05770940851001731
0.0066092768731858985
0.03702864242470377
0.0007695029597485574
0.04311098517636633
-0.032598767525657685
0.012631072791296024
0.0209902604406363
0.0020330805779182554
0.003521161562546565
-0.0012299314320072478
-0.004103450914206964
-0.006261516873368602
-0.014827272133183063
-0.026622003784993395
0.0014854167313459487
0.013177199916005761
0.007238634054661655
-0.026792330586263267
-0.048556690169118934
0.012793541744074528
0.034578724005315795
0.056772290873278945
-0.01500081416693244
-0.05204132531082413
-0.05690658099593378
-0.005424444195094341
0.0038758243981944747
0.02563548514860012
0.0032140606704182508
0.017202516921647277
0.02218136517360359
0.048764762632495476
0.0034021524738965243
0.013440281005388648
0.02192658274342556
0.049153786113473284
-0.025844874338189182
-0.06229908000503354
-0.025290871969007915
-0.0020000252916581
-0.0050556644915342825
0.08556662571393873
-0.005607298536507083
0.0027513571676961663
-0.017605133170898925
-0.06887586870018612
-0.05221450520392298
0.04066926916610161
0.05844101849668192
0.06252260936368638
-0.003436525659440885
0.05807244798187628
-0.0014980267100085315
-0.026022271642139175
-0.01558954668798134
0.013124570989358384
-0.007725064097909992
0.039684088355697464
-0.014156738936402449
-0.02893900115577459
-0.07346620817084351
-0.05084631410608146
0.023980663602602027
0.051715997620564585
0.0376401736813845
0.008313810619015951
-0.029666434262671005
-0.0009231920719928775
-0.04927894353717973
-0.046713491254893755
0.0190594305317183
-0.010660968904271711
-0.03711973508855648
-0.07038003439350511
0.019086944578158217
