0
0.12057572098542559
0.0074663819903522735
0.026412318715143386
-0.008401418941191842
0.024812666298203837
-0.0008036821042249591
-0.016883682283674054
-0.0025866641422302365
-0.0018828493154291108
-0.032841039730363404
-0.019851690033458158
-0.02181210237442231
0.01287621253819193
0.02960086352738011
0.03991212722000788
0.012595301848892909
0.011526702601543592
0.005359194779512626
0.015906092413618855
-0.12733734753133089
-0.03163733655075778
0.0022892292408866
-0.004121181138632427
0.022654536048020358
0.002419032415780748
0.010925472045896806
0.009894965514887418
-0.008345076425092296
-0.022729735254744435
-0.00774814391230534
0.02647562830525932
0.012003619327379263
-0.0017214913636511891
0.017059399647024503
-0.02849317864304128
0.020190665734450414
0.014554852031692019
-0.02457416046353549
-0.031006296874033116
0.027784147411771584
0.02084326576837142
0.0061742254761685995
0.04673724409871768
0.0009582300866577522
0.04745949231435312
-0.03147049163592846
-0.14637442589089317
0.028521746735256707
0.009733279786300597
0.021591375314408603
0.04477133963430991
-0.04113533248277584
-0.0037133762578371093
0.030466077640218005
-0.016207476672115275
-0.009792866176763101
0.045962606442780204
0.025134830574420987
-0.01000328439413004
-0.008465379076277075
0.048469943180361505
0.10234789100545602
-0.04231821770440119
-0.006977388767891952
-0.015836552373699672
0.0016889923611882007
-0.03624467091721468
0.017056084537839432
0.03622382360300661
-0.044941494260925856
-0.12324593228837125
-0.05664546797210706
0.03105683807426393
-0.0073868160288235295
0.044061309623696025
-0.10046769116126056
-0.02121195588594081
0.02893420014128903
-0.022957622230032646
0.0016391755024329558
0.030779268267278868
0.05946783638826837
0.019904240697582933
-0.017579402603393548
-0.03215012954655377
-0.04955093155666271
0.008470109291559015
0.03011391746531503
-0.00017149460135035748
-0.0161240143627053
-0.04863034665005701
0.0007421906183410191
-0.039476053478284465
-0.021220216880855725
-0.010704135536659136
-0.0019506147749856456
0.049648992478512094
-0.02011211998116848
0.04004796111360166
0.00031605437156698494
0.016298235687487
0.02118498049829377
-0.00754505350705475
-0.002535830329014716
0.0619606354201111
-0.0019154011198019136
-0.018184851938683064
-0.042600894915147375
0.04572892315992202
-0.11569919059832962
0.06242912844174875
0.1669954445522036
-0.033978305974549025
0.05782132632934043
0.018032197020911817
-0.0346359453537156
0.07707279272235373
0.07154530348808535
-0.0530828101152482
-0.02686737377854331
-0.06595561103469999
-0.022826607573468452
0.034749406095312546
0.018596836017070295
-0.0031853202687857486
0.006189176434699089
-0.032952681046861707
0.022088449748011066
-0.032846687632596724
-0.003280467673158036
0.12729235821124585
0.02383686715258921
-0.019055576733615326
-0.030530002307598905
-0.04131499021417225
-0.014889458385497836
-0.008221106064327594
0.011095016399328826
-0.020577553227291694
-0.03311356562269404
0.029314153371389994
-0.01304602093290442
-0.06086750819510108
-0.007290240741249068
-0.05290481667058285
-0.04072288271239479
-0.04905174989243931
0.04511060595076064
0.01607935699652489
0.016122311075881506
0.16112388890277896
0.04779783209930642
-0.005678338508433874
-0.0059235652327771565
-0.01717124844283421
0.019561523706227896
-0.037372909902143675
-0.0075917796019561445
0.012846310455812904
0.025519043908074916
-0.010130753505052027
0.0036924428051028587
0.035472838108975085
-0.013561517538788466
0.0009253640976144489
0.023734450454684836
-0.03906145311141138
-0.030533652641048036
-0.012649939152254455
0.007785087267342411
-0.04546556281821338
-0.009978467250197897
0.0170972750363355
0.0008059184174185855
-0.03260620121582821
-0.03111178616306721
0.008540192483498917
-0.0032103691486484605
-0.01431832557079498
-0.04387427083775891
0.0032812613784138907
-0.02721615313514789
0.05834909705781325
0.072915951462279
-0.03327358196835226
0.009092307554714626
-0.005351328388992923
-0.08702201615366603
-0.07937173198343148
0.03326268411277884
0.006664401624125533
0.04132830155992446
0.04332347627993786
-0.02450908552171711
0.04162890302873669
-0.015850817004316637
-0.014569206095623235
0.049335815233860936
-0.01146563874316516
0.0397279216580123
-0.04845789507963509
-0.047574492133320476
0.01600997313040911
0.014192353786382995
-0.01699544922957628
-0.030624102331235907
0.010238568529729023
0.02752108819170601
-0.003100007552104869
-0.03128842620337137
0.000776183058637514
-0.013762488003010878
3.777162665522214e-05
-0.03134925358917247
-0.03387198312772694
-0.043079618290391704
-0.028535166637491362
-0.05028373945310487
0.004836964953137961
0.0778338212315041
0.03939535591698458
0.017762888277417368
-0.013398642223251349
0.11536702603042877
0.1361479628230339
0.008653004322202115
0.016927093994976057
0.007974729330600547
0.0032761560420401666
0.05573617021297397
-0.00479594356623343
-0.010970548587504628
-0.031273098507729954
-0.034312570164865885
-0.04676383226694072
-0.014321295752700164
-0.002582999162197002
0.03444529115176073
0.018259414930174172
-0.054909112255343145
-0.01774003677017656
0.018604483965564734
0.01603029125159218
-0.02665613235238114
0.03758898674500623
0.01742312115892899
-0.02588212733115575
0.008214337303945975
-0.01476481109827504
-0.007200771634849492
0.060223326123773645
0.028198261455331743
0.0029034706255063165
-0.03604488831308566
0.059388885100011134
0.08003224083111513
0.003675231506738446
0.012787494045697624
0.04210290637323221
-0.14157414249022457
-0.04716026495981952
0.027272909565866563
0.00679206449905336
-0.009013370695926844
-0.14304578450653851
-0.05462350563656876
-0.04049984261851198
0.020192243334871917
-0.02724226802430661
-0.11254314930718524
0.017945287805311582
-0.012847725083877708
-0.002727323131591035
-0.020439134113565984
0.11070682882571917
0.032442852691084434
0.0024954261412463642
0.0286239756093806
-0.0079108483726254
-0.010531352631013659
-0.002318740671462072
0.02338509421629654
0.02702036421238964
0.016389260843394267
0.027719731877839646
0.038895451478682855
-0.003796262338399259
0.01803973571580612
0.0061759200059599345
0.002340348310147913
-0.007442928719830158
0.007885700543000279
0.07277888307212865
0.09869784228953817
0.1269833886988202
-0.15305011120396028
-0.15760260004041837
0.006876825322229182
0.019476697715197184
0.017291716577446815
0.017199605086589655
0.020561020107319986
0.0020838323271737953
-0.024771080609117823
-0.10906240934645946
-0.02232337892839092
0.010810350111059838
-0.024021627327760427
-0.02891187328581148
-0.0555522184383563
-0.022745337478937103
0.018263401112640302
0.015566245171176397
0.006129941247952584
-0.019389503795962555
0.060717806729668915
0.002735882944606424
-0.02724658821279993
-0.020653927555505488
-0.03981920897792585
-0.01546404076547158
0.03469174113839994
0.005789372148025859
0.013357828806596955
-0.037933060546039774
-0.05250553165196473
0.1076533737870287
0.07847664874070488
-0.02387922105641597
0.008711985911213277
0.017922825263156045
0.04995589221460096
-0.014553168583046427
-0.018730866403230136
-0.003306232689733337
0.04839727207532859
-0.02120839522327674
-0.014427736912159322
-0.03380298759324044
-0.022125187582756594
0.030172612636801606
0.08060935083680276
0.013965123763764
-0.025933479646249494
0.023198229714462535
-0.030947393224282412
-0.021323683692501517
0.03766089379787409
0.007034607048635363
-0.03822735368079376
-0.022602127272206157
-0.012322389680849996
0.008585915136482249
-0.030229795017865657
-0.010003191986071197
-0.03171546169437018
0.045761260659889336
-0.016111056994252106
0.015370142212760353
0.0486505497115852
-0.011085673776499123
-0.06390576343525599
0.015493281588013552
0.005526634214044289
-0.0381238315805082
0.07278179657299091
-0.012267373000696582
-0.023917119703698777
-0.016121445224815942
-0.002913365176612389
0.002268745996023259
0.014969217547089655
-0.02675692978050806
-0.03895885261111586
-0.08259005621612661
-0.025148721958564643
0.1313229322129275
0.06052025790765009
-0.041156731005164496
0.02878923432438239
0.0829462646454966
-0.004047697470616024
0.03624083731679163
0.021782482873225272
-0.03577880466178196
0.030365505255960486
0.031545523854890525
-0.033517811921639544
-0.05502784512135991
-0.004713303542792853
-0.05916575718701528
-0.04934442203105259
0.02908915081933642
0.024286610117230597
0.01220816371956635
0.004150226664572081
-0.05601705239617518
-0.053354293144789
0.006161154070327934
0.018823622504115362
-0.004567700944338158
0.01684424205287298
0.007378863555571742
-0.03005873621251857
0.04939563709278778
0.17570840920247907
0.00958664127099057
-0.003619149200872282
-0.010129726769933178
-0.042858394279430154
-0.00255310553284107
-0.05421761166254405
-0.15248340878658836
0.12551221081126726
0.014429166779070045
0.04280493875021022
-0.0077369099256240975
-0.04311471227816646
-0.006728979324744779
-0.015786973103991634
0.03161883823639391
0.02202193086655614
-0.07216321722284257
-0.03893658094046939
0.02346994611158393
-0.004409148025725304
-0.04640466490198846
0.01946956070159318
0.03254128958574609
-0.011469219406893147
-0.022400484428417276
-0.019840713125567608
-0.006826345139463357
0.005629705799628614
-0.00696320522654654
0.028700046893663626
0.0519766772069477
-0.012838901678994916
0.03357445919664132
-0.0023519727592143623
-0.020669929471289743
0.022709446886976237
0.04189451683657865
0.038091423703376946
0.12725449879887113
0.04176075800015531
-0.08471598421544915
-0.062123320226757636
0.011413902862447133
0.02202854413262609
0.030337263345474836
0.021015477326994124
0.0069168916548262085
0.002825255553945571
-0.006915449025452532
0.018212005546929737
0.03616790178563325
-0.02299021793378003
0.023309090559636515
-0.07838441111868964
-0.07634558887146815
0.018897585875169657
0.039306310027186986
-0.010528432732392443
-0.03903508751679115
-0.15492848578830334
-0.02814365169280673
0.013050520023735638
-0.07629593571889885
-0.020212665540150575
0.008316730882899855
-0.005330044785157744
-0.02438641839144725
0.014633256301403462
-0.0691808613207864
-0.07424363977596644
0.01587592577368832
0.006510583186198414
0.007436904454680849
-0.0027652931643230754
-0.019295544845675163
-0.018607608512164902
0.08252846032681589
0.04317112832162089
0.07162310674376163
0.038695956216413516
-0.07589789296096598
0.015258550114285554
-0.02060928181284518
0.12416372919459748
0.1048693472077896
-0.020811163645096175
-0.006945040173147245
0.0074508731092262775
-0.023857941286333333
-0.019785311881040348
-0.005910895690412549
-0.019442755338177825
-0.04511902631746373
0.0924020187556245
0.0768631706802679
-0.011797753746074748
-0.010991931983963721
-0.008383208374466915
0.06245847415705638
-0.011425127796067212
0.004857234355677363
-0.02262690248384561
-0.016156430668622202
0.03308872402155758
0.004053470735377586
-0.03005161743624788
-0.03311249531386275
-0.03028531209629439
0.01953903631013256
0.010843191039059893
-0.00834494405856481
-0.034475875041602246
0.02844549499101292
0.019530063637852035
0.002131248214939573
-0.04838691678521209
-0.03873073865224167
0.0060173887092576876
-0.006369524228559847
0.08174841226608655
0.059641843427839236
-0.04362121956918712
-0.0026802775721801245
-0.06395970448339283
-0.04676091580249543
0.024226230398456953
-0.013761709587237561
0.02503559148435589
-0.03598657920414789
0.016599933220200175
0.003762149000529154
0.06759669139348556
0.03214524106054272
-0.01735047701022867
-0.027119419493744423
-0.003402492462823968
-0.026415506583111734
-0.003589096415564588
-0.016287490434805568
-0.02592829529205559
-0.00684095545061191
-0.039208893541961144
0.0025828923332845677
0.004946808799054763
-0.018949677171795416
-0.020629007298774923
0.028795526940330534
0.12072516853481967
-0.05121000921493924
-0.018949569463281715
-0.009725469475523194
0.06401494419517308
-0.0029387876381513646
-0.041433152961249914
-0.0038922581811990757
0.014156357684153893
-0.0023504397107091276
0.042286230804232765
0.0321097362630656
0.013605114870147659
-0.09697589408796325
0.008802373719962444
0.0333972743002564
0.030116492268415052
-0.028106878242434668
-0.011396090734507706
-0.012657418910475098
0.011645429350638205
0.09523321711586227
0.034820640180061264
-0.01467759094714863
0.011535535069820009
0.002573163060944853
9.678048732991048e-05
-0.00857179381449854
-0.005898821047178902
0.0023512642669995835
0.02566283572166818
0.008068807791046156
-0.042130404472801315
-0.02817186778527302
-0.08143327970049155
-0.000891952277734247
0.021453170080782628
-0.06506173488778606
-0.004483977706363255
-0.02721658437936022
-0.016525982115828595
-0.02176198251996037
-0.013225900876317219
0.045424078774907437
0.015540619117153192
0.05940968027605228
0.08358267422053102
-0.014450901257071694
0.02212131565698875
-0.009161722628471447
-0.05209465716196583
-0.055612296330991164
-0.01648802395844047
0.00039544030500897825
-0.0007088690011916381
-0.05268561441338341
0.09798854112878491
0.0444447776708016
-0.02105283899185628
-0.04805183236712267
-0.03041664203689328
-0.10428329558307184
0.03827804106295525
0.025611367286318555
-0.00774689903394337
-0.037208332548497744
-0.0437289225964589
-0.009343456107729851
0.13887408950925054
0.05141263884854282
-0.004216031245725935
0.06348029046698016
0.019994077352112002
-0.02364542783761076
0.008000975832610594
-0.037306364551840006
-0.004057878442579745
-0.011019539100484924
-0.03140521610515709
-0.003578676354102466
-0.02947860009589135
-0.05696257425235706
0.0025477207516388803
0.06308810337160806
0.0063391314601413855
-0.04998221172903728
0.04449598949019139
0.1375973056765658
0.03880581518599456
-0.03378287439613643
-0.063779207613628
0.00412248752727338
0.002212937156094717
-0.0022546122732389874
0.0600359217101797
0.02233129305366045
-0.01866588074728106
0.007347716256013464
-0.03367476788801503
-0.02611038444525479
-0.014246634876866558
-0.00236371337137735
-0.009612639575068074
0.006535915333169516
-0.008945069803457838
-0.0023229613508364225
-0.024769978163825302
-0.04856153563407152
-0.020049779553766862
-0.03619094265637482
0.08065440216235507
0.11518189487774191
0.04656977873486736
0.0390835293425464
0.018404019137426886
0.019707976152576766
-0.007647138493626785
0.012407946755992381
0.0194350707094609
-0.1935636463048029
-0.16321045514988003
0.05770940851001731
0.0066092768731858985
0.03702864242470377
0.0007695029597485574
0.04311098517636633
-0.032598767525657685
0.012631072791296024
0.0209902604406363
0.0020330805779182554
0.003521161562546565
-0.0012299314320072478
-0.004103450914206964
-0.006261516873368602
-0.014827272133183063
-0.026622003784993395
0.0014854167313459487
0.013177199916005761
0.007238634054661655
-0.026792330586263267
-0.048556690169118934
0.012793541744074528
0.034578724005315795
0.056772290873278945
-0.01500081416693244
-0.05204132531082413
-0.05690658099593378
-0.005424444195094341
0.0038758243981944747
0.02563548514860012
0.0032140606704182508
0.017202516921647277
0.02218136517360359
0.048764762632495476
0.0034021524738965243
0.013440281005388648
0.02192658274342556
0.049153786113473284
-0.025844874338189182
-0.06229908000503354
-0.025290871969007915
-0.0020000252916581
-0.0050556644915342825
0.08556662571393873
-0.005607298536507083
0.0027513571676961663
-0.017605133170898925
-0.06887586870018612
-0.05221450520392298
0.04066926916610161
0.05844101849668192
0.06252260936368638
-0.003436525659440885
0.05807244798187628
-0.0014980267100085315
-0.026022271642139175
-0.01558954668798134
0.013124570989358384
-0.007725064097909992
0.039684088355697464
-0.014156738936402449
-0.02893900115577459
-0.07346620817084351
-0.05084631410608146
0.023980663602602027
0.051715997620564585
0.0376401736813845
0.008313810619015951
-0.029666434262671005
-0.0009231920719928775
-0.04927894353717973
-0.046713491254893755
0.0190594305317183
-0.010660968904271711
-0.03711973508855648
-0.07038003439350511
0.019086944578158217
0.009981305722032496
-0.020867930666243224
-0.047814251232912254
-0.04521610374251882
0.09538215471458356
0.041351901908928346
-0.010878391773345712
0.022341606813003314
0.014551719035905138
-0.005779444165126651
-0.012532320496357828
0.054433049353998855
0.026140271689990325
-0.0360123333648667
-0.05248595863604834
-0.013767959820394816
-0.012541300742107199
-0.028996651146644403
0.003942059510518061
-0.0348553547373791
-0.021195290381869642
-0.015740010683833093
-0.0308746674410594
-0.04120805221567577
-0.021427627463466603
0.08638554574539963
0.08548391605186195
-0.006976460097750389
-0.04918126426838058
0.018705839273629916
-0.034419506881185696
-0.013774443615110137
0.10622402710737838
0.011926066536759122
-0.006836589165710724
0.0025402737904701503
0.15595580123210445
-0.016022003697785225
0.0021801997611879164
0.11146830535059045
0.08278985146832032
0.07712051127579951
-0.03151918697084925
0.020344510335227953
0.025520967558348956
-0.02404075532200799
-0.018457287241589907
-0.01166438613743795
-0.038199138460837764
-0.010736078851552325
-0.03228475069084751
0.03200774834508314
-0.007817866290242758
-0.02830989724135591
0.0024430928179583395
-0.014325566986324954
-0.03670045921619469
-0.04337928644259184
-0.042291142825188886
0.015197199560330544
-0.03254209652778665
-0.02973161792607761
-0.02517508920144172
-0.04959740912068478
-0.0002903132647823141
0.017700200065776
-0.01252894750412453
-0.006742816614915043
0.02312946591204053
-0.01217126454226964
-0.008022134842394571
0.04226978975467942
-0.05787364796006053
0.07314723211177497
-0.027237827626452438
-0.004723588399942309
0.025006383191205954
-0.04299564775203407
-0.027338079663389765
-0.015551452072215793
0.007145370702191237
-0.02051695812630833
0.011297569500399979
0.09264799608095664
0.07527856986750481
0.046532585329833606
-0.16154285809922633
-0.09340403938334929
0.07710490498846938
-0.020026013231740258
0.037400672790063164
0.1709518322046073
-0.036215993743040166
-0.022425895386259557
-0.014519078968091476
0.02052890298780939
-0.028970907524781795
-0.03735312106054816
0.0031159705601745695
0.004297018745126517
0.010050755513143694
0.009777404568906316
-0.006113390789091127
-0.026154367900362144
-0.013955675419544313
-0.00709422259843954
-0.06224395325444452
0.17237858509142404
0.000823795793288702
-0.06196278389033952
0.00686125979102932
0.028985152002697703
0.02151473507997336
-0.014676747980551018
0.02988557713964843
-0.001675236585613272
-0.016739639307931296
-0.041740774538018326
-0.006517222483456744
0.019093824127098178
-0.08867912652889078
-0.09359252288723083
0.004074889022117976
0.024541410560333748
0.06204778909168676
0.05352359078720258
0.0032857302817504374
-0.035986372840747495
0.004055905615266522
0.010853295928191654
-0.0060587888761690625
0.001419384857325758
-0.03416516656692836
0.02013251957133632
0.04689752051749164
-0.0035189710801856898
-0.004115629216696083
-0.003207147561419848
0.013723489540915783
-0.003154077994068577
0.017625286861628228
-0.05460224871774869
-0.013464169698259467
-0.04337283785916524
-0.001249504273854917
0.00027972234946843237
-0.021494404171914547
-0.07606503051412263
0.0446859002905623
0.05504457727226332
0.006002973603728292
0.13401582635550746
-0.03690819966065647
-0.017709841812559565
0.0036682000068175
-0.006472551689970783
-0.020321614525426836
-0.013448146886636139
0.054445943545427714
0.014441872748703127
0.021914862776442483
0.05236707300103077
-0.017195812966616857
-0.01273265275524318
-0.02696054406117434
0.02372238609383357
-0.005850978927811765
0.06440654005440673
0.009539421122776781
0.017934049319771786
-0.14841635427694366
-0.15539788885703823
0.0246152005590292
-0.008020910457601485
0.019195005666920093
0.027624058157641056
0.00664099901603078
-0.029235807760805234
-0.06708192506595424
-0.08556613390081932
-0.022602716825095622
0.03257623611541988
0.12058376762366117
0.09131822123678283
-0.00639042143966283
-0.053087910991320944
0.02017877039484131
0.05213901738385829
0.009675756468176573
0.008744651858406786
-0.027195574951881865
0.006050588224153704
-0.01567541951889226
0.0008580523015184864
0.01727964330217618
0.0038628387005782425
-0.02258975842058163
0.051186870165862916
0.07429656191570425
-0.01413416535618639
0.011555544726812812
-0.011304621984141616
-0.0016911997960289977
0.06613086326181074
-0.0038224742289181706
-0.035242764751783937
-0.011275482758639193
-0.004596770331273616
-0.01775466153943963
0.0239830034306077
0.005533757707580229
0.03252471591402516
-0.1388395260843357
-0.14106425225171387
0.04634905926300499
-0.03613595696624273
0.027093524655738343
-0.008215291405832683
-0.00728598325292982
-0.02929092879461635
0.00788586258328592
0.026737511192074646
0.019893820678725655
0.04767457514473841
0.01329211102101547
-0.004517368274230477
0.010386681452309867
0.045696699405815985
0.01587853955860076
-0.0031576693514482057
0.01300590234285012
-0.01691742597160642
-0.006928172734068691
0.011789418957513573
0.019166023386801442
-0.010415753361554264
0.008648620281769463
0.016933984107721383
-0.011514929000333912
0.01983617217146183
-0.019794912436729338
-0.06691801117983742
-0.014205509189479534
-0.03038160587173182
-0.04649729067728281
0.026543815128150818
0.002139988719281945
-0.034218630073377776
-0.020928233921557845
-0.007519035196693551
-0.018978560056480995
-0.03194915626539824
0.031078977293105742
0.020262893963009496
0.059883380056517596
0.1738468588690952
0.021354594549399388
-0.01933251019608851
-0.06944633921055954
-0.04509181327732184
-0.0002728286776500581
-0.03170961141506235
0.15418606923495884
0.05710724601542787
-0.025357779154656184
0.005868554117970298
-0.01219380177547749
-0.006812957103338934
0.004900917344042699
0.029871462732890215
-0.02195142817647151
-0.06422905248929044
-0.0001468685120916904
0.0004296352485599875
0.0050451199859631556
0.034554664990703615
-0.03188353865944986
-0.035974978088808285
-0.0003513888654216307
-0.06226459179111498
0.0104623378297828
0.0026766338020456073
-0.008543578042697298
-0.018861797389523902
-0.13548304240975315
0.010035080288959098
0.004425653747614509
0.09444922863023222
0.15789354032414235
-0.02425296656156533
-0.010077884862776665
-0.006046154701901547
0.003168639488781466
-0.04334091373370378
-0.038236216065288424
-0.009218122107918987
0.03276478166696232
-0.07073521895503992
0.012002407116901315
-0.01980260780122923
-0.021469430559831356
-0.00026820371425309895
-0.018720972134841866
0.001776192135171969
-0.010468583513782978
0.0012772338164047177
0.033707688075430224
0.0976894669705528
0.03324154642065402
-0.01237379984604883
-0.006113159514306461
-0.011433430463885742
0.006846476014270004
-0.02394984032634476
0.012773141433390294
0.013667107564322444
0.02352330855467327
0.06481129225909855
-0.002200736170550336
0.0064867167004245075
0.007608644313716969
0.018987333021534745
0.007555884232089496
0.02853394208057477
0.05333867206424334
-0.04392833036623031
-0.22491315109892784
-0.01753732337016999
0.01578257293656598
0.02157692821060076
-0.022352003979321248
-0.00021219347242758916
-0.013064360895469121
-0.016537681146791303
0.03036160952413501
-0.03919680010963634
-0.04741256365716561
0.010819373067857832
0.022720391570840628
0.011116319348231077
0.03857930954176188
0.009315463502068305
0.020342733892773236
0.0012053414825659201
0.02859343745822224
0.011603489403044679
0.01706484673747201
-0.011065244950268529
-0.1992604711133222
-0.06222618194318202
0.12081989295272567
0.0539993311597693
0.02966200771667369
-0.005281297985830374
-0.0981542506338611
-0.0057875299084203385
0.007830212967985264
-0.008359913091023623
0.03495212451947267
0.012012315839409439
0.031523472276275416
0.040287250719474046
-0.01616466724596723
0.023927328219112278
-0.009256430335156858
-0.02127946438972812
0.014284058022227535
0.03491089769133548
-0.011763030598698033
0.0539543337196293
0.02261504570035057
-0.13416374808676942
0.03750051006608391
0.02675437467194605
-0.0007745983627588706
-0.046277698623371846
-0.145791222470961
-0.008510572801892722
0.08011394743699425
0.05241648460907457
0.03855888393133289
-0.01576089040877608
0.0405241537207611
0.035708303872601176
-0.013029509322284166
0.04307619777614371
0.009538490477410766
-0.011868921522658822
0.02918755554430759
0.04694750610063199
0.019164790063560755
0.026399051555750598
-0.024055611352685153
-0.011946433883334922
-0.01855752584371859
-0.01955846913969686
-0.012184496743064797
-0.02395609766127476
0.003417059539988983
0.011066877801560711
0.0293288357481045
-0.02461302580954058
-0.024212693315155385
-0.008436816485094112
0.022421772640903174
0.00864857462294465
-0.04828898637217942
-0.06994023570494134
-0.05724544697035813
-0.03735579553283183
-0.050756942379290515
0.027829878052786406
0.01668286229901954
0.09239725686430385
0.002958831319913593
-0.043334114130731564
0.027914712579975444
0.01644829924406913
-0.012865028407815993
-0.00872918928635253
-0.02241733805308866
0.04811907790379961
0.00509252397054848
-0.0244360167463549
0.021989222384539577
0.045746785153529465
-0.09236812961882372
-0.07594416600680466
0.007670560179219099
-0.010792130240463316
0.017287067850196878
0.06124860119992055
-0.0190587620734955
0.05857275705101639
0.02413316657766568
-0.016887906081393296
0.028833340827978605
0.03919204936767714
0.024321169761691307
0.005437769179242289
0.04972768546066023
-0.05704566264676025
-0.11417007387015357
-0.008069395748307817
-0.039105450250819136
0.05217521279562523
0.051163098111646765
-0.0003016443993246143
0.03531779388634541
0.00504460959292899
0.09456845991297913
-0.00683135804522524
-0.010162386360095234
-0.061799360474920725
-0.028214184405436146
0.0065342498856082445
0.02810888469018668
0.024599708373916455
0.02955518757562639
-0.0006926499653671241
-0.03487688933645697
-0.004078065292404669
-0.034361636555906655
0.007395999823326568
-0.008829517948625897
-0.04895273142250688
-0.04018533838166794
0.01336283370781767
0.018617721962998927
-0.05991701992076956
-0.027965110953806098
0.017480203521669863
-0.02573990574817484
-0.07107923148346956
0.1110379161144885
0.04912057585020686
0.04312442946996016
-0.004230467424262515
-0.004563050689690498
0.029358718348550618
-0.02604708908745567
0.010597238419264165
-0.008351136159409673
0.0006185219826383685
-0.015742445362118863
-0.009190892082458824
-0.04864787208031336
0.0006126472440706707
0.008889749939846902
0.03739352586537867
-0.05826502493390689
-0.04652527353674934
-0.003288034498768998
0.030935046743182842
0.05064537817629749
-0.026803362336952893
0.01336965546309237
0.00027601135340798327
0.045078792541748756
-0.008822698610864108
-0.009312941628122207
-0.0004120681350045362
-0.005828367161973077
0.007405974501211734
0.009741566383082668
0.033738977093773666
-0.0009170407535167255
-0.025748054823600115
0.04399865488265968
0.047494183812534486
-0.07407725651552519
0.014318791303274831
0.04144827656943514
0.018511248680326588
-0.007262444080843891
-0.05923480687603156
0.018498838985518566
-0.026639510145256035
-0.012144472340448081
-0.07018616920183117
-0.0038874184656336064
0.007762135264896534
-0.010465735317613469
-0.017495622745946213
0.004458005347222844
0.025017982205040073
-0.001751584615590865
0.018309895780706558
-0.04857002779883193
-0.06391225444134177
0.013158743544837249
-0.009636537989366332
0.00149279528677823
-0.004507039736121946
-0.027225392977139763
0.01938992902373404
0.06532544205461746
-0.016545642804840204
-0.01746257162261372
-0.0029413099481232184
0.03467288422116051
-0.005464353284230473
0.06623472540528301
0.09572116552666868
0.07511693949592473
0.022351706074303757
0.020074697155781914
-0.029793025823760106
0.012975388247378173
-6.09353107732257e-05
-0.011594459114288674
-0.028382829905025112
-0.005071665319863998
-0.003059128813930437
0.0002990663481652469
-0.03351622943291759
-0.01237503207678824
0.005204508046253494
0.0101895783423659
-0.021281047698179446
-0.11562284372486101
-0.08089324460737381
0.013814592952593099
0.06109258238695651
0.005847750433718336
0.00705773846923295
-0.02768816056675181
-0.023744809263486488
0.04125259578831234
0.03670616246017978
0.0465222486575872
0.01649381368054719
-0.0253471906331428
-0.002044281928653247
0.011490623860077657
0.023818079237902967
0.026592257681951382
0.04752017876402
0.026114261875044818
0.049127370037923376
-0.03715182482243254
-0.050153192066396186
-0.16051700005531502
-0.011727849080760614
0.018142380565800812
0.0034023914430593417
0.015481668158569958
0.01254538067762194
0.005723758850570352
0.00557538751358417
-0.011657257807146703
-0.014740617644541152
0.010997367549636074
0.010705340964341677
0.01886122589382284
-0.02399738762923975
-0.05678401204122229
-0.04974141232272547
0.0650087685101914
0.072423845281662
0.03176809387844994
-0.0009048476108065846
-0.10715223596224246
-0.0013860597125920349
0.004308951569065356
-0.006409182934955139
-0.023578974501240774
0.00023825926826259426
0.013683331797667132
0.02809574071835749
0.003504369195472035
-0.022738672108764922
0.01559579399317264
0.05433602048144745
0.019948598018770917
0.006301033990254545
0.0015724915690670993
0.03294700224893824
0.023917714452353318
0.014716651651037598
0.0166721090204935
-0.010867125211473011
-0.0020901845039225818
0.025543424358086764
0.015573421868308351
-0.06440704669164846
0.04706819171103263
-0.08213917219292095
-0.05725647011044937
-0.041565711162865435
-0.11138040712624095
-0.003621905369522453
0.023041251718646835
-0.030915443980033253
0.01324971188768654
0.06517172142434864
0.0419476478422818
0.03500617465282379
0.005843529961441961
0.0024816708356494915
0.014505703704895031
0.015030423231636293
-0.16066465915836928
-0.026259563938021955
0.01437901201074239
-0.0021282955607459953
0.019368716603567735
-0.03589447620551666
0.029313759813316603
-0.008921403978798582
-0.008071519033903818
0.04683124513037754
0.006082959326674802
0.015559949683446327
0.06422292895111087
0.04982839337587495
-0.007643144373861675
-0.004340410360565996
-0.026269680414749128
-0.005528555629456095
-0.009533748068059933
0.023884165878058958
0.01669794308710496
0.003039237046911278
-0.005856534039908645
-0.002801838634223895
0.01673006948677137
0.012218190719993959
0.051677917041825436
-0.04602810311538684
0.051046264195874005
0.053163503266626624
-0.01166050362867808
-0.08280060870085296
-0.024385827107402742
0.021979412755124213
-0.05077477002064996
0.019437204079010867
0.10066082767875169
0.02131518953384145
0.039406559607949636
-0.04208059804964334
-0.05078004306378159
0.007971328837256509
0.0067514715533839795
-0.06309959961794398
-0.04439163136354431
-0.0128882244659499
-0.015328869194422636
-0.0010719178727609943
-0.030784857772288114
-0.023764775706165545
-0.05271280063702369
-0.021852438356132136
0.017780567760420685
0.016132616667068816
0.003701483472470535
-0.0015481658422733804
-0.028014180372445692
-0.02573256806286298
0.06760062257179754
0.05203170685051928
0.019538738350251265
0.014220870748223006
-0.03241129148121227
0.11668676762670213
0.06583720887176633
-0.019639407445709262
-0.08257737823498087
-0.0761228895406476
0.004864367135563575
-0.011551023491528931
0.0693975654541205
-0.008178565054019036
-0.02059204938331172
0.017373017113855988
0.02706082536984357
0.004269907571100748
-0.011512712213002641
0.01365578120928582
0.008789133763039665
-0.00029983615732390254
-0.021596406337201415
-0.014028573761042211
0.02132026734644994
-0.05193738525591904
-0.024175629146478642
-0.0056526370046414715
-0.0202367156374583
-0.019313146466971205
-0.018681272262342733
0.03206566473153736
0.041121201210331755
0.013140371543921609
0.02086989012741836
0.010610072330817245
0.003238723294912913
0.033401932984469286
0.014636004895934614
7.452622401620185e-05
0.039813516829018736
-0.02008582167329415
-0.0013877697281766792
0.0019255256456236277
0.0032513688996381267
-0.007759499037346982
0.04850598967059843
-0.020238072596079244
0.013137124479112828
0.009810838387554775
