0
-0.012349490679871185
0.07536067608003057
0.003024526217566421
0.03827960639588146
-0.003955745939441378
-0.016694647218527838
0.015068609630295358
-0.07722214323602303
-0.057649826531944844
0.02268754215469074
-0.012367795046460793
0.005556611694114868
-0.032263234612570774
0.014110463088236321
-0.16910445585122677
-0.05089540484533095
0.13690439737436774
-0.04560306535762697
0.06487329731649444
0.06922600362908087
0.01500634799510376
0.07007809297442234
0.05615666160538149
-0.028479177310358324
0.008034173546359795
0.04088296903056939
-0.007950955298192012
0.1349895377222605
0.0892522077117403
-0.00628446446921433
-0.013834716937436833
-0.05182438154149274
-0.0013677452106350804
-0.005231776411601592
-0.013058187048527594
0.023546190729163093
0.031170317932068398
0.006405230636309251
0.04371890744042748
0.010382119010935973
-0.029315081949405658
0.00688552070267648
0.11940863586661968
-0.113383782770892
-0.03483210541161156
0.009970413297083813
-0.008778680291169565
-0.12280725049406085
-0.07452026905858473
0.03161902703265936
-0.028477938614478882
0.07361931995075752
0.0551843967511484
-0.025078154509242556
-0.012510518562438636
-0.02489171514420463
0.011136755927029063
-0.021673365634536392
0.0010296394189318844
0.032026465911944545
-0.006782943629861569
-0.109034132283523
-0.0158468640821171
-0.02621173829414845
-0.0525877591841148
-0.03359393265204111
0.05555684193307085
0.025624711469397845
-0.001018205570464002
-0.03597065167398617
0.03298886804445746
-0.026398233503380924
0.016233827621886333
0.018033121311892324
0.03489686016138177
-0.010456756467563997
-0.012196827826496047
-0.049216256741388464
0.03322192749822783
0.020311172614363132
0.00695343068028655
0.021012804615448674
0.03185811924358809
0.06111381778322266
-0.01730896388111041
-0.04832203720095362
0.05879933901205344
0.05272446043632515
0.01365926350168554
0.0037062488018172455
0.01747122700842916
-0.021370786970965252
-0.03848448661768774
-0.01931061870283454
-0.012678901839390083
-0.07694252894257407
-0.02660141809631264
-0.0028510038996428654
-0.09076746084288964
-0.06279119934036982
0.016305059293519074
0.004093252544710627
0.04421753753828028
0.01419590768618439
0.03781150312501868
-0.014493000983866338
0.04195235129675192
0.09773157059264138
0.02067337533021856
0.016564933184025635
-0.024135348443154826
-0.02762669668630128
0.025657474296029582
0.034402534752021575
-0.011658456325053364
-0.020443880513695892
0.019067679084020538
0.07277910216058257
0.03895616463940973
0.03093781772021509
-0.027274628639713618
-0.03542860945850899
-0.11983656674757476
-0.009044300657121612
0.011114957227080202
0.004073824372075277
0.038005482781056914
0.062449595059449435
0.00043617411372064564
-0.02533391532626658
0.033149162651032564
0.01745035353512994
0.019274036756753783
0.021474477633671506
0.005280030552286393
0.007469646263590107
-0.005701647943380899
0.012760522506125267
0.029328622839229247
0.0008867051207011559
-0.028507023855102516
-0.04485844857262468
-0.01871758686875173
-0.19741271463404172
-0.050541277653293845
-0.00856097838037759
-0.006582035102962551
0.012278059779200564
0.022035665860278168
0.015172263680996096
-0.025189816897579393
0.028066308835452674
-0.041649505877989726
-0.07555922199216109
0.012262217946575902
-0.004391135037230989
0.022022455056691363
-0.01909102431884653
0.0648089188903222
0.06712528068629937
0.007015545577736378
-0.0018047162928669354
-0.0006056815290156624
0.005966108592244478
0.045644703758853176
0.01163195626553497
0.0414680346063763
-0.024039182541137495
-0.048234740227634555
-0.056034473770641635
-0.0007738212058932258
-0.007039445857332162
0.0031518957066746637
0.015835923029819458
-0.009552716993032243
0.05362082944954088
0.031832358443398975
0.0017058529875089
-0.00799404166444667
0.016177899507327904
-0.0014378141251482337
-0.00354123186106513
-0.018691082483889506
0.012429253536130697
0.040005837905170996
0.008967977824254134
-0.0016500890234657534
0.00037026181920160785
-0.04147297287117433
0.010487732389387354
0.0684476684208
-0.04563213465414349
-0.14729420452764436
-0.03787223346229088
-0.00858643038832313
-0.02071568095943589
0.0016593669997360296
0.02015100563712124
0.006361817213536661
0.03671584184830609
0.006069482425027775
-0.0293834731795602
0.052696327222530905
0.01121333102585586
-0.03215111987040743
-0.011753346185154634
0.027226635882901237
0.052738466311213046
-0.013808547672230663
-0.02856333358793187
0.0032488195336064355
0.020414900111427093
-0.019706178693218418
0.0010777617638686105
-0.02953364107471068
0.0053954732489442025
0.1207025067458366
0.031933795672908716
-0.018102789395207784
0.00019551146241052455
0.02088539478661956
0.07599921750851892
-0.005328173995843119
-0.028967735741138336
0.025937897395329618
-0.021334389516488302
-0.08460330132978475
0.009787718750357903
0.0069703415712367624
0.02492234281306905
0.009670482923115318
-0.0228139827868189
-0.0017686661412012817
-0.006363659665295874
-0.01961147388111512
-0.005154953698637937
-0.0064668304784660895
-0.04756181124661103
-0.03464057825606961
-0.01694173578972373
0.01383455365728835
0.05161318876705651
-0.02522989889412755
0.008564372662545056
-0.027127489463223273
0.12420440016930487
0.06503248095148281
-0.08709677014235251
-0.006487112929390101
-0.001878481550839063
-0.010221784054393172
-0.025509255041663355
-0.06704297430677912
-0.00829667933999853
0.00795189535150108
0.040142568491061334
0.04041914858384164
0.043589734063438836
-0.02676459219607569
-0.01810627373460686
-0.018034935295424232
0.017724565722748272
-0.04754918816243524
-0.04838184744446005
0.06292778923533893
-0.0051284968417126655
-0.028519632583843463
0.02846116815187072
0.017594452561413607
-0.042924294987763185
0.04017674333845026
-0.01893671307155515
0.04052214107049917
0.02523524488942323
0.025822114164008085
0.005308755765371072
0.01997174902480194
-0.10834540494742727
-0.05498428599141182
0.052437501149628786
-0.016702247481980254
0.027464023001295284
0.034389910243145465
0.00467027113560177
-0.003156571809250013
-0.05816171024704946
0.10186274918404793
-0.06769256996304679
-0.004688327120864438
0.05038951386049884
-0.08126924430311326
-0.04897991981621828
0.03552339572495929
0.0060808743419354175
0.024397480236700884
0.02506841892619637
-0.035033593386228024
0.050280957679135645
0.03789074751889718
-0.0012417699130929415
-0.044848004156563454
-0.023857652485080448
0.00900406970091729
-0.06910102728735344
-0.030515796798051054
-0.020234919001284764
-0.17004474236149944
-0.04112202416189411
0.045490602329101695
0.027738899331974015
0.0169190329440961
-0.01214531025614828
-0.012314052133944303
0.022639559521963712
0.021445037769098136
0.006929215746835997
0.04638455045583426
0.0022999636089766394
0.047389226766731955
0.011060485585521506
0.02062375159157461
0.031053301314072267
0.044622424665343795
-0.04103168426257129
0.1378468057209212
0.1463245976744796
0.013785263909486931
0.19589104107776684
-0.03210515677185334
0.01363787465696675
0.061172337723693404
0.030871534530823776
0.03701782271697591
-0.10256218156429767
-0.1498837103302284
-0.10570208465888452
-0.1514976673593122
0.02807540011472584
-0.0373504678371455
-0.08265244555301221
-0.06428830330908517
0.09113742143083046
0.016084455531736104
0.01454843133670682
-0.017717270596308336
-0.010144026025625082
-0.03777936147466057
-0.023342787074458502
-0.06131616602065517
0.013766621410400385
0.012685344122744
0.008312649588509803
-0.01748007271673727
0.015598731270360114
0.057485979587337886
0.029428271993805804
0.008021802143910331
-0.030185482191601845
-0.004825987413093657
0.0007842991569233412
-0.025282800541357578
0.01255812810077701
-0.010739200819567779
0.11805534330015831
0.031254611598444275
0.012998325297712261
-0.0010177600077420842
-0.08495140327052765
-0.0351733618581466
-0.006817856638181751
-0.06327280561381746
0.022608457818574207
-0.005840392708912507
0.012398415618270741
-0.05397722605276108
0.02103767669964353
-0.03153971454257275
-0.007546985068187664
0.03480350780632694
-0.039584050701721336
0.03561781878482116
0.0019325348403266582
0.004887307512653316
0.02061658521280262
0.0159603213690598
-0.019509598673070457
-0.027584878216959655
0.05191003970069432
-0.0004082010275853419
-0.03078985334341608
-0.006893439698256059
0.016759606226142625
-0.02109339740904804
-0.00403328111857599
0.02333327899332386
-0.03246315263895648
0.02832654612802274
0.17886083365928118
0.0673469978415606
-0.032843090283982
-0.0074764866351794785
-0.0024830984139788985
-0.00017164482867748095
0.027611919924173153
0.015626895878992488
0.01060339573248398
-0.04414680779008008
-0.014779834800188896
-0.002011419656046506
-0.028731073612460183
-0.047833461180334144
-0.0016189359327034982
-0.014573109011032467
0.0036096699179872225
-0.01436872412172343
0.0145791149320744
0.018997337511750492
0.025693560433241426
-0.01703179713427967
-0.04255675073477665
-0.03531705017565674
-0.00589168631565533
0.004285576705872849
0.024099998923598282
-0.02643842608121001
-0.0018846007608215852
0.017834943183310772
0.01469894813044629
-0.005972981438441409
-0.02323665783489227
-0.019023355497855967
0.0004952510092732604
-0.03573892017241667
-0.001593756524889595
-0.04778640948525253
0.001672270599226754
-0.027708054350133404
0.10510517002782097
0.15480587159507092
-0.039570851813245454
-0.024445775560192597
0.005925172715809112
0.02165345530119839
-0.00724725620232406
0.01911667676768696
-0.018740885422161225
-0.00730787464608744
0.01933862899789554
0.06627187523046632
0.01658162657301309
-0.018942073961945312
-0.05169168718285177
-0.013876039382600848
-0.043378878252807444
0.009541849771422282
0.04266556349876532
-0.03075557114969038
-0.11685518543772169
0.029823341312985058
-0.01266033120876208
0.005010019713325583
0.004029031947008352
-0.027444710016483978
-0.015889907531071473
0.020661252468002465
-0.07563992626100308
0.006902091193519112
0.04005492684083016
0.04905826164179281
-0.048132453396130884
-0.007687673072725185
0.00110443250008867
0.12611868194932216
0.11274319338334843
-0.0450584706198635
0.04963918497955794
-0.01688421192725036
0.007958200327569873
-0.017471115906411344
0.011888430060365489
-0.03680868613286742
0.009513572423327163
-0.03965966383431419
-0.011818641269770919
0.022616163863446358
0.027845396187314
0.006139658381857259
-0.014878673630436488
-0.019446132917216724
-0.007941770211255394
-0.028837865895129742
-0.019846115483865154
-0.012254838325301052
-0.0200648185384702
-0.025130398947381873
-0.04536563525838483
-0.016572095170838647
-0.025914157672630878
0.002931276576243734
-0.015343880676387317
-0.0006355569080585672
0.016333746287320074
0.03884726735399423
0.037007294820064096
-0.009352056835888264
-0.004621145604643521
-0.023569679612143495
-0.0006523889123581699
0.011654768424969883
0.0037785939181678905
-0.009119072937266316
0.03768758799335568
0.01918186185958395
-0.010335764911903701
0.030619190158404204
-0.01933778582000698
-0.0886693687305798
0.08620976713450974
0.047973710408241346
0.04164116980172783
-0.04281537344270672
-0.03159770224866404
0.012317049687695831
-0.01017489847129085
0.01167027064647995
0.0018308748935722899
0.04472921816407537
-0.036150026483199094
-0.059646073248549994
0.008477058158841184
-0.006056106352600934
-0.030545476336762568
-0.032997138821979036
0.060968531525003755
0.07709163932912304
-0.021051977021620028
-0.0008725534478756986
-0.016922142836772198
0.03616043182451481
-0.016617190876412974
-0.03189183999325887
-0.0044862535006913
-0.004854164271269211
-0.025268240060113197
0.06411216797205772
0.005907724578515829
0.0026765775753985763
0.002399937314296849
0.002548832658716487
0.04425367447899423
-0.012089600169227116
-0.015687349450079345
0.07638365194486232
0.12672084824260343
-0.041496936205776075
-0.018336890314520862
-9.505785382297813e-05
0.009090544506443692
-0.004400842915089383
0.0065202141923754635
0.007898796709082237
-0.03819714880902528
-0.08390821864389378
-0.09131237946058064
-0.08454514228969263
0.012645319053065214
0.014926513485874583
-0.014166139413752553
-0.019128836103350033
0.02211563396888736
-0.0013900406177600822
0.004688276437124969
-0.051475854303458066
0.041847834151508674
0.030549969200022002
-0.02424503315487204
-0.04318816071546995
-0.023293427572931673
0.06463167322577414
0.03227278077924369
-0.005859846468839547
-0.0001643251792458987
0.05814302941769644
-0.0009642675781295179
0.023142913201019154
-0.027018795770717863
-0.04373897547158181
-0.08227178004734
-0.0375678884441298
0.03784586184956784
-0.04866268479006244
0.012282014211813205
0.036070671212516565
0.05147981468658593
0.10790397154414119
0.029962280832844097
0.007797412312096355
-0.05987410724903701
0.030249204043351106
0.06017986787713214
-0.003750098934978447
0.0023897413889368622
-0.06219785475971895
-0.04567928236555301
0.01782683958004249
-0.0027455309520716714
0.008061870519599511
-0.022535253904170514
0.05651145050467929
-0.0381617918093847
-0.025362615517253113
0.01882062412677718
-0.026168933064692528
0.03802112750828907
0.005054338617651212
0.019721348949311147
-0.015631689604687735
0.02159857721882082
-0.060030229898943036
-0.00046460206915450156
0.07397213353892845
-0.04018730826745351
0.03613074962951206
-0.08852001420959651
0.06501750172120138
0.10687322354257965
-0.057564452143618744
-0.019132287675235126
-0.004145034437894391
-0.0027121767064137224
-0.014535268543843497
0.002828344863126774
-0.01881276786839956
-0.007964987961496727
-0.01417799581338721
-0.025411857477152706
-0.010494172979305565
-0.009219156988208401
-0.006417719611951837
0.05010651202003653
-0.006954601134077054
0.03782127526855384
0.029545564448199835
0.008302942851182759
0.02543929102966301
0.0291773108430886
0.0151675110119739
-0.0032767911991979396
-0.0033699970288790988
-0.02670735563644583
-0.0010937322189408852
0.0009419261604875425
-0.01006807753658946
0.010391351242348374
-0.0034029805625348684
-0.0014344515465405498
-0.003941442776002445
-0.002029995066901416
-0.026915665254591284
-0.002865127838521939
0.01705089345435529
-0.002534327674666348
0.0008182542306890055
-0.0090989397668623
0.03600730710123304
0.033212959130320886
-0.02876954878480049
-0.034346355561319195
0.053645802013958604
-0.13525829326224859
-0.16537979322947266
0.028421651776801747
-0.042502377473163426
-0.03643936168542177
-0.012538723298000909
0.02023115494026724
-0.024173460928496485
-0.03206026359818848
-0.009201529224321676
0.030047684315467886
0.07821923443056925
0.07502504160488813
-0.009145417423904116
-0.008051502205338786
-0.01047809084542761
-0.037948848275312676
0.0072455860333294105
0.03364402813610234
-0.02237836580062641
0.04650117814766352
-0.009483228457019455
0.005478863836477387
-0.05224817938229067
0.007728622899171566
0.01955880723614431
-0.025258019934231473
0.05669640500623228
-0.004226886518949879
0.008306604231329714
0.06706591721805533
0.031159700816634585
0.0018893612874403315
-0.01773698237227906
0.005508393536747569
-0.011826314311845873
0.022640171742673767
0.06722132622528075
-0.016437874595467923
0.03704431566466491
-0.024647291086307564
-0.0010419616447874048
0.03589011925247711
-0.00407344401561919
0.01022939796236252
0.04095263565939442
-0.023969623446764565
-0.05235482410113417
0.01943608705553643
0.055238902879978374
-0.016245030536843213
0.011252188132329978
0.0107019928472047
-0.0023000909546089143
-0.033394008436169326
-0.03158030556947736
-0.018039430903777513
0.04319586917947082
2.1300942333559585e-05
-0.037344114648451755
0.03077930821177947
-0.0649155383026235
-0.04182928878420248
-0.01949958984800445
0.03179755934718318
0.028129497969356303
0.01155748708847449
-0.008361178930636454
-0.015619932524363141
0.025158958908603733
-0.03384276984836637
0.006856851058314525
0.017580738618159727
-0.00041716978158539336
0.019563924958533725
-0.03673298673980369
-0.01307468346707631
-0.00956059030506384
-0.0016423340625537873
-0.014032428990035057
-0.014559632399902395
-0.03391139696230525
-0.010148063691540813
0.012795044497275265
0.015755776939881682
-0.029454614623318366
0.020560910038230237
0.0938282763474663
0.008678918663530846
-0.03074768780364392
0.01796470672404102
0.0668976328119228
0.016485507915900567
-0.02789030864964066
-0.0322268271461827
-0.016395893916723588
-0.07930525495261957
0.025551647118127487
-0.005526644836196075
0.013526456987805023
-0.00016743706870624557
-0.02858916290239578
-0.03599241897013062
-0.030264945392612302
-0.01581246669254034
-0.008550217792097496
-0.009670497211959927
0.02524512802637119
0.04282641985050407
0.05249604571394016
-0.022966022507567043
-8.806373916835197e-05
-0.0034360360614994973
0.007032396615690285
-0.04222455431486361
0.00031170384516441386
-0.06124137642462344
-0.0752542386136148
0.0405488884425103
0.09449201644124482
0.013462281726576339
-0.019543840742020976
-0.021466088892940167
-0.02894217246624977
0.017026381572174815
0.004496991437312908
0.005354074713751991
0.03212416004871458
-0.0779231405102885
-0.034751449028928495
-0.025247785787744944
0.021743366218027502
0.02823200437880274
-0.016930948044456978
0.036852645995850135
0.04533406376844691
0.11970444432583406
0.20674141705758878
0.03426355865522202
0.0049985155138372265
-0.05012672597835287
-0.005570574914858371
-0.02778597769592618
0.0530849766251044
0.005133493672598379
-0.04213575701545468
-0.023925954621767626
-0.029289311772615807
-0.04258136937204699
0.03481331904087751
0.044024153272149605
0.0004347871865292432
-0.0023831673816779447
0.008792659445886218
-0.0005907795463654019
-0.0016043195475486057
-0.05012169851104196
-0.05311858161477137
-0.04568815930786256
0.005910593350078444
-0.06286429023503505
-0.02105328003957577
-0.06258051918430896
-0.01581922076044558
0.027498026447365383
-0.07261874359907661
0.030684393060287033
-0.020264022589512848
0.018884138389224217
0.0052983126730577505
0.03341812250902489
0.1507173655850651
-0.03862780187719286
-0.020718830040111283
0.003126856940148149
-0.04331903143001164
-0.016208417085399534
0.011455686811432974
0.023694700816027252
-0.04401820813787957
-0.030779633137515416
-0.008662449115061213
0.020352753552968852
-0.030616403062755614
-0.012084244971913722
0.007894682214202581
-0.04476242755386186
-0.00959575653112971
-0.00114220163834011
0.022238113513319425
-0.008597659312329878
-0.008137878057731505
-0.01394443304243613
-0.02600153758724731
-0.03370999976453622
-0.020803564469984544
0.16144662699029227
0.06508362684334197
-0.0040243516264108934
0.015346540793645837
-0.0018546709518020544
-0.005996031943149212
0.008388544788714546
-0.029310338708007158
-0.025549826615256097
-0.04118051170991121
-0.05865946900462995
0.13183569253245697
0.005164587336608751
0.06536720106227951
0.004193874432122438
-0.07416087297230291
0.002899924047801232
0.020382260584121542
0.012571190164149431
-0.006155476800515888
0.10947058666256088
0.07360195627946915
0.08361506956842941
0.009531608432168126
0.01679846279100137
0.004756528734425408
-0.014623200040657914
-0.01928934814221415
-0.01486635559530412
-0.015634025127639617
-0.01725951570000791
-0.015853722171142247
-0.014338865858027124
-0.04170064252113801
-0.021103986900332466
-0.0014185237149541184
0.01235440359398381
0.05126167811671688
-0.026933099505913192
-0.022260082210955073
0.004788927031322589
-0.020415128649393797
-0.0024272221843743545
-0.039049373200678486
-0.008954009407979939
0.020507804235819882
-0.07967969454745691
-0.01262632889428799
0.02771402998546688
-0.014119430986494416
0.07305815494774764
0.03295410562925985
0.00013269881755120655
0.037258466322146605
-0.01350514597545265
0.059559026630532946
-0.1140458711706436
-0.10873319409044212
0.03784716954378716
-0.042154678897432754
-0.02238983396327324
-0.06295365627780167
0.0005501385416132843
0.007569137590998616
0.01887150226344554
0.011265393134793416
-0.047020080792091495
0.01309465269290769
-0.0039846225575805826
-0.036128723174241054
0.011253648857490275
0.0044021608900617305
0.01696227079890558
-0.02140887257244772
0.04385122790558262
0.032063489745411386
3.14192466672061e-06
-0.014406346728975101
-0.027161583601064625
-0.0051529340656387285
-0.002030102453953412
-0.0015199154022224538
-0.007630022366377071
-0.13087130208578987
-0.02654613967318857
0.010436739575537377
-0.028020127265221455
0.01211737690695781
0.015809194844832494
0.12736637392506564
0.03525764307752985
-0.05312676049634153
0.01272297459170207
-0.01684518022255904
0.00040839524588374314
0.11745772690675767
0.13605134143355996
0.05573776909918302
0.033673377766773815
0.034100282583306725
-0.04044916710331033
-0.006995403346070352
0.03385165131613481
-0.023254890058554672
0.007291462615955986
0.004755615911830766
-0.03689840545464759
0.03367693373230192
-0.036658984224581234
-0.02356609596399447
-0.02042219610159306
0.006189632753310158
-0.03341399606552919
-0.019366398900455363
-0.02973566695424824
-0.021139853506079682
0.012974680801721115
-0.01660970753000881
-0.001972322022778662
0.0025980039781361213
-0.01689829183741779
-0.015044972820741766
-0.012893946264377829
-0.022296936935019183
-0.006944606816690697
0.12853974568990906
0.03884113400809608
-0.054214382188253016
0.014707280631657367
0.012408435795749866
0.003477050335505827
0.0017274949891966122
-0.00873650194416372
-0.03272490566513111
-0.013151117210663954
-0.004502703200966555
0.0012826231280883896
0.0109034334045453
0.015801580475890524
-0.01816783386472661
0.07856664952540392
-0.009262325690612463
-0.03226080655732941
-0.004045912818419883
-0.045740513622536755
-0.0171436667246709
0.051637961722911796
-0.0420585725729115
-0.06791397141391861
0.021739970586762327
-0.0409645039079825
-0.034131655467892555
-0.010973470444253548
0.009341335374839914
0.0400019672329714
0.012724238215960255
-0.03214639012195689
0.028800121868639506
0.04451723734102025
0.06743297878265701
0.018134645480902722
-0.007742037840340235
-0.038726089837419916
0.018313699830214178
0.01316714708948858
0.015950332818619534
-0.023470887989604006
0.008566453707665955
0.07608100577780533
-0.01635603235950667
-0.03544104732246644
-0.008949642411656486
-0.0210242182687124
0.03701449506559435
0.07233664941720687
0.012689594570229916
-0.06640429815726742
-0.12184249795890663
-0.005016692549481694
-0.006168655432132324
-0.024596038860360506
-0.048558263077397586
0.0007213997286692733
0.019687719893493383
0.040412031998676934
-0.007257169045124127
0.08649017509693922
0.023479830272752675
-0.04189052312249221
-0.015700060905505138
-0.02065432061974973
0.016894103168646944
-0.024102300626209213
-0.000651980039954297
0.04087139453085756
0.04755280343182446
0.004548393433099921
-0.00560689581842538
-0.045032625643356555
-0.021433298908107187
-0.016273364189558208
-0.015636015501839375
0.004326777737472207
-0.01123332410344955
0.0016215022844265079
-0.0064341725550184385
0.025243982236519934
0.043064385784839974
-0.0043917545034819466
-0.039844568108276135
-0.0197188826498326
0.16098963651903228
0.061359283119451574
-0.024076498455590095
-0.10274579802268079
-0.04963500861585784
0.03195776001396487
-0.06564100512725266
0.02695560203889477
0.018944031522350274
-0.009866516095080666
-0.0204262187979537
0.029847004709579905
-0.013216988166765043
0.0027609281210483083
-0.0015042670024368477
0.013313400936043197
-0.009994194956422783
-0.004405564220210293
-0.07303410868237713
0.03081005007974539
0.042867439604517166
-0.08868411297389531
-0.0039051579140024365
0.024844415629741025
0.02222034216271809
-0.0001583386068426427
0.004686489680327508
-0.007098918060059358
0.002650272694993641
0.00835107581136014
0.018322354406287857
0.10886757626447392
-0.01479923577840254
0.00013370274310873123
0.02202478656755267
0.009649251550780228
-0.005888595716978392
0.0022858904287514003
0.006619206446098271
0.012657330201926663
0.004839479030159079
0.006525537248050541
0.011328986336725806
0.040085505200096
-0.0639783150470419
-0.005392520434820274
0.04735028469287581
0.0001003157230628918
0.003231853037696409
-0.09507140711577308
-0.03730252087737072
0.0017119215272132832
0.009313212461540168
-0.025550851032104086
-0.017619174215816418
-0.04592594702633213
-0.00017465489708378158
-0.012350173352340135
-0.03224239796312702
0.00154328641051265
-0.02803257449280917
-0.0025101536360958815
0.033776842600674685
0.015626285852046284
-0.01361571159116479
-0.00010621732260155708
-0.005239590489984325
0.07545476350047903
0.026773291793678097
-0.012340522939060324
0.01701944595816079
0.03092366024125536
0.01488679416185948
-0.03775048174832135
0.032825724909214635
0.032775171289761505
0.022919054208663293
-0.057637020409188014
-0.09470790949737463
0.019128432745519005
0.000735541499577521
-0.011891281796836935
-0.023270464234302488
-0.011954234557299862
-0.004296620424441954
0.01687129691149547
-0.02756598327278755
0.007900043446449472
0.028961748511875593
0.010992990858140353
0.04386981070301189
-0.010523087146076417
-0.021505770574319932
0.0050404306803821085
0.0225178729562198
-0.025309774163531678
0.015746721919698822
0.009283885877520772
-0.0314571847531122
-0.06583574368062842
-0.061443161079161125
-0.012662707281308408
-0.04155892180937319
0.011843928907118408
-0.0325161990709125
0.004655137396217363
0.0433270092402974
0.1591204725689267
0.006308135343782224
0.06706635137243261
0.04514307545782655
-0.002363884393628615
-0.020350639387728787
0.044313817013027834
0.09769033265524682
0.013243957959089213
-0.020143117623425424
0.024208010423743244
-0.01673847929201203
-0.2211127052485745
-0.006870786918889967
0.04073209693602604
-0.0028962001239601696
-0.023310111677993798
-0.04824582257089454
-0.00971344200912005
-0.001499380993495015
0.04736389614085206
0.08548361337627274
-0.04018620789638116
-0.016181978236502255
-0.018092493668565312
-0.034153823623494416
-0.02265283000441501
0.006275944064062288
-0.014811460517159982
-0.0029722101625674576
-0.04969358046678608
-0.010405729164648733
0.08247509660151611
0.005765854782140483
0.005251187076594712
-0.027113587844562175
-0.02041996801744405
-0.026556458763870285
0.006295035449658389
0.03260402553727442
0.06393151513071463
0.1316379660347264
0.06400233937586934
0.06423531943735837
-0.02565981234242675
-0.00800236651879101
-0.01839852329007125
0.0035557475421097253
-0.03905874592317666
0.002667152746154488
-0.06044683782747287
-0.03558830279600101
0.013394546262385263
-0.029236882470345622
-0.033898923564288815
-0.010180428693250159
-0.0023345560157264603
-0.012428821087930631
0.0048390342972836975
-0.028701596209567463
-0.016231345033498792
-0.02664914838516909
0.025992360874601786
-0.011091239198542362
-0.009613755654857321
0.00372764264177382
-0.0015961086295072156
0.0016499084333407683
-0.029452567410713476
-0.026252619457071143
0.05561791218526549
0.06979621586587961
0.006165563940410069
0.011599439307380437
-0.004436892075302376
0.010000057456571674
0.030878433977664845
-0.014456965779758272
-0.0039184238947718875
-0.012189971886842293
-0.012247825852083028
0.021044326694543092
0.02668289576658553
-0.006949785758403223
0.017560036446508616
0.013523314891090904
-0.04049764659333208
-0.06955564948137494
-0.05310334855393532
0.0652376955524205
0.042292169162575964
-0.027505975044329514
-0.010408336086949379
-0.011700903831974021
-0.0045855315528920484
0.028041776907943277
-0.047555253643187606
-0.017976211717165087
0.06362261841212558
0.014047378881495811
0.01893303847697231
-0.020125993472655288
-0.006321430978133854
-0.002795430200857352
-0.022541550090326747
-0.00912418122688718
0.007391487321114372
-0.024477681376893486
-0.005878803173644459
0.02882860648324041
-0.0400503935819558
-0.1371572115528608
0.04454037837644129
0.022974676436228896
0.0031970722694239758
-0.0035012286535006953
0.019021725709900704
-0.027739009779620308
-0.010860721326826035
-0.021492156434221418
0.03179610251098482
0.03236187575379761
0.06667333622791974
-0.017982930065171356
0.15547239239044966
0.08822253573825964
-0.039847053699416685
-0.0014762127538540412
-0.043043369999267785
0.039139972140650084
0.0458310731112081
-0.02351847451152162
-0.04018201945906135
0.023922704909045134
0.041471814506001466
-0.013010129528490127
0.010573559394265465
-0.00014493143747453723
-0.017276514089808105
0.013129225008298403
-0.02806974011668422
-0.0331511958940087
-0.010183064281754004
0.002691273432782679
-0.038168891462206395
-0.09568507273676907
-0.12084030388870926
0.059309206251647734
0.011595674870430863
0.02052843534201236
0.008616004603558724
0.0003944391213047353
0.00017898677921950653
-0.04778822341076112
0.04344612263758502
0.010291144370593922
-0.018296208027471693
0.014339648239629174
-0.03393972501049451
0.027297110899940864
-0.024104985961349943
-0.048175577447619924
-0.007770137398699729
0.010155576661809598
0.006910601073123837
-0.03310828357352505
-0.04483649703437085
0.05727416697014516
0.09233665081588524
0.0122980000964095
0.016005749838840594
0.017277217457300553
0.019170780907835566
-0.012800487716198438
-0.003724408271931219
-0.002813899894940397
0.02321610824424691
-0.01773020948244148
-0.0028616099260654277
-0.016822020102498905
-0.006065010830482512
-0.0363249502546126
-0.07951143012869624
-0.003822166091539867
0.01479996299625372
0.023507358654483366
0.03014894674051835
-0.08358498911747646
0.10504087112226189
0.030242602176198185
-0.006037586527534824
0.03918964223742837
0.0018278622856153796
0.009654741184235713
-0.03069766111180945
-0.018299072898973524
-0.036972980415451565
0.00024763428779237857
-0.026553366118442945
0.028968658846813173
0.01868977887322135
0.052032993740959654
0.10936112700416047
0.0054183850241542215
0.007708746281580809
-0.012665984920303842
-0.02844945716586509
-0.053693326104500755
-0.011167886106349334
-0.018023632415811095
0.008568360272391232
-0.0019717718421574403
-0.009696754934515871
-0.0033445258219086975
-0.01095154818264359
-0.001660756297164389
0.018994233817052373
-0.022865827399830913
-0.01152872083341527
-0.025521174033949497
-0.006218005094695939
-0.010324239347145558
-0.009578230534534429
-0.04502429460892133
0.023036062736455074
0.00445536876119622
-0.017665790989234313
-0.01607900132851967
0.07445743131128613
0.05009274004941196
-0.005251302370687102
0.020008473604007343
0.07270344602057512
-0.005144937417281587
-0.00146616250185165
0.0009299048328966289
-0.0012232575187725982
-0.009408883720808291
0.017343087058350685
0.025742013617967144
0.0067346058329887624
-0.013527674101422107
0.015209823956189897
0.014107979804402166
-0.04956348407934572
-0.015033032107812708
-0.04107293976690894
-0.04738114460065582
0.08377718796545935
0.00644798139952198
-0.04193507172964036
0.037192351680646024
0.019451307591556465
-0.011045292677042464
-0.013642532636049136
-0.025452766945280404
0.028040100126391968
0.030772988713824785
0.03206242073277254
-0.08911307879451874
-0.07768536392727979
0.002232138552583935
-0.03850916107240579
-0.026565414685362585
-0.11205704197177203
-0.0014341203438126798
0.021376096241672717
0.00677206103987401
0.014511216804687081
0.06638340230898668
0.04479983093836887
0.08711211443098467
-0.004042334295790141
-0.029586760895293152
0.019353358348437284
-0.05091701057315817
-0.015298128213798933
0.006652495266667302
0.0056384338782256935
-0.006472598475593125
-0.0196386775206503
-0.009824175208138927
0.04591894485919646
0.06213744019761125
0.01833731697377961
-0.023525221956378437
-0.0055691159334923185
-0.008576386678703663
-0.015426510644499437
-0.023210039324495533
-0.00605012676180329
0.01534429592899236
-0.0013785127917896086
-0.01152153938609134
0.012817270858047075
-0.010679891464926558
0.03267949737611608
-0.0030570592617839157
-0.006539848817160899
0.0038365337158951717
0.010885372062247572
0.016628547987389466
0.01821310756971622
-0.009963897614172958
-0.018432131330901828
-0.04456865915412647
-0.040644871506271274
0.012561559826971406
0.013633337660195291
-0.014366663773199225
-0.039724057599946044
0.019039220067636864
-0.026223812568078615
0.05085112602541894
0.010748057977852526
-0.00449709898152934
0.054314790149142936
