0
0.005014546125345291
-0.030551464241743376
-0.005279946526268323
0.03851749699830399
0.0065478737664592815
-0.03588146239557825
-0.01856296371315928
0.014710107295894831
0.00969456295419661
0.006626429367170639
-0.03085151139324356
0.02090229380077349
0.01388659370555917
0.03132126209251172
0.055136559195104726
0.011749180103849096
0.09680800791163642
-0.05301356732591903
-0.14702121169899912
0.019778960857876175
0.006990459587273633
0.008793673107057703
-0.012692986399054751
0.02234735039002036
0.010644429358370228
-0.002514087903636245
-0.17284693319445352
-0.0054193951310364296
0.030606861226725325
-0.029563331095431484
0.010436611118315802
0.030489858521210528
-0.03384311880889196
-0.09805043075048188
0.03775082859461277
0.04227806676323501
0.025349355294408724
0.014312821817446178
0.0005035534085307784
-0.025639773072779492
-0.01005015863066757
0.05170433438725769
0.04218406926729907
-0.016626915257275394
0.09686882259458504
0.10863931846256276
-0.008636036052749655
0.0020307107946867242
-0.06034152867905962
-0.0016995631558066825
-0.006621677593902274
0.03233401347896675
0.05180950153656358
-0.007601568897851246
0.017777293232886564
0.05473041614326889
-0.018707708302378803
-0.07797053017327225
-0.0621762587422118
-0.0019114571583513113
-0.04070783241431214
-0.07944969897624052
0.007640971573029593
-0.00019825794788523623
-0.013117280723608035
0.040670895469018364
-0.014731598177555151
-0.014039383590107056
0.007160647394865792
-0.005579480185041027
0.0037831463938872325
-0.039681170905337654
1.3686890104262289e-09
0.010502119122626812
-0.010367856810048872
0.001090665544134678
-0.011962266341637873
0.001330516699825663
0.006017345645087468
0.03655024010895686
-0.004299259697277255
-0.04882568482615383
0.0038569151752132326
0.00835136606089388
0.0012650119009017366
0.017775894651510058
0.034150828966329747
0.031211264059044057
-0.0019703977207728785
-0.04683536195032424
-0.001776396897976965
-0.044540689108444796
-0.010759272897239991
-0.007691567797186445
0.14397949118738002
0.0662682827585592
-0.0226886915551262
-0.00554121344114121
-0.027650984901052746
0.002508321162136443
0.05657306167394804
0.03687890476177211
-0.015845477673211653
-0.009640537225320203
0.000197936734018206
-0.0009064720183017389
-0.011563275874319288
-0.02665776602844905
0.04713742970768713
-0.08537428412340822
-0.09535210499078921
0.027821114536448113
-0.01992728252497679
-0.020864395752296108
-0.030019055324904044
0.009338529047334742
0.04443212605328885
-0.0009111014268951138
0.0031716197165578696
0.04036850424530382
0.006386851896552967
0.0072193444170861
-0.015828806242963418
0.0212949103121603
0.03477087306605389
-0.03959131905715835
-0.04498279390553816
0.04334138757284074
0.01521439428744245
-0.01701031644321981
-0.011419399515156898
0.054342197777572265
0.02206632570338049
-0.023227062068327857
0.0931260330784452
0.06185928051815847
-0.03065351294528086
-0.010172515239956695
-0.011722948903312628
-0.02195381670862127
-0.034332456419781845
-0.013645827906493883
-0.010994904554306207
-0.036168626355310325
-0.04997225873108189
0.025911832093943644
-0.016773243346740227
0.034053482122153374
-0.027510092451436097
-0.00837920773143011
0.06640724956858722
0.03211154612411187
-0.03160433741375304
-0.029783019915924212
-0.0449284067529025
0.036685286761879
-0.016802962991425075
-0.00745489509126299
0.011983245108598209
0.00556472456097055
0.004689320365390739
-0.014556540938134136
0.005492367380379149
-0.0016392051083975344
-0.0419025377476625
0.031131766472060552
0.025413085403047646
-0.013260070968066891
-0.019108801606333537
0.0006717455654439879
0.014016170119033642
-0.021958498262905694
-0.012304129092681634
-0.006524595833673306
0.010845653222783781
-0.01662409800667414
-0.012393755050060573
0.013810752450320525
-0.021492682724669407
0.020206631035496796
-0.03048183300989944
0.05628471840058438
0.126471912521987
-0.038080669864875655
-0.008347276469778954
-0.022343083670448304
0.01956581743178384
0.06387208178954633
-0.011671609143486342
-0.019622725718026132
-0.009793332534270833
-0.02720358525102144
-0.03358604894057642
-0.0645902932062864
-0.027822554022629214
-0.06714142199628487
-0.03683389124755642
0.04999126422495707
0.027619943537304664
-0.002724204943184853
0.0013730381704455243
-0.006423924625520675
0.02836529974810862
-0.037618193901987805
-0.02230753253624078
-0.0001454197479068916
0.03831126592526567
0.12629441403798328
-0.010274404126662225
0.036672565446436316
0.015534201730917133
-0.020043288384745107
-0.024633632079353457
-0.033276742001397026
0.015546038590732048
0.08915009396464457
-0.029804440762623563
-0.024132245292343316
-0.024374621425126586
-0.01637222364603223
0.01880107956763539
-0.013096394632312148
0.012366597434294723
0.036175058642108085
-0.009485388419638472
0.013538665498584922
-0.035182215737760876
-0.010227965399767374
0.0015291218449265483
0.02641525418854226
0.046283550532763174
-0.0557481669383232
0.0031777602301267934
0.06176879769171569
0.0011086947389108593
-0.011451828539245474
-0.0032749530935872826
0.1007612668156818
0.05760857144482549
0.00506696251010698
0.03344685831206594
-0.04262617854610937
-0.018802409222108338
0.001309256827870236
0.011202313850969904
-0.03269042340253569
0.009210493137920567
-0.053408096180098445
-0.007382220693962355
-0.0438473222229296
-0.0032574612174540926
-0.03873338980580692
-0.030528485622765358
0.017355813656493337
-0.05086612076707395
-0.041130371698704885
-0.023616924750547653
-0.004995853622314162
0.010556906081190441
-0.011917679498686329
-0.045229487584706386
-0.007061268468764825
0.01612086439809015
0.0019032365273107283
-0.02060677288458117
-0.05718572152626391
-0.03236836102330672
0.039389070865918745
-0.012700506353200712
-0.01793159700070789
0.004222652555905954
-0.008699557000924361
-0.004606594065488515
0.03243316308863836
-0.0007188677320573775
0.006509831642638308
-0.008407766120045863
0.045688433224063026
0.05597422501764972
0.046832031056583935
0.024604042289859115
-0.1249676756830106
0.02145347440951535
0.006424882375353398
0.006423403989889717
0.016145409872199683
0.04686372299380264
0.13007829771277604
0.010474913723329196
-0.0019120659096576837
-0.00010400650728281704
-0.005941987600720253
-0.008695064175000333
-0.01020534829036376
0.03880468283721134
0.03793914529154815
0.03545545887079404
0.001941707254753173
0.005781906239507345
-0.02687465805673622
0.012361151843685737
0.0665643717160189
0.009926933150335975
-0.003814371976794951
0.003308870100552724
0.0012617002182299267
0.004815827538895212
-0.09243085133588264
-0.0768807393147814
0.0018257848431853527
0.007211797489305688
-0.009270166146094569
-0.008282717254955711
-0.021074505008549432
-0.07093361474038133
0.00015897819274943186
-0.01647814740129038
-0.0015122387482503694
-0.012951228323083899
-0.04864503616632294
-0.02175043246823627
-0.0040931477441593775
0.002040634610993338
0.05915070726362576
0.09780982868676867
0.0224752981644829
-0.0511004813914815
-0.048821326235090556
0.014560553437246364
0.03646949736534879
0.03425610657221861
0.033256530068613385
-0.07596764424577512
0.018233203694624424
0.018612988774718727
0.012512318716594563
0.021044787949499405
0.05926440862113953
-0.049622689772016094
-0.012416704199997297
-0.10819470341529513
-0.03583541633417416
0.04480358155588943
-0.049922236081492245
0.03223375246011012
0.03529611041386783
-0.001783541392804414
-0.044521417107625395
0.06569948342282177
0.05041409856066687
-0.025007582521993966
-0.015848168133029392
0.05533772060277669
0.06057418114119183
-0.05475249632240476
-0.060361995084235474
0.008433213149521996
-0.001347249746385475
0.015341655613080155
-0.027190577951322892
-0.006870770454092893
0.031283271276788545
-0.027326051227852817
-0.09358632539424798
-0.01568159669139303
-0.09149311048696397
-0.009016199136420225
-0.02804950005129758
0.0366882030765953
-0.031609420441510945
-0.014653404950136121
0.053836605861174607
0.049654553276181415
0.07567791744833087
0.026833271494668662
0.022692762739975333
-0.0123505244502012
-0.008494860988456046
0.07130234438470225
-0.00013130414637329074
0.007641305028490918
-0.09235167999404031
-0.044434092720089406
0.01096304703249499
0.013813518065299853
-0.005699374024418083
-0.002013102586632505
0.006136235317468167
0.03394333106042394
-0.008456724769857262
-0.025021983078530388
0.004235876337097539
0.012455770796080944
0.041185917962973426
0.048257421966712094
0.0008036671751082078
-0.018548274816395087
-0.02064735121040216
0.07488765803502134
-0.09786898359399289
-0.14103113923556715
0.1824383480841378
0.032110277957075974
-0.03517862866384037
0.013554054366015493
0.008774467673479653
0.03558495102218115
0.016640530451995133
-0.019189447029302788
-0.005025206012934547
0.0014466753853479904
0.00896198395325702
0.024208764507422393
0.007972610957754214
-0.03318504549328264
-0.07768848605729521
0.03362615516132309
0.031764002910941155
0.007771788575457209
0.010817518519857773
0.07431049918379898
0.027921666950964076
0.0457623101661856
0.15209170745428247
0.03245186453529464
-0.13088291877402955
-0.05714151490436248
0.0015770228298877666
-0.03200363286302434
-0.01612136494271723
-0.04564766040628373
-0.006183846873584466
-0.062130118245614006
0.011678788460260913
-0.013498537423679673
0.003257665097184773
-0.15569448131748784
-0.10212253406829672
-0.0034368855799447938
-0.0006927273001845165
0.0526441986921747
-0.03172816085945283
0.02825398787062727
0.05177827065358682
0.051451127970360826
0.016963029165683506
-0.01907477262059081
-0.026952722980044884
-0.035698844069630524
0.03369773057166617
-0.026918633580074038
-0.03463279448452781
-0.00787313808612336
0.008872282984164615
0.06488051261273715
-0.013547639214210474
-0.0165053821791955
0.0015665363482570626
-0.03140604030473685
-0.02205697547054957
0.0024967594253893495
0.003461390541433968
-0.008212743324431015
-0.04092335985684703
0.046081729122696
-0.009891057738197352
0.1098736164328647
0.06156978033770723
-0.011053903364559105
0.03400264028653265
-0.0028345030808649137
0.01812676175031949
0.02459207825330786
-0.055182706105512576
0.009813170406065292
-0.01115174377526683
0.07741904756720155
0.037497249377998
-0.01915671856999398
-0.0003805244776871694
0.0074719811526901435
0.02365632731307124
-0.007128616361152968
0.008417703603573252
0.01724023984757678
-0.05387413989295083
-0.028615062172122653
-0.02685517403663532
0.018586146947585414
0.01483051329728205
-0.006445182756697527
-0.0317249695225488
0.0015718604843013024
0.02600711354628604
-0.003084855614067561
0.0010799522929441697
-0.006490608040379257
-0.03646558560148072
0.017976236125790728
-0.023774088519336174
-0.02025935233688092
0.025106289056053836
0.0676207577446227
0.013727067633340436
-0.008501878702333533
-0.010653176515789493
-0.03995684549497239
-0.05363576376346692
-0.03217507414357009
-0.014818970387819224
0.008686925735579986
-0.028603318265852114
-0.01968902077784895
-0.004302173558478885
-0.0034886822659553527
0.006149951567554157
0.011021056432860476
0.020638419778495894
0.02342949069223172
-0.0330080076969871
-0.019856743471177368
-0.018061153897763093
0.03183276148142281
0.06520206592376752
0.00031365373541513374
-0.03239002115816433
-0.01001514927476766
-0.012399511278534224
-0.015050336612301799
-0.02862576446964627
-0.008805992424534467
0.025756199590001715
-0.0068409864748335885
-0.00829147186556737
0.032508261665618605
0.054456891510515984
-0.027870805587560585
0.02708736568000368
0.004061926551833117
-0.013399707384869418
-0.011726164974511911
0.011913178470105748
0.029796035457122328
0.023240078812472094
-0.03730822651938696
0.10404679153865952
0.01748465953393481
-0.09490549397818827
-0.03314832952886275
0.02866666534768446
-0.03134048275326924
-0.015014153533708411
0.05579851319618007
0.002718113773916186
-0.028673277642529662
0.019156013169192545
0.017914494501611557
-0.020011366351107507
0.06198941124074709
0.03491905493345534
0.004712451253511212
-0.06481485756706193
-0.03639433388355087
-0.009352370417826982
0.043503570711976323
-0.035962035438858266
0.07247739389137992
0.14670491092053112
-0.08895509352090769
-0.06961396892460259
-0.008991340297692456
-0.010484887321118954
-0.07303335537150243
0.0381424648658887
-0.020864678742053954
0.02473648589581207
-0.0055936999674813595
0.05142572217785643
0.06743471698434836
-0.09566616493237655
-0.13438777434841676
-0.0032967984227886527
0.03388785552307243
0.012791236175256734
-0.018111725831369902
0.04086678319774226
-0.012575583477117817
0.011416551503306286
0.004807796231457195
0.038348705699079555
-0.024683052384158275
-0.03469337922436613
-0.06058035177953518
0.004129355553767266
0.0025141783556558673
0.014952861351526342
-0.06510491321538703
-0.025600648015622406
-0.017503586908794378
0.2077348610140059
0.08171542491744474
-0.0600239423307494
-0.012936026350157446
-0.004508151908952993
-0.00211667037035897
0.02045343865627219
0.013587405445992738
-0.0563711400469111
-0.02261863250095198
0.002220237315123469
0.046480713248369505
-0.014306381029555185
-0.019999517525361648
-0.0019516275842544368
-0.004866089396044437
-0.05664161244692522
-0.04979319855014329
0.057854143046992705
0.06619014825548061
0.008485709972443469
0.008346405847305113
-0.020307693094589494
-0.045609520322290285
-0.005679773319013864
0.1057969460421115
0.16778604537954478
-0.019938407845183848
0.008605613353484535
-0.05227170774112674
-0.05292050494006766
0.008605429283722875
0.023918677993561684
-0.05460876465950132
-0.0935785539192876
0.015769538637590817
-0.021396186870738042
-0.011983763879817933
0.08132633600765597
0.10340510632665283
-0.04930818172865353
-0.014037785932540844
0.02218264181192633
0.016601024204074173
-0.04126622707806465
-0.00043938490922166976
-0.005717214865296638
-0.0021563909742190455
-0.02138870240765217
0.0023145013874112373
-0.03898093438786096
-0.009589364881426032
-0.0056005076026948465
0.029283821136105153
0.009918039448192036
0.021012689036809733
-0.006840275371121428
0.0046724777380203015
-0.00847822098294616
-0.020069717622478462
-0.03919029039052325
-0.003096658825345771
0.003653683368828057
0.0026762290510829777
-0.04764156793795959
-0.0539067384298488
-0.06204961329158832
0.07298502982717597
0.052015724019534026
-0.04847944440996691
-0.006458889994018922
0.00828779144936141
0.07554188879594849
0.01934220695311738
0.05356223678445646
-0.005326177194052273
-0.090394499387656
-0.013204585214782174
0.0676242603490344
0.013067750288268874
0.012148276702984516
-0.01112411737834438
-0.012606892103402286
-0.04831189059952091
-0.03807441556574406
-0.003918445472289542
-0.03707288500631141
-0.015350096705827734
0.030405227951894417
0.002100594638935897
0.01660118557415333
0.004232282130781527
-0.019139233936011284
0.06844753371753982
-0.020623687113533944
-0.003600464118236232
-0.02706375626470557
-0.035768708499666006
0.0058322714758504155
0.02100361975431134
-0.09103030054940837
0.08434948971495036
0.05473555473246629
-0.05262970434847484
0.039196044602982344
0.004069434048810142
0.003890825909372905
-0.022533742452607978
-0.04806568698965417
-0.00468115845161195
0.03446743302098194
-0.057102544121771265
0.024000785092091262
0.10315373917047785
0.14513915031732
0.06742133041257134
-0.012412430573007888
-0.00793898534215013
-0.025675481899988285
-0.0711478969331508
-0.023068278010992017
0.012421971361287181
-0.02045720934262653
0.0018737377396748198
-0.05382775576967091
-0.011325308233485418
0.029485395341877132
0.08016039556461382
0.015335838757183844
-0.030986979793529323
-0.03239880354757057
-0.050442703673584416
-0.011122415627178696
0.006154060156738716
0.016137172478873224
0.012034698543941227
-0.024465583806362642
-0.130754946277319
0.06972427711636896
0.03748480649864813
-0.02857053417672515
0.017261130387657118
0.00631873711345145
0.0721277247390984
0.081363795542654
-0.042916268147461245
0.14221705613990146
0.10865155618256658
-0.06284136527074644
-0.016764070286017584
-0.05647803896861101
0.0019313212670153035
-0.010161528536303963
-0.0022128519575974046
-0.021378115805151247
-0.01641810670281675
-0.0022236165802228657
0.0062128844580462035
0.005265852528832062
-0.007532503542302092
-0.06658039874930088
0.0047229938288180385
-0.07880609785223987
-0.17971064861645336
-0.03223365734831422
-0.009592224337501218
-0.018792129785761214
-0.009161853339899672
0.006040019528622975
0.02072403308666557
-0.021998231088734586
-0.023515244742998456
-0.004827262620357421
0.08945851866329348
0.08332131734881056
0.017435805042600925
-0.009982092481885793
0.11931553414003863
0.07082591319754364
-0.04294274854254121
-0.02280351901846536
0.00437351131604673
-0.02439061731888906
-0.04835856244551675
-0.023396464653700388
-0.026342055090720854
-0.05120282133686772
-0.007372399877722668
0.0669085414244948
0.058262311410786506
0.01800674556646663
-0.03194246635100687
-0.0007057773961619153
0.06771501763451797
0.007832606342180097
-0.002301747347893369
-0.03821831788049288
-0.17900178549071846
0.027336260829479275
-0.006492342062742702
0.015071595114255449
0.03929097321949261
-0.013728247675279385
0.07567164157040186
-0.010631450824107283
0.0397234190071847
0.04588282927640605
0.0018857143238173355
-0.001880277869267939
-0.03731754386310674
-0.017691211631127586
-0.010376724668452693
0.003950997082797801
-0.020155629810997274
0.041014264789967156
0.014275025813861527
-0.016535612249669925
-0.008524553385214599
0.058569151357615264
0.016563799259871816
-0.021840329001541755
0.038196147877548915
0.10254646039551263
-0.033409062170610446
-0.015689123548120656
0.0147075773420578
-0.029823757882716503
-0.022650718655125496
0.021095568063644567
-0.04016433982379215
0.028383386847078404
-0.0036840207199603093
-0.04082013920858602
-0.013751930103270952
-0.009029800571826434
-0.00120962608179782
-0.039316002077065745
-0.05416038427414803
0.03167535459928926
0.01077785265401904
0.01731554792290411
0.013289760199773331
0.016273740874480223
0.01755465501202136
-0.010234881875063261
-0.022439403120948612
0.07185460410908524
-0.003413796418453152
-0.018507515223328802
-0.06522565396282752
-0.06605325282652794
-0.028216609842317046
0.05587590945549473
0.1014794126064984
-0.05898098240364953
0.005246897993287879
0.0210499073664371
-0.026503607873398224
-0.027420194490427856
-0.03591771592270715
0.02022346565333752
0.015361388145127702
-0.07536823287882885
-0.052492983981573364
0.03924837421009684
0.011521653703077003
-0.002640818936472443
0.009083483301945128
0.012847703617420209
0.014537871466210713
0.0019663130088320453
0.03350061130899108
0.006080043861619696
-0.002595393026906042
-0.02815867203435297
-0.0083612540107659
0.004701329018233241
0.044243479749946794
-0.003488073029335583
-0.007338645382135789
0.10130381727192665
0.05686735407768012
-0.04574768138307426
-0.019914417751780933
-0.06502765605803178
-0.0044421386608418535
0.021826223326512406
0.00560669040015787
0.03761308304047917
-0.02179673120206579
-0.045205542899076925
-0.0008519612461673716
0.009519172201931369
0.005732781157572255
0.0038721740860784212
-0.032613185653411945
-0.0033030660354045776
-0.01272100079421463
-0.026792545550433325
0.0008150391197367311
-0.02465250970317975
-0.016412776938096466
-0.07092068153480931
0.03494447635624103
0.05673067631034316
0.08214676367758805
0.1373056895446189
0.001356408727383889
-0.02815031205483319
-0.014112281772979806
-0.004078253741615112
-0.006210689580256186
-0.0028148957313944858
0.026962738884369016
-0.011020153932235004
-0.09863018056615273
-0.03380424044912835
0.039381948883957636
0.003009884460345866
0.028130807662955275
0.008186724385666169
0.012928782773639862
0.02495249676864382
0.029136589079226054
-0.006714260589983591
-0.048231237307515155
-0.013917039836802833
0.04093136033135361
-0.07115020921640626
-0.058168043603221496
0.011681649966600078
-0.013337127425395676
-0.008224255736069089
0.011274774549535514
-0.03442474909786199
0.0014681069704818852
-0.003022415447043321
0.02567480127991792
0.006517482686253862
-0.002279011256375067
-0.020145991209349786
-0.033403724988639416
-0.013035024237668814
0.012317798429996496
-0.08650843790365896
0.05339780536181016
-0.0005198016723723925
0.002995025169380245
0.01223876639141774
-0.008070465699990568
0.08738921086830423
-0.008782550412030285
-0.0014925030929348504
0.02960692999337186
0.10832750690953488
-0.0008396581299238293
-0.017100712036392355
0.020040048017373083
0.05253560073401053
0.049641810162433575
0.042961587472571755
0.040216915974620696
-0.024862128770140556
0.022669435631879137
-0.09609173759631241
-0.061544910416857106
-0.004930714817448741
0.027193591195905437
-0.062313922589680035
-0.009164892181951727
-0.09541142307974992
-0.0990906924056967
0.05418271676434303
-0.03201288719576324
0.013027768606922957
-0.02383945198432997
0.015351129414486426
0.005553596265604843
-0.015340383313566007
-0.04112181968566839
0.0015654537174535981
-0.0034118344811509644
0.036677369713074885
0.0016756359749436657
-0.030621430051748257
0.06465662588923725
0.01565301996336984
-0.01646575297713034
0.00829497852590143
-0.01723477666052507
-0.011485448823533199
0.007083921419836044
-0.014263736155890161
-0.02192477648129087
0.06416338583521132
0.052157940130183836
0.15881335867978022
0.027423874232323082
-0.03584108230133808
-0.006171419676805522
0.04983938883208203
0.008278788792342742
0.001079755715624332
-0.015674932632448336
-0.02001704088968686
0.008180393287436971
-0.03284322279380692
-0.002279050394152974
-0.044438108197433886
-0.07316321812292127
0.008807575400792645
-0.027103947748748608
-0.010262923092508317
-0.0039799426564495095
0.024928399972520356
-0.022319519831893765
-0.08304979416255949
-0.035097064304435904
0.022365767920626393
0.003885503342521194
-0.024234835146004125
0.055043915957726224
0.03322941909656517
0.005051198064291986
-0.015472293084883435
-0.036832827207111944
0.023302845673184063
-0.005468636660530285
-0.018037617347837147
-0.014235570232049487
-0.010680417421802379
0.04667625892454197
-0.005076201521813069
-0.01847664763952165
0.047323553975807627
0.00770383851037612
0.031108875756078017
-0.017447384496596594
-0.0015745329201213563
0.022687899372013494
0.015776627505499984
0.010831287936688352
-0.006371255141191018
-0.04908982944605254
0.05426382055483754
0.06682297515538965
-0.02982711683622796
0.013422327317969345
0.007686196677963203
0.07632305146186245
0.012036335746808603
0.007383071712895392
0.009225068427290414
0.01700660399947658
-0.03737841244874545
-0.025260726949290276
-0.03046016017191428
-0.000798835074324095
0.0003409655305613844
0.05349946512396421
0.031009470404712823
-0.029140453605240688
-0.09101390006700634
0.015532859894959321
-0.03689521912215285
0.011613378677183627
-0.00987546215666443
-0.033444814538661896
-0.02818734341755693
-0.0633621662260517
0.010469371521691874
0.036444233404040384
-0.039594910615235464
-0.021850398168573287
0.024155236624052286
0.032975057193991235
-0.029959057642736053
-0.056455408179933206
-0.004354572465633433
0.05130522689090363
0.027060443418375463
0.0355775248579457
-0.0032628491729778768
0.010354784385807515
-0.026106020787522555
-0.05678789779695876
-0.0024634172784812106
0.005464485873495836
-0.013745377233491986
-0.0390998785728956
0.009818931650051975
-0.01099117593275942
0.005059864378476488
0.007293179324570892
-0.03547598623534798
0.061897905351514335
0.007588930406432247
-0.013687446351141696
-0.04362338409748547
-0.004702614820895871
-0.0020712438688687378
0.034795420703303735
0.08354617758171934
-0.004215016577224133
-0.032941097306110806
0.09947384609302984
0.10226174030167609
-0.05770015568096619
0.0021736470199675514
-0.028400561720341
-0.05312313193578045
-0.0014082931882879262
-0.006073902528894048
0.01984860684282477
-0.07076256246349798
0.015578448152026978
0.05867301550017729
0.12884992550514218
0.08481501771801536
-0.0427096486785839
-0.003642540662279558
-0.04328329630990465
-0.016893817878957242
-0.034527406477043936
0.007214827532345441
-0.0038084413507826027
0.028911840565780767
0.03139372045187905
-0.001006862523849289
-0.012159697929829568
-0.01651686745491287
0.03959417414633218
-0.008465455479581692
-0.0067969060560753745
-0.042910503607077266
-0.06354988755039852
0.04067105526212385
-0.008004604610850483
-0.03455089684924805
-0.0164534391099648
0.022298190742953184
-0.01398611071692976
-0.06769809459572299
-0.025569361593806378
0.006507899135710003
-0.023507280032690595
0.02310491406799726
-0.006426289953902125
-0.05142944588406069
0.02166089258332241
0.04223343109488397
0.012141718527723505
0.009776137092920507
0.027880193747997148
0.008428331762157296
-0.048514168592327156
0.0021276392125169417
0.017543538337310045
0.026680211069404564
-0.015645624768195525
-0.005397081900048716
-0.02211634578443626
-0.0018578024656323282
0.021074408362228018
0.0824044862311342
0.00012703386451886045
-0.08558059633771799
0.025987326194154538
0.034757578114795955
0.029190728019176954
-0.016572768827965313
0.00836735979787471
-0.0033772526132810343
0.006702554730394358
-0.0012624831126251646
-0.00765257108778703
-0.0035987183977156
0.011826797894937473
0.005257961088972537
-0.023109684516213338
0.006075990238174936
-0.03613617821299325
-0.007286813617298888
0.04238450800939535
-0.03143511586615123
0.05577737130668788
-0.06278032864656663
-0.07833943938628911
0.035962865707560396
0.014433098692487243
-0.04668336193443927
-0.06285853952441718
0.00225219050647664
0.012322247423267015
-0.015832011146017438
0.025473718722268765
0.01615202102307145
0.0014849706888059582
-0.010668050561888636
0.01944959732977286
0.009089928086149173
0.032033991527943464
0.033629352966096204
0.011704931409555763
0.013451095175454455
-0.013437641558217453
-0.008365293796947261
0.011008158732653517
0.029575716014120748
-0.029565685203182996
0.01136357828472226
-0.011369099530230912
0.018733726636105556
0.024303273761025167
0.002059720717845223
0.010821000667496946
0.042955017484784114
-0.028147468393579105
-0.04058246985774518
0.037323330357841786
0.04924120716995388
-0.04073358876482363
-0.012107023729577138
-0.013691370966613785
-0.011214296232070415
0.008466246684145839
-0.021842571745321466
-0.043030146223231765
-0.020836154347082872
-0.008354938757791044
0.0024041171497575413
0.02599556700200265
-0.015554798840537691
0.0573862177190547
0.05352699678887838
-0.027368357904305116
-0.028094998370603814
-0.009036786645543178
0.026630438807594067
0.018788203076771582
0.009430037043926193
0.006153214234740929
-0.02721126317752484
-0.030480839713027754
-0.019308069281145045
-0.04267853302912999
0.007764127860834484
0.03298779935925016
-0.003221684685531237
0.007905013380947776
0.04295610601627394
-0.020808912354510014
-0.05593276649600912
0.01711365610634773
-0.006577278600950925
0.031522841467393516
0.041301293519272954
0.016863629253790622
-0.004591622619547784
0.0075853057105889615
-0.017016257309500297
-0.02212506460705655
-0.04565030781572458
-0.03481184954992764
0.014245561511049101
-0.018641926763631793
-0.02587626841618798
-0.013124457592301655
-0.026020687806477743
-0.041186743024558686
0.08397030740692064
0.0314470626428511
-0.02945440442788238
-0.012333071291812861
0.008460090773496921
-0.03676442953872078
0.01991259988541431
0.04956992403851016
-0.018158747327203358
-0.03192251393950936
0.009336044356486895
-0.02482882109022551
0.02360533207111243
-0.04253955041275785
-0.0015303917405880647
-0.011219907548092451
0.08474421162723726
0.12259048327921995
-0.028406535161991854
0.029073306752493887
-0.024662424289544627
-0.008624097903627174
-0.02265129201298353
0.0097229003688994
0.0269349612741917
-0.03032194540089515
-0.016636690870963467
-0.017201237779695278
0.050265569148014826
0.011657084525986874
-0.025815453616054924
0.0046612534900296
0.015760956049312255
0.004928258185041982
0.006854794257524392
0.03277959049018753
0.001364188446201704
0.03763101371624489
-0.026150888481094276
0.029561234876827724
-0.021234270709605995
0.015411630646095431
0.019300569413944736
0.0027672694768960805
-0.019794954619776626
-0.03854890193588821
0.0182418761661642
0.005919731272431458
-0.012314467324088514
-0.009911143147929735
-0.04991226802560515
-0.02348010225122375
0.06191981504315995
-0.005730367121816855
-0.002607396586554737
-0.004866700247562222
-0.004189655399209253
-0.008337353141381504
-0.05083019480829298
-0.08067363740680628
-0.047871135469990715
0.0013630662244492582
-0.022217042418750717
-0.054297976055916554
0.038256572459418506
-0.019627733264654466
-0.03227320384442865
-0.01327104455036439
-0.008889717814719268
0.011643124275817717
0.04350055822342112
0.012741649296293218
0.06996691414323941
0.03894917122898037
0.03120296868145397
-0.046693490679303305
0.006639063141189471
0.02487405947864955
0.025386747554851527
0.004509438591814017
0.10042372004695288
-0.026794543376974147
-0.04062331243968474
0.05387654346629507
-0.036922050761522565
0.032650576963138875
0.06648599606521764
-0.023446534998629465
0.12803535948544278
-0.030247538232910945
-0.08464101009757452
-0.06139364705684287
-0.03329089135417116
-0.004422340932797472
-0.03317974209712871
0.005134905153591142
0.0013816807693793297
0.014031463549995205
-0.020589558337672828
0.02359031769731961
-0.019037651531525823
0.018507321672060373
-0.005181597080127464
0.03980968847830385
0.009879657029056334
-0.006693460303064209
-0.019859050440771506
0.016899553965353527
-0.01571614291122025
-0.009974360844784544
-0.07085071723728492
0.07520877381413
0.039854468852891574
-0.00831440048631895
0.010176225767774848
0.015896690399178695
0.003208655753344583
-0.02548098841094054
-0.017923798876529572
-0.029609328183246592
-0.01841390074956492
-0.028462874095774936
-0.03484980913413548
0.04602607440991435
-0.04381489717958918
-0.054128051068849894
-0.002979162863326908
-0.029519102042220417
-0.02893264356760535
0.04668155188458014
0.036067586739686575
0.04398973570308997
0.04435140780263354
-0.0432387347042734
0.16938917234881842
0.10299779759583177
-0.07522432123113325
0.005481939316993662
-0.014185745587570617
0.008232665008752053
0.006175066804893358
0.008386677082728071
-0.07775948022551553
-0.10769779262472959
-0.008727981545414454
-0.02852226138204184
0.009911887941022808
-0.059391389842134136
-0.0414209142109261
0.006309609149117969
-0.008924668659088855
-0.021518255017390932
0.029627584109967502
-0.014427407738898683
-0.010565516001175291
-0.0002745924644138303
0.04604008853698833
0.020329235233640643
0.06768814217580421
0.03314986165869206
0.011225287588252178
-0.023987268525654172
-0.02533832921694727
-0.008631062616453302
0.002550368072360935
-0.007705734988280915
-0.029362558484772393
0.039018214986574415
-0.0005479540202550535
0.010973532472775193
0.045334154571626324
-0.004637394975011107
0.004009952223518624
0.025033877112280233
0.03013412562159882
0.03935936335454053
0.03518919960606592
-0.0047677947852682355
0.016714841937359847
-0.005570488445214878
0.008634511157293166
-0.0005461162462892797
-0.05218479359327621
-0.029065308747686182
-0.015951162248139358
0.030780459515450175
0.043839643601446765
0.02710210422853509
-0.04218497012061454
-0.007494772276272986
0.01782644998109217
-0.04892710348258885
-0.004829321286582229
0.004119969120217534
0.02431785708278079
0.004591074397236724
0.01481057416936982
0.0037412669441187285
0.013576339770492067
-0.03653445226382862
-0.01344125253922367
0.0560183199447166
0.020060899981754726
-0.002148973978695004
-0.17876320377110388
-0.10670863181408288
0.025359543435571452
-0.04060235686416832
0.028197519694479443
0.028084737111190763
-0.0011383742668351535
0.04176113648415931
0.02295046147713177
-0.01671455860335724
-0.000631383212340305
-0.03914665105564333
0.021242359388948168
0.07183119384765757
0.002719517420862697
-0.007195184598472789
-0.026093586232307977
0.0034588036559233424
0.03212354425088237
0.016848048482385948
0.005311762869026442
0.006426301667481605
0.03170249767419162
-0.02109100891677605
-0.07908848536323493
0.001155192376319134
-0.013085668513977078
