0
0.0019313212670153035
-0.010161528536303963
-0.0022128519575974046
-0.021378115805151247
-0.01641810670281675
-0.0022236165802228657
0.0062128844580462035
0.005265852528832062
-0.007532503542302092
-0.06658039874930088
0.0047229938288180385
-0.07880609785223987
-0.17971064861645336
-0.03223365734831422
-0.009592224337501218
-0.018792129785761214
-0.009161853339899672
0.006040019528622975
0.02072403308666557
-0.021998231088734586
-0.023515244742998456
-0.004827262620357421
0.08945851866329348
0.08332131734881056
0.017435805042600925
-0.009982092481885793
0.11931553414003863
0.07082591319754364
-0.04294274854254121
-0.02280351901846536
0.00437351131604673
-0.02439061731888906
-0.04835856244551675
-0.023396464653700388
-0.026342055090720854
-0.05120282133686772
-0.007372399877722668
0.0669085414244948
0.058262311410786506
0.01800674556646663
-0.03194246635100687
-0.0007057773961619153
0.06771501763451797
0.007832606342180097
-0.002301747347893369
-0.03821831788049288
-0.17900178549071846
0.027336260829479275
-0.006492342062742702
0.015071595114255449
0.03929097321949261
-0.013728247675279385
0.07567164157040186
-0.010631450824107283
0.0397234190071847
0.04588282927640605
0.0018857143238173355
-0.001880277869267939
-0.03731754386310674
-0.017691211631127586
-0.010376724668452693
0.003950997082797801
-0.020155629810997274
0.041014264789967156
0.014275025813861527
-0.016535612249669925
-0.008524553385214599
0.058569151357615264
0.016563799259871816
-0.021840329001541755
0.038196147877548915
0.10254646039551263
-0.033409062170610446
-0.015689123548120656
0.0147075773420578
-0.029823757882716503
-0.022650718655125496
0.021095568063644567
-0.04016433982379215
0.028383386847078404
-0.0036840207199603093
-0.04082013920858602
-0.013751930103270952
-0.009029800571826434
-0.00120962608179782
-0.039316002077065745
-0.05416038427414803
0.03167535459928926
0.01077785265401904
0.01731554792290411
0.013289760199773331
0.016273740874480223
0.01755465501202136
-0.010234881875063261
-0.022439403120948612
0.07185460410908524
-0.003413796418453152
-0.018507515223328802
-0.06522565396282752
-0.06605325282652794
-0.028216609842317046
0.05587590945549473
0.1014794126064984
-0.05898098240364953
0.005246897993287879
0.0210499073664371
-0.026503607873398224
-0.027420194490427856
-0.03591771592270715
0.02022346565333752
0.015361388145127702
-0.07536823287882885
-0.052492983981573364
0.03924837421009684
0.011521653703077003
-0.002640818936472443
0.009083483301945128
0.012847703617420209
0.014537871466210713
0.0019663130088320453
0.03350061130899108
0.006080043861619696
-0.002595393026906042
-0.02815867203435297
-0.0083612540107659
0.004701329018233241
0.044243479749946794
-0.003488073029335583
-0.007338645382135789
0.10130381727192665
0.05686735407768012
-0.04574768138307426
-0.019914417751780933
-0.06502765605803178
-0.0044421386608418535
0.021826223326512406
0.00560669040015787
0.03761308304047917
-0.02179673120206579
-0.045205542899076925
-0.0008519612461673716
0.009519172201931369
0.005732781157572255
0.0038721740860784212
-0.032613185653411945
-0.0033030660354045776
-0.01272100079421463
-0.026792545550433325
0.0008150391197367311
-0.02465250970317975
-0.016412776938096466
-0.07092068153480931
0.03494447635624103
0.05673067631034316
0.08214676367758805
0.1373056895446189
0.001356408727383889
-0.02815031205483319
-0.014112281772979806
-0.004078253741615112
-0.006210689580256186
-0.0028148957313944858
0.026962738884369016
-0.011020153932235004
-0.09863018056615273
-0.03380424044912835
0.039381948883957636
0.003009884460345866
0.028130807662955275
0.008186724385666169
0.012928782773639862
0.02495249676864382
0.029136589079226054
-0.006714260589983591
-0.048231237307515155
-0.013917039836802833
0.04093136033135361
-0.07115020921640626
-0.058168043603221496
0.011681649966600078
-0.013337127425395676
-0.008224255736069089
0.011274774549535514
-0.03442474909786199
0.0014681069704818852
-0.003022415447043321
0.02567480127991792
0.006517482686253862
-0.002279011256375067
-0.020145991209349786
-0.033403724988639416
-0.013035024237668814
0.012317798429996496
-0.08650843790365896
0.05339780536181016
-0.0005198016723723925
0.002995025169380245
0.01223876639141774
-0.008070465699990568
0.08738921086830423
-0.008782550412030285
-0.0014925030929348504
0.02960692999337186
0.10832750690953488
-0.0008396581299238293
-0.017100712036392355
0.020040048017373083
0.05253560073401053
0.049641810162433575
0.042961587472571755
0.040216915974620696
-0.024862128770140556
0.022669435631879137
-0.09609173759631241
-0.061544910416857106
-0.004930714817448741
0.027193591195905437
-0.062313922589680035
-0.009164892181951727
-0.09541142307974992
-0.0990906924056967
0.05418271676434303
-0.03201288719576324
0.013027768606922957
-0.02383945198432997
0.015351129414486426
0.005553596265604843
-0.015340383313566007
-0.04112181968566839
0.0015654537174535981
-0.0034118344811509644
0.036677369713074885
0.0016756359749436657
-0.030621430051748257
0.06465662588923725
0.01565301996336984
-0.01646575297713034
0.00829497852590143
-0.01723477666052507
-0.011485448823533199
0.007083921419836044
-0.014263736155890161
-0.02192477648129087
0.06416338583521132
0.052157940130183836
0.15881335867978022
0.027423874232323082
-0.03584108230133808
-0.006171419676805522
0.04983938883208203
0.008278788792342742
0.001079755715624332
-0.015674932632448336
-0.02001704088968686
0.008180393287436971
-0.03284322279380692
-0.002279050394152974
-0.044438108197433886
-0.07316321812292127
0.008807575400792645
-0.027103947748748608
-0.010262923092508317
-0.0039799426564495095
0.024928399972520356
-0.022319519831893765
-0.08304979416255949
-0.035097064304435904
0.022365767920626393
0.003885503342521194
-0.024234835146004125
0.055043915957726224
0.03322941909656517
0.005051198064291986
-0.015472293084883435
-0.036832827207111944
0.023302845673184063
-0.005468636660530285
-0.018037617347837147
-0.014235570232049487
-0.010680417421802379
0.04667625892454197
-0.005076201521813069
-0.01847664763952165
0.047323553975807627
0.00770383851037612
0.031108875756078017
-0.017447384496596594
-0.0015745329201213563
0.022687899372013494
0.015776627505499984
0.010831287936688352
-0.006371255141191018
-0.04908982944605254
0.05426382055483754
0.06682297515538965
-0.02982711683622796
0.013422327317969345
0.007686196677963203
0.07632305146186245
0.012036335746808603
0.007383071712895392
0.009225068427290414
0.01700660399947658
-0.03737841244874545
-0.025260726949290276
-0.03046016017191428
-0.000798835074324095
0.0003409655305613844
0.05349946512396421
0.031009470404712823
-0.029140453605240688
-0.09101390006700634
0.015532859894959321
-0.03689521912215285
0.011613378677183627
-0.00987546215666443
-0.033444814538661896
-0.02818734341755693
-0.0633621662260517
0.010469371521691874
0.036444233404040384
-0.039594910615235464
-0.021850398168573287
0.024155236624052286
0.032975057193991235
-0.029959057642736053
-0.056455408179933206
-0.004354572465633433
0.05130522689090363
0.027060443418375463
0.0355775248579457
-0.0032628491729778768
0.010354784385807515
-0.026106020787522555
-0.05678789779695876
-0.0024634172784812106
0.005464485873495836
-0.013745377233491986
-0.0390998785728956
0.009818931650051975
-0.01099117593275942
0.005059864378476488
0.007293179324570892
-0.03547598623534798
0.061897905351514335
0.007588930406432247
-0.013687446351141696
-0.04362338409748547
-0.004702614820895871
-0.0020712438688687378
0.034795420703303735
0.08354617758171934
-0.004215016577224133
-0.032941097306110806
0.09947384609302984
0.10226174030167609
-0.05770015568096619
0.0021736470199675514
-0.028400561720341
-0.05312313193578045
-0.0014082931882879262
-0.006073902528894048
0.01984860684282477
-0.07076256246349798
0.015578448152026978
0.05867301550017729
0.12884992550514218
0.08481501771801536
-0.0427096486785839
-0.003642540662279558
-0.04328329630990465
-0.016893817878957242
-0.034527406477043936
0.007214827532345441
-0.0038084413507826027
0.028911840565780767
0.03139372045187905
-0.001006862523849289
-0.012159697929829568
-0.01651686745491287
0.03959417414633218
-0.008465455479581692
-0.0067969060560753745
-0.042910503607077266
-0.06354988755039852
0.04067105526212385
-0.008004604610850483
-0.03455089684924805
-0.0164534391099648
0.022298190742953184
-0.01398611071692976
-0.06769809459572299
-0.025569361593806378
0.006507899135710003
-0.023507280032690595
0.02310491406799726
-0.006426289953902125
-0.05142944588406069
0.02166089258332241
0.04223343109488397
0.012141718527723505
0.009776137092920507
0.027880193747997148
0.008428331762157296
-0.048514168592327156
0.0021276392125169417
0.017543538337310045
0.026680211069404564
-0.015645624768195525
-0.005397081900048716
-0.02211634578443626
-0.0018578024656323282
0.021074408362228018
0.0824044862311342
0.00012703386451886045
-0.08558059633771799
0.025987326194154538
0.034757578114795955
0.029190728019176954
-0.016572768827965313
0.00836735979787471
-0.0033772526132810343
0.006702554730394358
-0.0012624831126251646
-0.00765257108778703
-0.0035987183977156
0.011826797894937473
0.005257961088972537
-0.023109684516213338
0.006075990238174936
-0.03613617821299325
-0.007286813617298888
0.04238450800939535
-0.03143511586615123
0.05577737130668788
-0.06278032864656663
-0.07833943938628911
0.035962865707560396
0.014433098692487243
-0.04668336193443927
-0.06285853952441718
0.00225219050647664
0.012322247423267015
-0.015832011146017438
0.025473718722268765
0.01615202102307145
0.0014849706888059582
-0.010668050561888636
0.01944959732977286
0.009089928086149173
0.032033991527943464
0.033629352966096204
0.011704931409555763
0.013451095175454455
-0.013437641558217453
-0.008365293796947261
0.011008158732653517
0.029575716014120748
-0.029565685203182996
0.01136357828472226
-0.011369099530230912
0.018733726636105556
0.024303273761025167
0.002059720717845223
0.010821000667496946
0.042955017484784114
-0.028147468393579105
-0.04058246985774518
0.037323330357841786
0.04924120716995388
-0.04073358876482363
-0.012107023729577138
-0.013691370966613785
-0.011214296232070415
0.008466246684145839
-0.021842571745321466
-0.043030146223231765
-0.020836154347082872
-0.008354938757791044
0.0024041171497575413
0.02599556700200265
-0.015554798840537691
0.0573862177190547
0.05352699678887838
-0.027368357904305116
-0.028094998370603814
-0.009036786645543178
0.026630438807594067
0.018788203076771582
0.009430037043926193
0.006153214234740929
-0.02721126317752484
-0.030480839713027754
-0.019308069281145045
-0.04267853302912999
0.007764127860834484
0.03298779935925016
-0.003221684685531237
0.007905013380947776
0.04295610601627394
-0.020808912354510014
-0.05593276649600912
0.01711365610634773
-0.006577278600950925
0.031522841467393516
0.041301293519272954
0.016863629253790622
-0.004591622619547784
0.0075853057105889615
-0.017016257309500297
-0.02212506460705655
-0.04565030781572458
-0.03481184954992764
0.014245561511049101
-0.018641926763631793
-0.02587626841618798
-0.013124457592301655
-0.026020687806477743
-0.041186743024558686
0.08397030740692064
0.0314470626428511
-0.02945440442788238
-0.012333071291812861
0.008460090773496921
-0.03676442953872078
0.01991259988541431
0.04956992403851016
-0.018158747327203358
-0.03192251393950936
0.009336044356486895
-0.02482882109022551
0.02360533207111243
-0.04253955041275785
-0.0015303917405880647
-0.011219907548092451
0.08474421162723726
0.12259048327921995
-0.028406535161991854
0.029073306752493887
-0.024662424289544627
-0.008624097903627174
-0.02265129201298353
0.0097229003688994
0.0269349612741917
-0.03032194540089515
-0.016636690870963467
-0.017201237779695278
0.050265569148014826
0.011657084525986874
-0.025815453616054924
0.0046612534900296
0.015760956049312255
0.004928258185041982
0.006854794257524392
0.03277959049018753
0.001364188446201704
0.03763101371624489
-0.026150888481094276
0.029561234876827724
-0.021234270709605995
0.015411630646095431
0.019300569413944736
0.0027672694768960805
-0.019794954619776626
-0.03854890193588821
0.0182418761661642
0.005919731272431458
-0.012314467324088514
-0.009911143147929735
-0.04991226802560515
-0.02348010225122375
0.06191981504315995
-0.005730367121816855
-0.002607396586554737
-0.004866700247562222
-0.004189655399209253
-0.008337353141381504
-0.05083019480829298
-0.08067363740680628
-0.047871135469990715
0.0013630662244492582
-0.022217042418750717
-0.054297976055916554
0.038256572459418506
-0.019627733264654466
-0.03227320384442865
-0.01327104455036439
-0.008889717814719268
0.011643124275817717
0.04350055822342112
0.012741649296293218
0.06996691414323941
0.03894917122898037
0.03120296868145397
-0.046693490679303305
0.006639063141189471
0.02487405947864955
0.025386747554851527
0.004509438591814017
0.10042372004695288
-0.026794543376974147
-0.04062331243968474
0.05387654346629507
-0.036922050761522565
0.032650576963138875
0.06648599606521764
-0.023446534998629465
0.12803535948544278
-0.030247538232910945
-0.08464101009757452
-0.06139364705684287
-0.03329089135417116
-0.004422340932797472
-0.03317974209712871
0.005134905153591142
0.0013816807693793297
0.014031463549995205
-0.020589558337672828
0.02359031769731961
-0.019037651531525823
0.018507321672060373
-0.005181597080127464
0.03980968847830385
0.009879657029056334
-0.006693460303064209
-0.019859050440771506
0.016899553965353527
-0.01571614291122025
-0.009974360844784544
-0.07085071723728492
0.07520877381413
0.039854468852891574
-0.00831440048631895
0.010176225767774848
0.015896690399178695
0.003208655753344583
-0.02548098841094054
-0.017923798876529572
-0.029609328183246592
-0.01841390074956492
-0.028462874095774936
-0.03484980913413548
0.04602607440991435
-0.04381489717958918
-0.054128051068849894
-0.002979162863326908
-0.029519102042220417
-0.02893264356760535
0.04668155188458014
0.036067586739686575
0.04398973570308997
0.04435140780263354
-0.0432387347042734
0.16938917234881842
0.10299779759583177
-0.07522432123113325
0.005481939316993662
-0.014185745587570617
0.008232665008752053
0.006175066804893358
0.008386677082728071
-0.07775948022551553
-0.10769779262472959
-0.008727981545414454
-0.02852226138204184
0.009911887941022808
-0.059391389842134136
-0.0414209142109261
0.006309609149117969
-0.008924668659088855
-0.021518255017390932
0.029627584109967502
-0.014427407738898683
-0.010565516001175291
-0.0002745924644138303
0.04604008853698833
0.020329235233640643
0.06768814217580421
0.03314986165869206
0.011225287588252178
-0.023987268525654172
-0.02533832921694727
-0.008631062616453302
0.002550368072360935
-0.007705734988280915
-0.029362558484772393
0.039018214986574415
-0.0005479540202550535
0.010973532472775193
0.045334154571626324
-0.004637394975011107
0.004009952223518624
0.025033877112280233
0.03013412562159882
0.03935936335454053
0.03518919960606592
-0.0047677947852682355
0.016714841937359847
-0.005570488445214878
0.008634511157293166
-0.0005461162462892797
-0.05218479359327621
-0.029065308747686182
-0.015951162248139358
0.030780459515450175
0.043839643601446765
0.02710210422853509
-0.04218497012061454
-0.007494772276272986
0.01782644998109217
-0.04892710348258885
-0.004829321286582229
0.004119969120217534
0.02431785708278079
0.004591074397236724
0.01481057416936982
0.0037412669441187285
0.013576339770492067
-0.03653445226382862
-0.01344125253922367
0.0560183199447166
0.020060899981754726
-0.002148973978695004
-0.17876320377110388
-0.10670863181408288
0.025359543435571452
-0.04060235686416832
0.028197519694479443
0.028084737111190763
-0.0011383742668351535
0.04176113648415931
0.02295046147713177
-0.01671455860335724
-0.000631383212340305
-0.03914665105564333
0.021242359388948168
0.07183119384765757
0.002719517420862697
-0.007195184598472789
-0.026093586232307977
0.0034588036559233424
0.03212354425088237
0.016848048482385948
0.005311762869026442
0.006426301667481605
0.03170249767419162
-0.02109100891677605
-0.07908848536323493
0.001155192376319134
-0.013085668513977078
0.011881595343523087
-0.000578153936181602
-0.04244208476517894
-0.04797001494103438
0.018755129264086595
0.005894403257380949
0.006953560533861611
-0.02752358892442349
0.04993546964762924
-0.0007833121717198138
-0.04289588390276913
0.00442522113810397
0.010563999800010822
-0.04317962785158026
-0.015333589494699476
0.009690943391386847
0.035538536789568885
0.03502455697517694
0.024271094009370133
-0.05224208475071279
0.021771495202339806
0.00726033397195587
0.0020788819931452157
-0.029023449078683358
-0.014511179051956058
0.02015845847269857
0.01707518968488409
-0.0015286788491761353
-0.020476054737075717
0.004894608861442315
-0.020055131413900376
-0.023319811559119327
-0.008772098973338948
0.008933005428950765
0.009388912582701598
-0.011678795056740814
-0.014123246053844142
0.029682629197890907
0.1391643783419796
0.1330140384134456
0.056834719557513
-0.029125356323552454
0.015221564480878627
0.08632718077038135
-0.027438702995289572
-0.05631183768118974
0.02523260883781853
-0.009596340374171142
0.015095276111403506
-0.017289442163852708
-0.010833505304831126
0.01338058810949403
-0.001173712457324137
-0.001312485354266417
0.032125541309622266
-0.01164261758740929
-0.07706550509345317
-0.0423085900087125
-0.01896297239442103
0.009065228371720004
0.029616501740611336
-0.03495521131572524
-0.05253873847867969
0.04774478373105812
-0.06711595940922382
-0.0764454091254655
0.044515659006566344
0.039704534445760054
-0.02968091271843906
-0.014980450479155479
-0.0474422839297567
-0.035067593027082775
-0.0074024028358387626
-0.013141647944765349
0.016282027462193746
0.019046420741536764
-0.022970612662059277
0.03159091970611721
0.002934182891859381
-0.010321931656210079
-0.0036557344658228416
0.03795857536640963
0.01761687864645849
-0.04184196216130923
-0.01825360414402284
-0.00599763413713063
0.015762970965704854
5.224897254762701e-05
0.008933728681772153
-0.02562150635053193
-0.004887460998451006
0.0010345483632003417
-0.028349778861942475
0.01904238720875861
0.018257755116689006
-0.018467005770398014
-0.0019390734454893456
-0.02858153428636357
0.007788431202862935
0.018942561303974554
0.0018729627676077256
0.006012484538299383
0.025407971383067322
0.015688895152102682
0.0015623888347041104
-0.05434187858743695
0.04871768051064828
0.011975132373753953
0.09643724942936845
0.05765261863748172
-0.03566499687057807
-0.12718692796241732
0.12350149098622593
0.1052758062287071
-0.02465988399867576
-0.05069209282044982
0.017602087775212355
0.001326997296139819
-0.036052893195111894
0.018502539506330445
-0.0334314862089425
0.04245234322975224
-0.01285356686293544
0.00193983390720346
-0.040026240325523224
0.036364339259381755
-0.06797438100972371
-0.029629082089811937
-0.008889404700747573
-0.03125285033462204
-0.027751632443467233
-0.00895489284694945
-0.059131965438105775
-0.059848213545021525
0.020916786928012417
0.0022346645670249295
0.004364258174554331
0.013363486288880037
0.019621339860678808
-0.02770794315146862
0.08803579731475951
0.15172118721293915
-0.04018949136522117
0.008761025470894773
0.00657005579814482
-0.05497648568575732
-0.0290902339414744
0.033321775633915904
0.020673907859560723
-0.013351175248153204
0.036346494824799735
0.012232962974982078
-0.025086859125229864
0.03463611868669221
0.0016842051925956747
-0.030764378005857664
-0.031047166162766714
-0.00858414376234709
0.06150066726401905
0.028921704453046294
0.056359466801378995
0.054124575293799125
-0.017827832250096837
0.0005876856539965297
-0.06901338957169989
-0.04043538578491634
-0.011527299421583955
0.017753095405210615
-0.028686332008011114
-0.055929517290865066
-0.022454403717410754
-0.0007313682847418447
-0.00999289170193974
0.007419944321693175
0.003038971120596699
-0.029080658957928725
0.036168644629321026
-0.0004211008094136448
-0.023727157145189387
0.009050141117190443
0.06306658957260758
0.055670592897334434
0.21099755745703128
0.014406793585653586
-0.06071473614306056
0.03719038782935011
-0.0833898919892703
-0.10839426682577492
-0.08013188926697891
-0.0649884007305368
-0.008316803355344954
0.010684659502774783
-0.0900858968736655
0.02162774206216992
-0.014738999506364953
0.029984310836555898
-0.014114565575617759
0.019353844376973562
0.1768692547907855
0.0251249472264261
-0.008517712495413417
-0.016959848609735227
-0.04834317499458925
-0.0021645762011450686
0.03179946658895594
-0.01846708485646296
-0.017201278534675297
-0.029176329922252303
0.029261697559376732
0.0021576243263020226
-0.015683374556386673
-0.05678480165505703
0.015649634731465207
-0.01593722241203761
-0.006364785584354325
-0.030773958136326975
-0.0429891835215317
0.12663103719726876
-0.022983577381427325
-0.038312881570067424
-0.03373188761868767
0.0010996184490945256
-0.056234606534215276
0.04762036090348319
0.12471650434795516
-0.02635183529045275
-0.011865138928770167
-0.02318873866047902
-0.025547627384517213
-0.01299783789181364
-0.008038191437072259
-0.023195572590142512
-0.0022727255484372337
0.031627908740472964
-0.0175381210404713
-0.020955946589385717
0.027491483403607228
0.013173117891223449
0.04630721651956786
0.09587166566885236
0.013943093371141484
0.01050382244596244
0.01688956288411643
-0.05681696144227055
-0.030026555373741066
-0.012832388071490973
-0.03508267798969163
-0.015848550273661215
0.01979860015062817
0.012619832917023587
0.034119212262762336
0.014957198510466447
-0.025317231832706975
0.031244057353497015
0.018556830939259302
0.027284554700190047
0.020753502300539246
-0.006569284995488464
0.01135558987540912
0.04198525935596554
-0.031565560466475594
0.007125544536010245
-0.007193443796738418
-0.0345852612783663
0.010921173398107683
0.07201252476283986
-0.02542305184896687
0.005264240345294116
-0.008189648159012861
0.02887591160408948
0.045945534652543626
-0.013500918814734347
-0.002675589096728701
-0.0017573165307186217
0.048148220962041424
-0.009368454774135856
-0.06812780341593662
-0.16297807518294866
-0.05852033770608076
-0.09491521926214416
0.006450048343353325
0.026716050629592026
-0.030425056178434114
0.06076359288518139
0.019823687588668138
-0.052855318704124056
-0.037077360286361695
0.02254501545228171
-0.002788156781334341
0.047668094484915685
0.010089029944406342
-0.05363984249412226
-0.020077631666402244
0.015110600542792904
0.031462607416362386
0.0016763501890320778
0.04993097123050488
0.0593692219590491
0.027744989040964323
0.05442291718557468
0.026690394890650008
0.0034049017855433314
-0.019656568565556427
-0.08093771525377709
-0.04700764909808218
-0.010763199829847497
-0.006267380233250548
-0.025297228704305643
0.02410047749070445
-0.004297221398592302
0.004563298290448099
-0.004709382236804246
0.006749194210704052
0.015018721410630825
0.0666102091481173
0.03327717806944049
-0.04820082842590138
-0.017558213260889823
0.028176451986932274
-0.07803312796123996
0.008486186156825587
-0.05354062902484201
-0.08320922386302089
0.07518385135611244
-0.008008805428704089
0.06006793800436205
0.07932639991489834
-0.013649898208368575
0.010864402339233501
0.04544083053431341
-0.021194276692100694
-0.011000437773912282
-0.003347064067221092
-0.027166676173401766
-0.03158783362720567
0.01947202259321113
0.04081358895677756
0.12252037012943572
-0.031195838315504012
0.13216811803176814
-0.01915650587952335
-0.0884731203351442
0.01949805834201217
0.0026962226945954878
-0.01660310819356933
-0.0293110775123715
0.01915735911232581
-0.06581613292963155
-0.07622838986763152
0.004257481173309532
-0.08266152071190992
-0.036888423650922396
-0.11696546584268659
-0.046512574538914456
0.0034891022975741177
0.03955613130563715
-0.02145592073764738
-0.0010644938599502296
0.13751380736084565
0.033594275962052715
-0.0012894799759964725
-0.003961175313471401
0.026821303801146727
0.025535214006768142
0.007064286863896413
-0.048643796591485135
-0.019932760966301342
0.013929428158963182
0.009371141485531915
-0.05029424167289903
0.0282177710588346
0.046135708135998564
-0.023312104325417114
-0.0004926788918736655
0.009289315166825197
0.0021531664863645504
0.02725726653907779
0.004547755671216167
0.014899770991404323
0.023696566420150632
-0.01130784939073143
0.012120918981986481
0.03601647469505877
0.028646119860610823
0.032976352541228215
0.02849634335713171
-0.03183190242895141
-0.014907294224868098
0.0024716745248245203
-0.009318227593390476
-0.00703418901366755
0.06193507271336018
-0.04492458535597867
-0.036272248744295826
0.048438811651192924
0.027619284946003214
-0.022000814920932397
-0.014775184352423351
-0.028773149959474744
0.03611163129751246
0.061098325707197414
-0.011367659582636212
-0.01616905858748821
-0.015221645363848027
-0.10542543217243296
-0.06766005491515527
-0.0068978362161970395
-0.0069684746172292665
0.009645999048731676
0.018164119164093592
-0.07197443140856748
-0.04603552564104635
0.008190094078109332
-0.018590592421035307
-0.017364342632429457
0.027687980368524132
0.09498310466613935
0.07908759343649638
0.09040284930715523
-0.01721331467053868
-0.053661472166273434
-0.10084993688074095
0.009116343995286921
0.02240890058066603
0.03532064112704697
-0.007921127008953572
0.04109518867035057
-0.0029310944158547503
-0.0036480994636836662
-0.0008017447372388631
0.03881444742566559
-0.003374195879446211
-0.007328527583943116
-0.012945259684999948
0.040667033551618034
0.024265661336727345
-0.036215673738361875
-0.02378270284282907
-0.03793662585381675
0.0007811185567297398
-0.008805387737893853
0.034532883720340746
0.033994223280114776
-0.07598922671703
0.028628150876458924
0.014177385470225932
0.016083087602033475
0.0056554466475456444
-0.01571142094386193
-0.009070718879836027
-0.0035155311001778874
-0.020100172890117857
-0.032320313453616044
-0.06332736345404415
0.10306891798544471
0.04348627277160261
0.03702235787710822
0.024139216732435395
0.006429692514762294
-0.017764833369184406
-0.014752814470040412
-0.18394173710107112
-0.11122876528134189
0.05789599571462682
-0.008437528473416283
-0.04489582436106405
-0.03129421916436333
-0.01804309538659807
0.05695861861954163
-0.02337974508329145
0.01750335140226638
0.07360761027112167
0.048859787365034685
-0.02990164496264938
-0.0640991679155733
0.07434360891485534
0.04404891002139334
-0.04690567834870729
0.029984970567336032
-0.02531400746473202
0.09793232671432986
-0.003066075543501869
-0.09716778265262022
0.017368429783559566
-0.035684853570908254
0.05070760301841706
0.008510969691783924
0.009968571798604975
-0.09103699308126553
0.011296735854901943
0.13282808497344054
-0.006629235834936805
0.15677498493133524
0.04769913060772117
-0.013673825608207664
-0.003350556815524867
-0.03463668890666668
-0.012589173828794008
-0.0336786662022591
0.0032570878563680074
0.017111075453564772
-0.000928242302620519
0.01509287028931935
0.010984190114320867
0.043718285391619094
0.02442859176916153
0.02952473149000524
-0.006528139167614685
-0.05106190086318908
-0.020990977997315016
0.009502134636029171
-0.02255560572933198
-0.06707783777356671
0.0034722377387633573
0.018712144259595612
-0.1305178399263461
-0.09808092586623779
0.061311685286869734
0.00506579878274802
0.011604783169747591
-0.003694989748933895
-0.0026467449191946196
-0.02220880871910615
0.02175795733680697
0.007032632271480414
0.022183917647797095
-0.0030347647260414194
-0.06058051137003829
-0.05550872346076077
-0.01961767440336078
-0.008811743159517806
0.04883134660455212
-0.016143291272131852
0.029428437422771524
0.030330044900452567
-0.000922330769721692
0.0035710696783759544
-0.033362207778209765
0.016939219590752806
-0.019858077122303204
0.008617833800455879
0.031369033016307175
0.01734294286642137
0.04452578214775359
-0.016863582826982665
0.0028956602199949116
-0.004698036602406978
-0.029781379974704824
-0.031842323145950174
0.02424978493638457
-0.035803712886050894
0.012898072794640555
0.02306005295759152
-0.002661558500017733
-0.015317456205643669
0.00549378988678818
0.03253185172861718
-0.006307018668087951
-0.0050781616063076225
-0.007026284901322886
-0.001780904168297507
-0.017573462760627462
0.013250504232457135
0.01752716456052797
-0.012869114336369314
0.005003847115951568
-0.022870317570136765
-0.02303561779109616
-0.0019871955683047186
-0.007327675212487685
0.0001608381446060756
0.012338470515368455
-0.005759201999204856
-0.0003188881941626754
0.003970381981003956
0.006985688716515541
0.02692851776468273
0.016920438236990888
0.0453137395029735
0.012183581780656063
-0.017764571725930857
0.0376296785379955
0.12031802384824516
-0.06344176648776546
-0.03263633569114633
-0.0018767716424823268
0.007406068028148769
-0.023745053515136155
0.01909293612747859
-0.01853702696311164
0.03167925340253102
0.10176498214966274
0.007800907669756622
0.009282036715413706
-0.028601047451208755
0.03314925400829552
0.03216425350498674
0.02855167083786269
-0.14148399553736707
-0.08626078801543381
-0.013079757019925172
-0.06404231958609362
-0.02342086371868795
-0.01899288950018149
-0.021200786856105793
-0.01683783021216837
0.029718597222674874
-0.014475624920272752
0.06592925181879532
0.04237093330741466
-0.017657724238920203
-0.007630132239662884
0.0024138340233472405
0.04904942175072802
-0.0029502462745694103
0.010741910563400979
0.051526200726626434
-0.018465695064225126
0.043490445628599814
0.018538170573650564
-0.0023182477786503025
0.021412223611050996
0.02354103141763495
-0.004312845410634241
0.017165618385142006
0.02793093178507814
-0.015194947436723363
0.011847785240748419
-0.0007664682576801078
0.04719874897710582
-0.12395673178754942
0.007480882357272866
-0.03290241233976069
-0.08881725271870733
0.03479043144262096
-0.016285933980670065
0.004244433180395662
0.0048413570043129225
-0.13520885642323194
-0.06190760348084295
-0.022600379529156393
0.010298987134513295
-0.00656087476434685
-0.019742369324318002
-0.01611379223479519
-0.010799326037561287
-0.02331616056211825
0.044022049770464484
0.05055890776581967
0.006958346088844913
0.033079576567924554
-0.004433279898254185
0.0031114360189398844
-0.007205785216535475
0.02108853264867424
-0.03229429873867684
-0.017532342421637707
0.06999873345806716
0.01691422800248212
0.009834792466965439
0.006674501587048581
-0.03628770769786981
0.03641412905103452
-0.011754152042831914
-0.01122860336633557
0.0020662481345084293
-0.018057079444053145
0.007643921963126963
0.01725401257102712
-0.025386634744500307
-0.021085002797326453
-0.006978193087508164
-0.011635637738728407
0.009103873399987012
0.015470490425489997
-0.006290317064149305
0.00380225022607856
-0.00839149151078994
-0.05093334402825135
0.033713742151821845
0.0517507865600398
0.05815800984421267
0.004586526951728595
0.03614512499144268
-0.009880799070498169
-0.04329922354144489
0.07566586104627858
0.009448343381563588
-0.09779840987533858
-0.020408479417511956
0.13932445289622636
0.06553879107219442
-0.06601284261797676
-0.0163515357366908
-0.007936330596942818
0.005115492738009068
0.001106805911855843
0.014271902591065286
-0.07255736654575125
0.049766953685666186
0.08866226275534231
-0.0033853088534008093
-0.01440526139931999
0.02574985733452998
0.06307294814886452
-0.02363446927316524
-0.017586184269087996
-0.06275113882286659
0.016759049491376538
-0.030064868989990112
-0.020242592049621477
-0.033622230419870586
-0.019343062238150497
0.022109004912204792
-0.01812244482409608
-0.024561981961612127
-0.04331270511060158
0.008968552596956609
0.08051275209356039
0.011477867853635422
0.0005784822329876758
-0.099954869586736
-0.11315625260353648
-0.0021585633708517526
-0.009750298424698095
-0.003157864423262962
-0.013699982188709213
0.1509737134527176
0.05337808009731911
-0.02185069236212653
-0.00901001957668021
-0.017767079002504703
0.04271460836608638
0.04998045710943352
0.005653628296102778
-0.01483734546688075
-0.08172337806667972
-0.07468649593070902
0.12829142554704367
0.14338447174870572
-0.10270017955349586
-0.009808059636143049
-0.030438417896562948
-0.008782836036816663
-0.023500379078514082
0.02244597904221395
0.006426482417198388
-0.025868018025502915
-0.01662205812594317
0.0009093201906706705
