0
0.11158885979514198
-0.019836974875830637
-0.02688972380626653
0.03565609196827589
-0.032131451462841784
-0.011848999305689615
0.035085563637973854
0.06963580364449747
0.012768813853256292
0.005090905569894679
0.005731188672954657
0.03656009493079035
0.051360788502429595
-0.004253295063326781
0.001368115741168391
-0.009630288647286187
0.0012129074569253808
0.07706052567162154
-0.016229107320419323
-0.023014589613818873
-0.02360354386731822
-0.07013495991654971
0.012531535016028014
0.04183356622951294
-0.0032384595778571596
-0.02980866427821506
-0.04650662864386646
-0.011492230244834471
-0.0516784360950043
0.022521953945577378
0.08664511227892967
-0.030896096118185112
0.042765864742793376
0.024989078155679988
-0.017701389995948957
0.04121188461537107
0.015956629540960342
-0.07584516459776687
0.04831600691276649
-0.004594711842605303
0.037821912154255566
-0.018533388951842915
0.008817826749669272
0.004302350711749474
-0.0668234927756038
0.02190036479479573
0.0058969077384159975
-0.032104243513524484
0.02586786296003391
0.03867377892758251
-0.06808453264826261
-0.024526386221706494
-0.015271668429304355
0.11304847732981252
0.0870528273841826
-0.025047759597546577
-0.017973730934606653
-0.019705079943535285
-0.04190637398664034
-0.018430497998056024
-0.03409747378180437
-0.020550550992474576
0.012815894834736136
0.03405394868593676
0.022173831456826144
-0.02267421698547973
-0.030826963737100924
-0.004711341774848634
-0.0954727333348134
-0.050392313841769704
0.03803784373328633
-0.017755805683409263
-0.002254332258069207
0.04741064971654456
0.011598538764351166
0.03440035074708767
0.07189252285217461
-0.025095509836593418
-0.009907440543981655
-0.016299828607473418
0.010455315067741318
0.03586011856374717
0.015096666249599306
-0.0393618387555085
-0.017210790645617414
-0.026176666022451167
0.018274551114276623
0.08982564219561745
0.0058570738460654295
0.0031414325805096135
-0.005882250718167548
-0.017916468148749247
-0.07194271291337086
-0.050417444444073915
-0.017364132742507747
-0.031097838620096786
-0.018548514972112316
-0.07975589966174987
0.009698474304541804
0.014862916544902315
0.015027150734397528
-0.0058982541362429105
-0.03751961717812783
-0.0010809499967560855
0.05873013526129563
-0.016871178124775277
0.00657515681812654
0.05399363576956122
-0.029116564919441017
-0.03218416067938585
0.00047756121044423267
-0.031123975893190676
-0.02985877195977019
0.0006879805906806727
0.007279271287811064
0.0026151284875514445
0.05091213217302921
0.02404535938666269
0.08346638828035828
0.029937460232814184
-0.043107150149247264
0.012261011779141098
0.027066599812566303
-0.00499567782476163
0.037348760114786946
-0.014894523439264853
-0.0038478137492803863
-0.03171362902261845
0.009530657478718696
0.059466311172488386
-0.0216203691210221
-0.01199430564379765
0.0440116861884148
0.07817293989976531
-0.03596137868281014
0.023723950079893728
-0.021342283242903368
0.02996618262983258
0.153919520140886
-0.014620763646853935
0.026904352051017585
-0.03022972933763226
0.032096886696305026
0.012200246711671615
-0.08295226145466471
0.00027436224126755086
0.017372315658639507
-0.0611645879455362
-0.03957560777389586
-0.004847804440426498
0.0032109922557937653
-0.006710436093763024
-0.0073548074659958215
-0.024556279687111153
0.005941296891078145
-0.0557723106389921
-0.04689332893739846
-0.027203620476582393
-0.029132624587313215
-0.0009012192968975488
0.014150736985493026
0.017069970273264085
-0.019343336632013385
-0.00202684225700138
0.013885935503718796
0.01795971296863515
-0.0021007714841901467
-0.04983706170325781
0.006214225805139296
0.011396038375035127
0.0322999389183699
-0.0321057402171274
-0.002396889883792213
-0.055498706727230805
0.03792038665315911
0.06371335220399164
-0.016639987037351322
0.009826693221697233
0.006777853626246197
0.010354297847567532
0.0014952480153887981
-0.027222175460293756
-0.0354591807681598
-0.02225476776774241
0.04287682206055066
-0.036312459968501645
-0.02753867900664247
-0.009652750764386932
-0.0007056920508765484
-0.0041955936167667775
-0.008529383918926006
-0.01322027990875316
0.027455021377799593
0.1160185187538917
-0.01758142402500219
0.008729291470705402
-0.0011350878821623355
-0.014495162339448588
-0.03327352149533649
-0.006289617368664022
0.0038419103670910117
0.028551942491058364
-0.0072965592967005645
-0.04351463352584216
0.01022040651167284
0.04451668450774911
-0.010174035478265824
-0.04751314033932779
-0.013831941028927212
-0.01251216397555357
0.03218236677183108
0.025569666690984413
-0.004781674216473262
0.1350789667409801
0.02788895623668949
0.015482909872386461
-0.005486981282147256
-0.05335452496224685
0.010779228857860639
0.07570100084006894
-0.024978479831708936
0.009399180741281404
-0.0028398268329988064
0.0057166429730012725
0.009084891227780258
-0.08266537499758063
-0.041860947192592285
-0.033226631565678344
-0.01175824523967883
-0.053683246038939515
-0.009245608352553236
0.03162977946514033
0.023993243336301286
-0.013521176285466468
-0.0027454816932778034
-0.004865832549948557
0.01922747521798312
-0.019357880991691983
0.010410685381481802
-0.01407746409516169
-0.0385973432501409
-0.08311710389514708
-0.00964787660489626
0.012087129909931474
-0.002766822266118465
-0.006763434477739383
0.0775000812821861
0.03433271552698634
0.0061644691089549515
0.00546442043447137
-0.006947256811273978
0.010157079361275394
0.05162254620943416
0.031421704028659854
0.01705647354277453
0.0653443601996631
0.0527680588543192
0.06221879347874474
-0.01038572984551566
-0.06435056253719504
-0.03988185503395209
-0.04818393022025366
-0.02439662940786874
-0.0009889780413153766
0.11194240978335128
-0.07397748309376119
-0.027145708784946876
0.03513271878302266
0.0560486368054346
0.002665908431084333
-0.06669681942858226
1.4095838013771037e-05
-0.07343420164130704
-0.09783047793703671
-0.038436793424499086
0.005097582412100615
0.025164226379520035
0.029715301601331633
0.028355701947884695
-0.017325218831288364
0.056199025189064396
0.06711828260394163
-0.024996866687524703
-0.014184233784324875
-0.0032670018597998
-0.018820382524617152
0.04298712845638229
-0.07057402540235208
0.012892808856813556
-0.05802057699331266
0.00392897850334485
0.06004083649244784
-0.01812998298404944
0.03948221073069196
0.02606728335655941
-0.04087593709452591
-0.002238540464061125
-0.0025378396075361426
0.0090882569305469
0.02283035867864134
0.013692088868037631
0.00794471859690226
0.07249536407931027
0.0012226389483249425
0.001905562687034749
0.02621293636182342
-0.009991527014730855
0.038070989201228346
0.042718505103213046
-0.05092701125443193
-0.017488446685489448
-0.07966356027827713
-0.024943975163048845
-0.00765662064512781
-0.03340447242085654
-0.03669455126260445
-0.01899869587109258
0.0007925426684954416
-0.003584477762062811
-0.03573404334603577
0.0021060612249278526
-0.03739994788453555
0.046021395572776506
0.010532741331527375
-0.0056471160401384045
0.0028857354676325147
0.0176833964497019
0.0003008570395383434
0.006226711510665812
-0.04759059774998692
0.03137386298610144
0.013048902525243699
-0.05624750719547334
-0.08177170010883572
0.04123721695518358
0.09699809424622842
0.039733040378503684
0.013778343351991821
-0.028525816392773212
-0.03495230506658551
-0.026409895119157516
-0.004623956469417997
0.059168982910425695
0.10010358228698901
0.027924388288064924
-0.01762684380707933
-0.01933681023885971
0.02379217840792203
0.04892963622813189
-0.019698941817556354
-0.03209017019092981
-0.07950381808477316
-0.06868405189945372
-7.035156677202099e-05
0.016126160329174022
0.05474179479928191
-0.02266534065857745
-0.09533105455922837
0.10779698010579761
0.018151718520686397
-0.06336160545241865
0.05440236914344289
-0.013966160106727082
-0.0286978771839304
0.036851363806655955
0.061137720755271574
-0.00090197141983165
-0.018733703908308547
-0.04312600980525448
-0.009271288199322535
0.01011718003942683
0.0017143175804637182
0.01748557752737889
-0.034685992337187395
-0.058918917353744556
0.034013178236938654
0.0165776213512491
-0.02944801901214593
-0.03268248253005396
0.004779354359579746
-0.002316377896211461
0.010960974205564161
-0.0024031330718411537
0.04703264882507193
0.011446362061361254
-0.013087293551917217
-0.06465781354423368
-0.0215178668989348
0.004892989463067517
-0.03587177977357361
0.01346746066970875
0.1605117602962326
0.018098714954028906
0.0005086583416852859
0.03725918680415358
-0.008027757563087804
0.04128534640136652
0.025282537640714538
0.12083575287917644
-0.02217711996912044
-0.0435021140396513
-0.0157800554749539
0.01042705957437679
-0.026287200404609266
0.007549034448480842
-0.19058084004860726
-0.05223061699166581
0.08499834433034363
-0.05830150089650704
0.03345328639136305
0.0020377797520052658
0.010041153496582291
-0.012906739807874964
0.0064607821144267025
0.02261961459190365
0.027665952124713594
0.039344391739304395
0.045728583007588794
-0.01991153410151662
0.015894237876991006
-0.010781878008504544
-0.007865898905826448
-0.002758094708957097
-0.04715898463001403
-0.017170969443871476
-0.011532569105538558
-0.09157315809126691
-0.03780642800457994
-0.004226383987237931
-0.013341462731863646
0.008329789198941699
0.006485324454468712
-0.00026797121577546926
0.0715166333153678
0.030343694846714887
0.008305966050186984
0.006473271771083213
-0.010647523316794048
-0.003193996581749533
-0.03406265503285323
0.057527271547602045
0.03734151752942731
-0.011259133444409325
-0.011338654945242721
0.022012314568293057
-0.08577899361807431
-0.10939465427848259
0.09006444500427557
0.017055665524018795
0.03092600397681019
-0.04455762905158766
-0.004335037090214243
-0.002543314994570572
-0.0027884413415288065
-0.03358025605164074
0.0180232808396626
0.00638388735947911
-0.027460392783609552
0.03034522767777244
-0.041529224320377305
-0.03336707321405157
0.04378688826059684
-0.02132631031637069
0.009824391939880082
-0.026820420585079417
-0.031049301563767402
0.011048531875846404
-0.008807907400672629
-0.04520470423076084
-0.020048934898935472
0.05506910464454512
0.09357920592043623
0.018846397968807892
0.03190086673518364
0.0458546967659369
-0.05455612577016333
-0.031679872481860646
0.010280433836394764
-0.014525425972199071
0.07892481044042159
0.017449537636536363
0.03384170740072115
0.12468786145795835
-0.018937788013308737
-0.03141951682224337
0.004844788773528008
-0.00621729887618738
0.0205350637939438
0.026785630278584233
0.0570338562464515
0.035741750027153435
0.019851933586391212
0.004657585744475519
0.035318691337438306
-0.02342474674134847
-0.042196526759030156
-0.0532712047757055
-0.011943032733106507
0.013406392549666003
-0.016584362411047385
-0.023257066427480756
-0.0031170470108067504
-0.05835326595403895
-0.011542387665336131
0.002683208910327995
-0.007000718659274779
-0.05595268110229106
0.004578297285353667
-0.03263405403824114
-0.036950722737962474
-0.0849673600914449
-0.020269508565806404
0.005895246027404933
0.01610402220166773
-0.040520047773255935
0.06581508624789383
0.036322372328667016
-0.028434844861909954
0.01981364752979777
0.01857661938293547
-0.014862256320881428
0.010048566810548963
0.0033537489567141247
-0.011108464411471784
0.0016310509533455527
-0.03413234595516022
0.025968442536936445
0.06773421670876424
-0.131204488335526
-0.006761674088542087
0.0012955717448406062
0.006077510870546836
-0.04755124975382532
-0.003360226462005499
-0.01641552433571885
0.009198927385436314
0.0015358167197717393
0.03908516323760255
-0.003465615504592387
0.08374862147225902
0.11898724363777376
-0.010593433892637692
-0.0406481937742393
-0.07649916382455828
-0.116206835960445
-0.11840668860486085
-0.019642641214854456
0.14622761026272438
0.00643838573190509
0.012723594192808435
0.14807933895950973
0.030694590050458728
0.024398263211386904
0.05230701850237139
0.0452010711404583
-0.01901548385755141
-0.048915246104248696
-0.03575609204209637
-0.017132626656246517
0.008685380290695552
0.024297034806170462
-0.022771433393286286
0.01262828983250722
0.014319803892799837
0.04325097528178819
-0.033766229838379194
0.01665184395554609
-0.0792464625301052
-0.10025297245442946
0.02067649628434893
-0.04616041910138781
-0.016753000872905488
-0.002158280473603414
0.026929190422311282
0.023915412306266513
0.01625804460933597
0.025558105953679012
0.03419132261329059
0.0016330470968366835
-0.034796152248475216
0.04693672262036567
-0.01326421464463063
0.010292828342314582
0.018857284563812138
0.0010407556900678269
-0.02131166581879453
0.03197617811409223
0.03232194064371081
0.020811454729638194
0.01202946404400514
-0.03308927410396128
-9.975376898585612e-05
0.022356251308921504
-0.0012519762883485734
-0.013340201369750069
0.04468307668520985
0.021434817541649574
-0.01266168630627047
-0.0030337176408588365
0.003726186692358738
0.05246116243273026
-0.0036997503440555626
-0.038616460781608325
-0.02303506937183144
-0.04921091355145938
-0.06333805936999032
-0.05177338864715777
0.11768664670895478
0.02196485346115833
-0.0360681894608817
-0.008577493219841519
0.003714201210267261
-0.03732109160006346
0.00729295001857863
-0.02456276747597487
-0.0061623032139924505
-0.036445852146373504
0.06396444797190214
-0.042186310104226986
-0.08263839416772276
-0.05591149884279822
0.02209241541364517
0.09197131221698521
-0.04950154467068156
0.012294005271831913
-0.049726141529958676
-0.040011110473724694
-0.02234795835798188
-0.02248141803609262
0.05159454296753997
0.0069018153718007486
-0.05052447366590588
0.11105314946154606
-0.030168479467040227
0.1329887055956681
0.17954009145779345
-0.012819016424906316
-0.0031519132571104324
-0.029377159012717972
-0.024540813910613943
-0.015583800969753868
0.009451076581722425
-0.036008773262695255
0.01768230415436652
0.004701764887669459
-0.04765739141628772
-0.030239820139230933
-0.009933737891013789
-0.05917097262995835
-0.03932239703726909
0.030118819617965913
0.028801930061795773
-0.011552280458500104
0.05560745914976781
0.022950476626533798
0.022410994365688244
-0.02023970864428666
0.0023852966954544647
-0.0035331704712452407
-0.01894367263874371
-0.05423959560237345
-0.06839533721110215
-0.0240712870275296
0.008320617139862835
-0.005040510517598097
-0.01895910372994355
0.03274143692092553
0.043257135353178586
0.032332862626057876
-0.01132996568119383
0.048305248754001856
-0.0010975241886880015
0.011310925250919434
0.020616518317679085
0.045038219806823585
0.028462996353986462
0.014152335247788318
0.022150020927370995
-0.014427815103677626
-0.02561937822965972
0.013638510547334122
0.052744990457428795
0.04042665801636321
-0.01882411372721488
0.003463449996026206
-0.002525249952649629
-0.014403951103958604
0.004277743886187298
-0.03555556929759508
-0.18842573741169016
0.00749382409612457
-0.014182369547866319
-0.043477001863166616
0.06310033830024518
0.02591213881130831
-0.024372917971833347
0.004169905810866334
0.03766373459783024
0.0007097144399434571
-0.021967657001190907
-0.034669182701234674
-0.017424122486367623
-0.008906615138125266
0.0340646614127751
-0.007290086501422987
0.0011594716245695114
-0.040028787213445056
-0.0076081507011604805
0.001978690847912319
0.044513509470838895
-0.04598222256407847
0.028487410498187597
-0.029200201821133743
-0.05513615809957663
0.01767961468465115
0.05171222169654072
0.03582985142518013
0.013499489454525586
0.026658454590209695
-0.004619934219935661
-0.018941741171103837
-0.04685115031780132
0.03713041858804605
-0.04732345324412555
0.019406427305024333
0.035351604091577615
-0.025771829009848653
-0.027138063144921374
-0.017080443878584862
0.0026737457039914024
-0.000570621913212456
-0.02922251539159876
-0.01075696521315086
-0.005420639837145989
0.10602786040343896
0.009864426179769015
-0.016640904889724403
-0.009813127409458397
-0.03327523927755944
0.003878185641149476
0.016713680673909704
0.00232531596019363
0.027825213081587346
0.003772441716334228
-0.019344781510851238
-0.04641360310875199
0.021575498888521435
0.008884573320335777
0.12385064987780421
0.032194178040593394
0.05678361850069153
0.0503338490349557
0.00091396784693235
-0.026735444229350806
0.12599769420438572
0.011965187639990146
-0.10594530564344436
0.01727675098063656
0.02243566689228415
0.0838378779903949
0.004643936685870482
-0.0061000302176165136
0.015859346480046676
0.0014477252207489011
-0.0097396412515988
0.0048687787827707656
-0.026199710252768568
-0.10223045629349316
-0.10554078251129283
0.04824753660303267
-0.17254103185047098
-0.02119240007752591
-0.011365045673948216
-0.03591433004505867
-0.004219031141312387
0.03469004630518482
0.09804864605730318
-0.00021877886071177964
-0.0023879230751755473
-0.0003155048178008529
0.0003659018465909175
-0.0882619818256137
-0.011796702578824208
0.05060707951800965
-0.08954797094218801
-0.041361607396917466
0.024649006868011834
0.015341184325483365
0.0033749894962139004
-0.008743386007969823
0.02571623287650188
0.012761953859808243
0.038863140012851224
-0.03156018155489919
-0.02217504003136863
-0.009506672289007614
-0.006104210907967256
0.0026469350707951293
0.09807231138443163
-0.09790154917775415
-0.11523277690590751
0.015359597622900992
-0.005940594468519339
-0.06413199738548435
-0.012290216415740058
0.041011440851534624
0.1810712580285296
0.015065413087370791
-0.028270265795497553
-0.013667702071667233
-0.02209554587869725
-0.015640255238177723
0.0533032277591616
0.02859904712270978
-0.007908583270166138
0.029430082196450283
0.018193699065835938
0.006997419742472061
0.02231565656244117
0.0178847024518222
0.0007068081167011937
0.02455266284127097
-0.025741340838902213
0.004711327744241442
-0.010380472037127364
-0.023461173238005225
0.010669947249121093
-0.05273922221585185
-0.08237788736102368
-0.011022313349654062
-0.022699261459951377
-0.009121519545317935
0.03078487455380824
0.004809489803396297
0.016580478361408305
0.0380809347743881
0.018383553361245822
-0.007989603896154177
-0.019706332482533506
-0.009024199360503785
-0.014949437186060253
-0.00022368310399240298
-0.04015720273096067
-0.03747347222825522
-0.022519480265185885
0.0666620054366282
0.0041102921240985515
-0.005733672808913914
-0.010240769711378397
0.10227475086264484
0.10174211051387998
0.0738304193031919
0.04150203393298679
0.011302748412469041
0.05186535175234716
0.003743787683258666
-0.027930223188505878
-0.026965241286499964
-0.005104084128219021
-0.022510325833877586
-0.009171995912606111
-0.042152450158005915
0.025618349805240047
0.06934669102608601
-0.01747698734464782
-0.009477025962972807
-0.020619011423102643
-0.04803003864162934
0.0004603761410487026
-0.006477283334271051
0.010593511095624742
0.05569520515926109
0.010713585356109143
-5.393302070577729e-05
-0.009645030776065334
0.029246421803628936
0.02889250959179305
-0.002008986389617589
0.03053863132619602
-0.0045235225554033295
-0.07054848943271586
0.06258241943909792
-0.027088958661835475
-0.03452483048179801
-0.14066864268251647
-0.13730798528690336
-0.052464647777479445
-0.06779422146494697
0.021528203590896015
-0.031368527728246665
0.02435281693959097
0.016328695361171926
0.053460716813153716
0.006086931883480505
0.05983747044536597
0.11150830981930909
-0.005663625608541243
-0.03278417072245721
-0.05531035231942314
0.10141164713966053
0.11661443248093785
-0.17667519895267397
-0.0676318114418051
0.01976419465291024
-0.05101846167855297
-0.01636091189259857
-0.0028932580468589617
-0.003771028916995907
-0.04286957252558631
0.004692607183824803
0.009573480676292902
0.03102987884734813
-0.01482312819821154
0.00440714744742927
0.0027563168440796226
-0.032419154291824355
-0.020896356794065013
0.0065660204698404084
0.04841404503702496
0.02744384111658405
0.02594449136259698
-0.010792182332489313
0.014045542665228648
0.04016511059652856
0.009413479676814275
0.0016420114898055987
0.012507791149332113
-0.008025662428047958
-0.02692943294389975
0.01520930924323024
0.05519691998186957
-0.030427592310983884
0.012710481897114415
-0.03006245609373972
0.05631663711835314
0.06771351708210877
-0.09425343405139229
-0.08489968492303873
0.004486222298699307
0.08822092346589949
-0.03911421214029585
-0.04325785403001842
-0.027508667421061665
0.02260406817299234
-0.01026087739419743
0.002462139153082373
-0.013409903976402824
-0.00036175340423978615
0.014102218395271647
0.10399342658082016
0.09272866039731406
-0.04950988453891819
-0.01725253722403488
0.015278291846764306
0.01237634826046549
-0.014515803937833548
0.0018299978437249526
0.023164771062184408
-0.02332853559145774
-0.11233190618444325
0.019602939151537078
0.1677918621803475
0.019083059531916066
-0.031859489210400056
0.0004780115705300411
-0.031560921189229686
-0.018819130130376432
0.004302759079879031
0.013024109653603004
0.010294612069895473
-0.007783680944813236
-0.027409606231604853
-0.014356229289172462
-0.029608440198930313
-0.03204481083308432
0.001086290585879577
0.01231655089013373
0.0049947426752015205
0.00986296758954988
0.012294357004215845
0.016832849328582568
0.0031093737391151605
0.046875399689194776
-0.004629875008296448
0.03536293931111149
0.13935949246808432
-0.1014570422798945
-0.05050234995170195
-0.006730006973928086
0.00957850684941664
-0.061691254104207144
-0.14903349825136014
0.008984950284919068
-0.01837257295901071
0.011063135382500287
0.04275255123918976
0.024110664269002127
-0.012727075432004959
0.017048074402117818
0.003993208048681756
0.01667727455165758
-0.0031726989247263856
0.002535441587933145
-0.011528472310278643
-0.0032598472897048467
-0.008005136105709765
-0.0135761579905159
0.0008321545377442081
-0.009614298603208123
-0.0051061089364467455
0.01168746131846013
-0.01857556876037992
0.027582868298711732
-0.014929035580623827
-0.01625295766649011
-0.006592826109031736
0.007438065456664685
-0.07210766679278598
-0.0060010602193472625
-0.005766116340399235
-0.017905588576024284
-0.020314561724082837
0.07071092357172841
0.01900999243308039
-0.022403061736444456
-0.007760181690069527
0.0007616888000988815
0.008582371055998229
0.03193914940712131
0.0061503542053744755
0.043868499828399035
-0.02699870861179887
0.024235380000804045
-0.013525474302751929
-0.023647175598564343
0.015806074543068423
0.03275126580705623
0.012279064197769002
-0.03252949116322107
-0.10269938122161174
-0.014271817239746694
0.06751182507596577
0.10957623536300348
0.07266220580410966
-0.009956813087610586
-0.0008293140081123087
-0.029701753701395436
-0.01726605334128936
-0.06003047951101609
0.006149630646617929
0.03545795623080361
0.01242390097685362
-0.02803927268082485
0.020634108330502707
-0.018122942958391088
0.009832502928843748
-0.023701961675508264
-0.019895456854584964
-0.006043266090282795
-0.012876239269676756
-0.013577956123979053
0.030573176966853587
0.04474244203575134
0.018687588229748763
0.11215516550538
-0.01301001228917855
0.1101394032163041
0.06810449012695935
-0.025400469188553952
0.0006133216831734409
0.04886689254974554
0.011405543758063318
-0.1119849152746155
-0.1048636410961223
-0.008356380493586101
-0.026673253661912588
-0.017865450125860723
-0.025007882981412117
-0.03982447519556623
-0.05003922112527053
-0.028248826752758745
-0.002910587334007119
0.026760284371951572
0.01874380340368789
-0.027136948222070686
-0.02314338412915317
0.009311015267360114
-0.020403679107849463
-0.040394063738593736
-0.003552494016427649
-0.04235420817123446
0.002072553442026341
0.056712695915296735
0.015183431527935633
0.011938181750364828
0.040300254407517756
0.0163503367989296
-0.03713997862875486
-0.053144306944935917
0.004276722623252072
-0.037694253798289695
0.05422029981208814
0.14140004568011139
-0.03172675055816615
0.002213317097386472
0.07385622929111336
-0.045371958756383904
-0.03518503978813966
0.04687842267016066
-0.015280128161890798
-0.01371540106897179
0.03396036420270512
-0.009249620030729395
-0.024433104001359247
-0.08780664388784105
-0.044288402718517465
-0.037170051447663895
0.04316665957632504
0.17226491811194394
0.004498593106141505
-0.058572301058921694
-0.10886418637834429
0.045175500407997726
-0.05167756939167608
0.08702859759492883
0.09716879769970473
-0.06622269168404615
-0.011286363771765463
-0.007931287859867022
0.010123477303593002
-0.004022122068947076
0.007553460391441445
0.0388901850228813
0.17736527881400269
0.0016366414799632396
-0.04185690649457761
0.004411705111818344
-0.01928046589888699
-0.0796011128699634
-0.010138150830712641
0.01680017719678278
0.029955456778793434
-0.03126566100477454
-0.015088899876296009
0.004819456868246514
-0.05017981751055126
-0.05617635357012319
0.0022158525207566855
-0.023482872221377248
0.012322455606613034
-0.005222203732682389
0.018498934324804095
0.010115066125366428
0.003972947718636802
0.016944714002970616
0.005956722735675347
-0.016802659484163384
-0.03385930712940941
-0.0008260477846801005
0.005774903951358385
0.0357801119181
0.005033582456938499
0.00663388884804612
0.009466970793064008
-0.035783343633074886
-0.04669597712180174
-0.016963845289824073
0.025303106718868054
0.021614623963210133
-0.027531440916918757
0.005838620796260381
-0.0012624831685394433
0.04480853838708637
0.007293725280612271
-0.017340061012313324
-0.038146618743076365
-0.08010775790476228
-0.05537036688886692
0.09796214215201628
0.0974920586965041
-0.0948339088236526
0.017544285153696257
-0.005637019886663035
-0.001416484137949618
0.031466056208637454
0.026710124302799766
-0.028715852769349466
-0.017190840434900944
-0.04226909437425846
0.020910473565530666
-0.0364746558058846
-0.009647277580338943
-0.012191533503618337
0.02558629473387923
-0.06856633964396122
0.023261283137461567
0.024372995338879502
-0.008296884705437357
0.039372084433162494
-0.0037246398751802187
-0.03395971580657563
-0.014233836325872199
-0.037394870746104286
-0.026329221721625433
-0.028739440769335097
0.13285347155244326
-0.037064107004573556
-0.05372204224672608
-0.003845510395273751
0.011188162125711443
-0.023003413540648956
0.0484975665421032
0.033331119427146894
0.17587859984065546
0.065957382786052
0.028160134967062267
0.04429002150228947
-0.032427421067335496
0.020636584575660023
0.05553853050686556
-0.05894151685210495
-0.027453721306807424
-0.08150530544752195
-0.0308397225598964
-0.013365194807303884
0.18351570831571234
0.10510276878854807
-0.027323966455900503
0.01816573722427726
-0.019876285164459353
0.01748384644548481
0.009761083602266518
-0.005477435278891806
-0.04492586424130277
0.0030690218342658265
-0.08621390671256475
-0.10191829206461127
0.034063286123002176
0.04748612323837656
-0.022505686173502393
-0.04380660436764868
-0.03281049972945122
-0.006547937676570452
-0.0535016710493992
0.001428243545777727
-0.02102397497468925
-0.008763916889185432
0.030701475674816892
-0.006833576375553664
0.023163481988886802
-0.024943036956463223
-0.026150649760079796
-0.0007392475135631658
0.020726684181341538
-0.01868206827949538
-0.024690684420392486
-0.006363973026057892
-0.015866329365157528
-0.01648577856666713
-0.0030336567535262406
0.02504028806061966
-0.05006570745327591
0.0015272185505046374
-0.009838183057459409
0.025147610368932278
0.053207036952501646
0.0019107893432184673
0.021015503553273536
-0.0021239665131749658
0.02888717819224156
-0.0052302784810645455
-0.00487130568648759
-0.012186979481867671
0.038017676311669864
-0.03240675088238144
-0.017166217215854124
0.05963619218805713
0.03703868783923924
0.09012799359818241
-0.03610147650963024
0.02203966690762261
-0.029018980984001522
-0.018932228944916998
-0.00649701552676807
0.01117421621290774
-0.0102636748719964
0.005471195416544732
-0.018802969498710027
0.028170740981364777
-0.06435184573921272
-0.04624102276165224
-0.041137616664440164
-0.022468906014610407
0.03935353324714093
0.005339811145514611
-0.020251225951326637
-0.022656780796353287
-0.0732120558132084
-0.04850607939912829
0.018177426893111078
-0.015459847519707057
0.022565277208722187
0.04101011226932698
0.029543376890659088
-0.032412624347429884
0.04581145284297451
0.12701055257257865
-0.00683251522798066
0.017215252449825177
0.005773897614399743
-0.019055969452858437
0.0348803215641758
0.06512960960151519
-0.0007824859006163021
-0.024086234686761146
-0.00536626701874853
0.05201979813618535
-0.00529472078338358
0.002729196521628923
-0.0013846935223334918
-0.01960828301940052
-0.06544134975403805
-0.03176209864588646
0.04952584314560189
-0.007790361071505589
0.06674215141998419
-0.03712119558024267
-0.047177010258321536
0.06729302888393127
-0.03692166317473358
0.004278586193306998
0.04207264046993922
-0.13367589483569334
-0.07311096914782059
0.04332348270017206
-0.040892865096452374
0.03883268204328705
0.0024246712952620047
0.009945707877918108
-0.11579105663026301
-0.014615533726989245
-0.011502541300995822
0.048017491633891275
0.017303608925963342
-0.017400613647826715
0.002146983696202725
0.009857956008934035
0.02126920112259041
0.017906949365568903
0.02689896936828347
0.024098487777019267
-0.006767208292587107
-0.003194120772518728
0.04124255063792915
0.00800362609418527
-0.008341851932797916
0.03940284859962818
0.028220226894973208
0.036347775450078904
0.021370085969836496
-0.02276135128039074
0.007222319731983195
0.03571125591751243
0.022066969243594678
0.028092356181060946
-0.015017499983620989
-0.0748253252322524
-0.01835466011892703
-0.07583900965640335
-0.013437471338774034
-0.025302881448021522
-0.025812795621772102
0.08218112048724029
0.03883942329440483
-0.012984834137920448
-0.032536098234386766
0.012902892920908824
-0.0036977476299278555
-0.02806935602068477
0.002019850314503048
0.014224772042460017
-0.010540995231061782
0.03197701434611663
-0.023344284159233307
-0.05539154441385247
-0.02062193595621066
0.04209213732762175
0.04191606575400535
0.03056825213810382
-0.06795439181581006
-0.03475229743658169
0.06377212421036224
0.026567225785807953
-0.052813309508391325
-0.07835589671997266
-0.0021055942857864766
0.013216001937608678
0.009264580349073997
-0.009178453717789631
-0.04470466105788898
0.008397207662600919
-0.10712244754026637
-0.03897594374074928
0.054449425505292005
0.022001391814671603
-0.023475463390622286
-0.0124235375121727
0.03901098550337042
-0.005281108272819177
0.03712486092948681
-0.012474259530923945
0.041390977425783744
-0.013399025080150048
0.007798265276041868
-0.02725092355748325
0.04457497803480701
-0.014492126968706734
0.14250440120987684
0.05156386898316044
-0.07007042701020777
0.01968740719940074
0.03179087948554391
-0.01591626805848777
0.01287269337118703
0.012166208719732757
-0.02285021927470946
0.024404916487751088
-0.03036436103109248
0.00144190508079136
0.029219915768599874
0.030221349431328738
0.016399316991755012
-0.0043428376068721025
-0.03026382745490886
0.00274655056045477
-0.03825203628802713
0.02126311932094053
0.01674248562744803
0.02497896581873919
-0.03588055483234315
-0.0206032572257418
-0.022972766130323983
-0.015896671709012673
-0.024095015009920614
0.0821008910272732
0.09727098482771702
-0.01575688856340635
0.012431849940570876
-0.020240845544031084
-0.08881511962378771
-0.059663291645417435
0.05125388894202082
-0.004009460332008444
0.021760877111190992
-0.003802382414462976
-0.004281458564687921
-0.015533525409763833
-0.01122897343771868
-0.0039380681085076545
-0.004398110902553884
-0.02781682225475592
-0.0157090320419576
0.01344989102406251
0.018565586357046145
-0.0031636392873798033
-0.023175538698513812
-0.07239483037223111
-0.019463561300266056
0.04862494160920992
-0.010821749785828163
-0.0247966770512572
0.009304872947241537
-0.015079841516684124
0.0046876991038502245
-0.023617918162472322
0.009685629834394456
0.002770810142031349
-0.027945105833038674
0.012863669011582429
0.009691527530580276
0.01232477247953388
-0.05046670700711966
0.01666362081796258
0.023972495410527185
-0.06639419336157965
0.015222622616624902
0.020256783945347943
0.0034392203004176484
0.029222654918428313
0.04232857962610128
0.033388628433477736
0.011560487040949806
-0.014571114298932705
0.0008522597425233772
0.009754281487834516
-0.028604657805119803
-0.005449990729953005
0.11244929148091902
0.006410566312878913
-0.015762637262932932
