0
0.02689754994415613
-0.0052000961530916405
0.006411572910602473
0.06269836182844539
0.06249989460714127
0.018333077766392227
0.002081799302893412
0.11277677240370011
0.054660544014004116
-0.012276353950374401
-0.006745293170403646
-0.02861345175885484
0.022174349569206546
0.00623553346776269
0.004427716707175646
-0.0319805695138294
-0.00894355670808094
-0.02042795066194089
0.04148952738264165
-0.039573018283961835
-0.024388555142542227
0.059849911443996824
-0.06041179412655625
-0.029893042703252923
-0.036566163003144615
-0.10752065373194247
-0.09523862943867088
-0.054987251344459295
-0.015256475472776618
-0.013692482771315604
-0.04068670760119544
0.012225545891477008
0.032462586074733124
0.029458943630408872
-0.028150167527099618
-0.004196211303103061
0.013456167169188307
-0.022240152248557257
-0.01363125719401229
-0.060534970678676046
0.017755245670558903
-0.03133735971389235
0.04027766062476509
0.2042532014040807
0.028214752748989314
-0.05056965899292088
0.08576803926190767
0.15298937389578335
-0.04928202154331311
-0.0022873838035061835
0.03551919803337966
0.030339658450284874
-0.019130250675720283
0.005541488057715531
-0.036668008209942815
-0.029745012213066798
0.034478404794966284
-0.012339574198970188
-0.014249084640454535
0.005480685816327937
0.0003158894939635985
-0.054295197454616
-0.027603071580072542
0.03225210485003378
0.0034828170374589735
0.0187714342713096
0.011987255465534965
-0.005833106529814319
-0.00924644071560164
-0.014142230401509854
-0.05223860449978817
-0.02401679437007253
0.007423616785666084
0.011677525300205169
-0.009789272329165972
-0.0226350075935956
0.050135621132817214
0.0002984042875492247
-0.009557563089801746
0.037631723686481704
0.00036624819243610975
-0.01758398450474712
-0.011069287838632485
0.0033378196960178364
-0.004701907946184395
-0.030326049942335655
-0.0042999156210102845
0.035324772540207015
0.013592633099636348
-0.014325111404940671
0.03756316908276143
0.0020265449991846898
-0.010528232001869243
0.011085606152028485
0.041976055507606816
-0.013976841713626221
0.002034088032208638
0.02974993197279565
0.010073263069698904
-0.03299126669323337
0.02868522795956094
-0.07149326912592512
-0.04511639057844457
-0.0018818770936400156
0.0024872761881917036
-0.007263539195262037
0.047408834787941855
-0.002593792446401767
-0.029166586670610006
-0.03535421210392907
0.024123304723126186
0.02368836994885091
0.038081706168810216
-0.03772575784161989
-0.022168885028922287
-0.0002713676931314266
-0.02673141752254233
0.021533747163526313
0.007091857175851207
0.010672467188017988
0.0016927353679425615
-0.01695481334971716
0.003155476746535682
-0.01218966639878301
-0.008930578689550467
0.003499348663844983
0.10097241636257072
0.014419896237049267
-0.022109911341067746
-0.02008941435782539
-0.020232309205928677
-0.029767794451991746
-0.07929797956447245
0.03557296184583684
-0.0019919064101895003
-0.0034858703919343633
-0.0024994469255843837
-0.02161780389310155
-0.009002371662182533
0.008408531592936221
-0.009004803462080631
-0.010362771830522399
-0.04816405139785997
0.13668067080515922
0.04787052128499665
-0.02038705524235673
0.01569140893098273
-0.029102751234324625
0.056942996864759475
-0.06981768193006949
-0.08845977875120804
0.015980917352140255
-0.03500447683476436
-0.0019634624149960605
-0.004662932741082775
0.024123310244807152
-0.01065996820480913
0.012710107986417554
0.14433641071125305
-0.0028363868776500917
-0.016496186239446146
-0.005483586276412485
0.003848741725631858
0.006966024998890187
0.0340053518167701
-0.006603157532179114
-0.034180507146372274
0.003224966815406544
0.047258908076580834
0.015887582147470013
-0.0015548173378436617
0.02077297030581217
0.011032929284818296
-0.03721115665817665
0.010685325147940967
0.0020310939776400183
-0.022982719837983855
-0.017048740637076922
0.036005265713208154
0.02168503859808288
0.008449159981213506
-0.04744143789343224
0.019438543397369803
0.04062795512944049
-0.012110810989155917
-0.04252479683513249
-0.02507973785688107
-0.03588304242614828
0.0009735330478777384
-0.12638680350847448
-0.10537601549504333
0.012749345112249072
-0.0028465718448381903
-0.009700798619113665
0.020318548906115445
0.029101056725485474
0.018756319521793206
-0.039421601151433165
-0.056450753933783133
0.005468247226043615
-0.0035057178576004097
0.03337203026001267
0.001128854898609508
0.011435150298850621
0.06950455112106431
-0.016323913027217907
-0.08213744330230245
0.07706801700230913
0.021243176679228135
-0.03235731664387716
-0.017992822822988308
-0.024572067645566884
0.050706566637615746
0.1193512735127692
0.011780789032236685
0.002769050968774223
-0.016645578817478107
-0.014956506591186471
0.204474019051368
0.04593786818272319
-0.0598137950223222
0.018341352116390344
-0.011419843084926457
0.044156901167308873
0.12114439382751169
-0.012766979209168756
-0.04538394765367497
-0.003943148740516023
-0.024866453496550357
0.02027648421640027
-0.07429848673975893
-0.11449303599475999
0.02572823263105857
-0.007483368576981378
-0.03785138067031144
-0.04165176031678391
0.01260618075902546
-0.025100475835215328
0.09516863418051083
0.01926370048378599
-0.18671775144390307
0.05925332301720233
0.03530575687649537
0.01676783098620333
-0.021213602278688876
-0.0069278975593973086
-0.035037839364365
0.026931606336959065
0.007764964096616615
-0.007424143898066818
0.05317217840048913
-0.0046032154498597344
-0.020203337488326974
-0.006352764774237476
0.04650628862522192
0.028528127958851682
-0.01945499853784723
-0.013576938430145898
0.08895895233607597
0.049139885050056085
-0.03110306532488853
0.025978566051705277
0.02754813211183941
-0.07123310247439875
-0.10437398450545735
0.10704412023136624
-0.13923197545070828
-0.13693715774797216
0.0008941426454646647
-0.003726092802035728
0.007290365271148834
0.06592325484257043
0.14768214105258354
-0.037564070594889955
-0.007580928175389317
-0.057119026083817755
-0.0019467384592931165
0.011451213294696306
0.046566656438710455
-0.008906964700689983
0.06479266908448214
-0.00489089226009485
-0.06821229849274575
-0.10901418984969424
0.027886036019303728
0.0060775281815052245
-0.06775678443985615
0.04299354547209262
-0.055542110736252835
-0.06996055663823475
0.0022383802453102217
0.0014157747829138597
0.014947004220320578
-0.008353432121834483
0.006708204723117147
-0.004705810099999434
0.004393467316491223
0.01593097781574552
0.03704362895764577
-0.0063015556755390235
-0.015725071817137257
-0.021505646911123433
-0.011137341603217214
0.0012852752789527784
0.021534525801290037
0.02824931267415916
0.022261031982838114
0.027431755609546842
-0.0043219529821134665
0.00035277161691416026
0.10978632497507264
-0.02694113296571514
-0.009323625595979455
0.006712605203495631
0.0162345802267597
0.0017312902740241024
-0.018279101829334225
-0.009515469306840493
0.024885886931558812
0.0059198409362133724
0.01178451749834147
-0.0002365488084660274
-0.008961095624464776
-0.01979095306106235
-0.0031463885581039215
0.0594067711931809
-0.08998530030067112
0.02039828876943926
0.014083198955732883
0.0161831541681194
0.022137937044237704
-0.01685336971194814
-0.05530708968503659
0.10095466910407237
0.06768751812273673
-0.021696714164478395
0.021039575341535287
-0.005194363009377731
-0.009853652631526894
-0.009577109582675266
0.009297564568971343
-0.015141089213284678
0.008203943201597666
0.11331667002163139
0.02725564662092686
1.4353409977421937e-05
-0.08427098149013891
-0.06795403241095492
0.020527002648727595
-0.0027205162866828906
-0.0623858915190447
-0.023211093626924
0.09211587052662294
-0.006013219444336602
-0.14466374471403498
-0.03491555459342555
0.0009147065306756536
-0.0017058098742839378
0.08235439618425809
0.037598829785673214
-0.0038397757602623996
-0.005436096146607823
0.020432638844812497
-0.03377528933105438
-0.03685668601280283
-0.011039695923112592
-0.016532343233758785
0.0138258896730395
0.0012975406089368049
-0.03847520438841862
-0.05571700082951061
-0.00017234424490394107
0.014848323262363117
-0.004868595210708588
0.018750809877947246
0.007810983356019393
0.03850072927033787
-0.00639541421913073
0.003244237260764946
0.02698516078823389
0.023525860961101402
0.05472559785714537
0.006151194036421376
-0.06839702227131576
-0.06590143097091944
0.01853756561359455
0.0002029166629986303
0.04747227925302192
-0.1002410126882941
-0.015192273732088965
0.02515354886156634
0.01930368838188268
-0.0025645993691667595
-0.03613108589567435
0.09740080831620372
0.06625692918158047
0.12393658305145772
-0.09853298518249981
-0.10131896508476097
0.027409466700389223
-0.023191667902480142
-0.042878201987762724
-0.007060891173582425
0.02080629741704614
-0.0162281690699958
-0.023605523905327337
-0.005867461847572535
0.01338014165501064
-0.025866736927232504
0.018020630384720546
0.00037810681277421616
-0.04373127605155999
-0.037445909913775485
0.011449180516520802
-0.0461685097276351
-0.008451570187368697
-0.050515797823900206
0.019050811571568894
0.02985175607001804
0.08415308564971909
-0.0018903257704671233
-0.05715591579115107
-0.031766262099176296
0.020521223807199784
-0.023519684488983127
0.20440603768434798
0.1905184920650217
-0.03831056408060889
0.006232907610671447
0.024692918477736244
0.051111118012437645
-0.014518028443481908
-0.01444430923095242
0.011148101746776228
-0.0677806655979068
-0.03751075242353872
0.016162031203287228
-0.001653627552601308
0.029761677625920514
0.004963110958587173
0.02476035343370217
-0.03541949527004156
0.0022478913326992945
-0.0020221107346040518
-0.0025874609316990055
-0.021306161090541908
0.006504853406543905
0.00045218414547468265
-0.006996689952957508
-0.014983872899922946
-0.007436471605167149
-0.02464868108735754
-0.031675617085150445
-0.03461619157117406
-0.01862692912384063
-0.022548967091029565
-0.02868821913211427
-0.0053211183366941375
-0.02606885374866764
-9.631784456493825e-05
0.01201624425419596
0.025484817088928628
-0.03684985878725711
-0.034843739341137846
0.006613541562676528
-0.014524454291122037
0.0044770715221468076
-0.04721424625862191
-0.04308912699969876
0.07542557534470729
0.01638516731768035
0.05160073548799127
0.14516727189605205
0.025343388964538735
-0.005990054624025303
-0.0006537532248910316
-0.00159996132634366
0.0024874489559905616
-0.005815030144838874
-0.007844463069792147
-0.0016974732108413213
-0.008364047969925974
0.014128732316826936
-0.04476547624114895
-0.009023856321097527
0.007210992781922383
0.022807195942588787
-0.0022982797323635095
-0.003539099169927263
-0.006201010556793066
0.030922869750058164
0.07119681860502436
-0.02017232462800325
-0.023740912113968476
-0.004954607081055898
-0.0037982288634127266
-0.02171902569091806
-0.013420963912020458
-0.016653769110985102
-0.016920103811288088
0.00022734161945662653
-0.006424976983486699
-3.441929425649211e-05
-0.007241530226543395
0.020710843997654653
-0.011000835212849563
-0.02698701581035446
0.01757949842911557
0.03086407438194118
-0.02626852850613131
-0.007148429968644376
-0.01508912179880103
0.013888918028302614
-0.020281920425092234
0.02013354910658264
0.019256886197965933
0.06604115002812092
-0.0215060143759122
-0.09232915973300745
0.018501442827793965
0.024717403226097362
-0.011181001118828946
-0.034906569754892335
-0.00267115223842914
-0.0017980505150331943
-0.011128898016693943
0.001030770461735753
-0.01128838062224237
-0.07763391020863819
0.0004615757158760697
-0.03297350279987235
0.012753238440977964
0.04799793766639362
0.029677230093671854
0.010493358836434624
-0.006112807235359468
-0.02702026931231271
-0.047933767777021116
-0.005564435992154855
0.0009563511840946981
0.07696954503910601
0.0050758564748683305
-0.01652675014192327
-0.0030331851308914126
-0.00635767942418863
-0.07585714997623984
-0.04823997713137928
0.017504400902040154
0.011239357863740843
0.012514088133618996
0.0034188857939014953
0.03594115580482794
0.07932032623568783
-0.028074677595615227
-0.027605295719544374
-0.0010267002377485992
-0.001067445645027405
-0.03846199016047027
0.12367956842842863
0.035430154093999605
-0.05222329203241984
0.007929627523141454
0.0075714458463336624
-0.04805044206982522
0.14416740381840665
0.1406988939879199
0.06828903707358602
0.0163049681958817
-0.013767678403329285
-0.003761139023558705
-0.037101560696892445
-0.01051678688421555
-0.016121836683517368
0.0026677256913852053
0.004695890454271691
-0.02052608856492344
-0.02964007913341934
0.033203196845319506
0.010231132172189948
-0.013134615194118003
-0.0457403931576013
-0.004143431454415323
0.028039397514494885
-0.029676897938619773
-0.012661302184131874
0.0002588566910786507
-0.02850866474098112
-0.00937163364410425
-0.031472359073665364
0.012139225003105367
0.01646217530272829
0.023729675810085022
-0.003213028556008623
-0.014835336650559883
-0.03740732685105399
0.018710948554460562
-0.0018135229934472666
0.004398345092010094
-0.2192896706672385
-0.04735669938500837
0.009298796588234461
-0.04578847549949408
0.037658731423508646
-0.005898262673124682
0.03938732934428886
0.026207551971636923
0.004822769643290717
0.003833440847366638
0.13003299258157103
0.01648298442952077
-0.02314533828668977
-0.03212606053573636
-0.00657528704319288
-0.0005985503936093105
0.01061294272390048
-0.010910907852597457
0.03410210001914355
0.08979687438044984
-0.006347614799209634
0.00035954377028726034
0.0023746132338809964
0.011004774373789375
-0.029532558014945424
0.008339591582085363
-0.14412935453374678
-0.032211915934745095
0.02616417168381697
0.011986248421293507
0.0018220297655025708
0.0022245162951072643
-0.006694307549636743
-0.01097554435386781
0.019984127830065423
-0.010200513860011225
0.0011798656029871858
0.01967589347124526
-0.041256185548914436
-0.006158713816731847
0.0029403290215232565
-0.004823835089425321
-0.02349925115169753
0.039202917619405475
0.09960201464792624
-0.05120612141785872
-0.01614516636266818
0.005133376461749597
0.02821996065044556
0.004108382005781093
0.07847995975611571
0.028450575484665144
0.01192491625847359
-0.03195841943424654
0.05345038374952806
0.07733705884636662
-0.03176204697455347
-0.009722607382013016
-0.058645467487786956
-0.08120603157989331
-0.016293046977113087
-0.02544199315011669
-0.11129264720402572
-0.0131635385918422
0.023530695737074503
0.011541163226030679
-0.006954437533265005
-0.053713165804660803
-0.001041916199955216
-0.0120762299997248
0.0015050867414491283
0.041388400945331714
0.02119635831882386
0.025800226669707497
-0.0091224452538012
0.04616633638729538
0.10488102562158473
-0.0738651025603922
0.010566559826188872
-0.010594879798982127
0.012070309641294713
-0.03533283658560089
0.05857979851020521
0.11276475548631304
0.019858940641275292
-0.0169876687666119
-0.00954721244921819
0.006399054751626312
0.0032177125747472756
0.002537606442215782
-0.029837844748462378
-0.023885956028458236
-0.009141585137212874
-0.025111576617879442
0.002836435446780594
0.017087875033946584
-0.03162637948021974
0.0015891628133031129
-0.06169802693394992
-0.04368606701208148
0.037686839447948005
-0.02236142166374865
-0.007952886666372477
-0.01705842185340255
-0.025138179461306993
-0.040958841588730005
0.021665117866790356
0.14581611412911147
-0.00017443004747322145
-0.022679824831720485
0.005247056326846801
0.010268901185465442
0.011656194006861976
-0.026674089622365164
0.019635636261781626
0.0690036465539657
-0.020947101878282137
-0.0038425731359471673
-0.020671416943025718
0.039496055235397655
-0.004541377332118695
-0.012865074516160617
-0.004838928174264719
-0.008180125032841417
0.011420011692109785
-0.00032141339738312624
0.015205757020905734
-0.030959393628678156
-0.0867500426748595
0.004751055117719399
-0.009015739724953922
0.03835760899977397
0.0009338969322740826
-0.025713894761935505
0.007328663768474621
0.00022239703672223524
-0.0017712450457484138
0.027495700501132238
0.004365898963490689
0.029234449088780607
-0.013273996011645632
0.046564769046946466
0.0067343449826147836
-0.03736097700751833
-0.018494437298384406
-0.029789712247924652
-0.02762861498438941
-0.024540500724732305
-0.02542765254375345
-0.006676922862802072
-0.025912738742594317
0.03955626549808831
0.021784203442326535
-0.019265325491169633
0.005209131291298131
0.0223345349450895
0.016068364117036625
0.004153999220446226
0.010019488128439415
0.02704700968775787
-0.010736615718582716
-0.003461300022147857
-0.0034547718086542093
-0.024665907045767866
-0.015086053243602605
-0.013610003823289162
0.03434334700396688
-0.016919087519991795
-0.013526679283008302
-0.003421928788363191
-0.014484944158648108
-0.016219813656525417
0.05133657299744777
0.03398783939985542
0.02582734443249138
-0.026122114180503652
-0.08355981831100452
-0.027167812917584154
0.0064990005884232125
-0.02973848499155557
-0.005039945706486601
0.0021734817563682286
0.06976095807485395
0.016381649620674253
-0.009579220126530478
-0.013468222021365934
-0.0012457486106996704
-0.038383979425721304
-0.05241477386723017
0.0007603245798946586
0.348749294528689
0.13846857587253017
-0.0633407940042829
-0.021089200488629792
-0.023189726788006737
0.022704352082373102
-0.005306135122908995
-0.018364475975260326
-0.007446021495797689
0.01239674918037731
-0.00959601620080144
-0.009328445390668525
-0.058965421212604015
-0.14065537327586664
0.022635162791829845
0.03981014847351696
0.03592996200445458
0.0022914814487465787
-0.021218607487260194
-0.018942342352169236
-0.038345226548541445
0.025310198908006086
-0.015835866743826532
-0.09105534438356704
-0.05012277996467706
-0.01769733142329993
-0.09013263438348848
-0.009121826945634357
0.10491242163460472
-0.019888719650160886
0.024786972870058446
-0.006025246093443426
0.06167409656922716
0.01019691830939584
0.003139147584244985
0.10061434817782279
0.03922736334377565
0.004130171886122819
-0.005102899560069301
-0.005554232625760819
-0.01551155060791638
-0.04894615931631158
0.01293303772456363
0.01097426688850149
0.0021260788967148725
0.023394325940624742
0.008756400137811246
0.005844668213780617
0.009178331732201728
-0.001130817283145029
-0.02318804953926531
-0.007315917644787661
-0.0019183221649394149
-0.009467123625515057
0.011680061296689708
-0.011476861153649359
-0.005400070024584183
0.03703431579030074
-0.031634996568341914
-0.040286074057442604
0.012326382513375141
0.00832345798005864
0.00031535935448758867
0.010804305338779577
-0.0006857519904348721
0.008644059116667838
0.019293292766390687
-0.09789103318140188
-0.05036890273496624
0.004992949309454551
0.010954207360821155
0.01169863632132459
-0.01638226189876351
0.024760219964992915
0.011663994666191611
0.015472415844814132
0.01800760745554844
-0.002346103669010617
0.011813854114874687
-0.0021155276566438112
-0.0024425791363923517
0.0037534972169891673
0.016223757001977267
0.006595424728330493
-0.030458352859634632
-0.004648891098654435
0.05008549789780789
-0.01546820983025611
0.06738446139280753
0.03775230842885534
0.007265466313078918
0.033924105417531034
-0.12173815567510196
-0.021645234833317553
0.00483237637036509
-0.002028444505254814
0.023559069544611514
0.012312519950890501
-0.015664764743594278
0.023597898008491144
0.02741458618985796
-0.042648835887196555
-0.07814481226119331
0.019096261779558355
-0.20531881866042284
-0.10184188811784017
0.016886428366215154
-0.01590802247610809
0.027093372535457756
-0.02858616937923027
0.0005544583243933124
0.023837442652993056
-0.04108112318612816
0.03153971857793275
0.3694212051036621
0.04875868871882922
-0.04321017666675088
0.0041314580425471
0.006823961966884129
0.037549377888440615
-0.011249703469871829
-0.1831352740057475
-0.05060205970843342
0.02390528274043787
0.039783632882334115
0.0204972551486124
0.015692377857838676
-0.008570015515882566
-0.0067260706793916
0.009934663805739602
0.006886312521537173
-0.01068713719162757
-0.0006977985772163353
0.007207629601872681
-0.0077463325362294045
0.018760946326776353
-0.01613129218996832
0.03166317688709957
0.0338517908835106
0.01043957921728415
-0.013872734680960723
0.018859085532857377
-0.09360527419892302
-0.10100395229261096
-0.007087536082936317
0.04353978859647259
0.022399866637802853
0.03855256926220407
0.07774106024546254
0.05082309641961465
0.021289311785752295
0.0166509283695474
0.07100828306769538
0.034214140597481624
-0.02015319163130039
0.03155716326945512
-0.004656161223346219
0.012193749916465246
-0.18563785873188773
-0.14187114815162238
0.028155677405424594
0.005916289649317833
0.023622183386229914
-0.026189181194127286
0.013390735123079707
-0.012343665271823475
0.00018248687167438893
-0.0373784894563578
0.0020679518095087614
-0.015671225111769774
-0.0030113980340070313
-0.016423059636773492
0.042433419068483566
0.027963499090663133
-0.04425659098177441
0.0026906619941307695
0.09910802169922084
-0.012285648550085838
0.007756838999998676
-0.02406265407974907
0.01320661364544258
-0.00490852652496362
0.010445559969487156
0.004324118067330533
0.11681620894854991
0.06247970031980956
-0.014778246438818601
0.0013164564291573773
-0.018394636219382903
-0.00934927530880039
-0.011034825609856205
-0.04918097183241424
-0.04861145217245688
-0.00018435634824052644
0.004526860845995485
0.0014648644713556845
-0.004847362740486813
-0.06300264367908821
-0.01978658731174678
0.12276618823135883
0.05032872381541082
0.025418631125994715
0.025151174519150762
-0.12497199328902663
-0.017015881297295452
-0.009541577168400664
-0.04193769097413952
0.018261587816619303
0.029310034482073897
-0.05821702676876071
-0.060052843932157554
-0.04230458833043332
-0.07826697017718398
0.036953805068719224
-0.02671511948974906
0.03237120385279498
0.0005252331484742139
-0.013663294184202512
-0.013597875503102408
0.04026017928701681
0.0084484732838995
0.035166378734017005
-0.009258504298124458
0.02007232110710194
0.13846210478398596
0.03562989367345446
-0.013013553710672985
0.0007324298051153782
0.016060077893442826
0.027683025119603428
-0.0020483180101616115
0.003785070561318308
-0.04770358416397796
0.02352367998461901
-0.07375558541873013
-0.07422036679485823
0.07295952292264403
0.02105857063495858
0.006460780776034268
-0.051175955664334465
0.016910765515809778
0.08927388774043653
-0.014051400109860803
-0.025080554769479086
0.0016104440765273651
-0.015268564327595895
-0.01203733362223392
0.015533637044758315
0.019005037965766806
-0.07031555722213781
-0.08937880025783507
0.0632722281740711
0.024476666925567776
0.0033472321923287774
0.01783314968513763
-0.0166190664091923
-0.07531790485312892
-0.01232631860729181
-0.011635060688116533
-0.004882076884586409
0.009210049863857152
0.02554355754693623
-0.009819879559356396
-0.05621253304240365
0.046946966035657435
0.05433871666506467
0.04820135375221623
0.04547418054273614
-0.00294408364488535
-0.014558843351250036
-0.023107025772057775
-0.02071396194270563
0.05167058009139733
0.0010003572741435803
-0.015383341935028313
-0.006060628304229645
-0.03294859942756435
-0.012786998144314792
-0.009919711032052669
-0.054270296281933826
-0.008079084490152485
0.02095700815240881
0.008099007571789588
-0.01453817124133385
0.019919053726005987
0.0009746816614072147
-0.02868040421123683
-0.014151113327718574
0.02683493749179113
-0.009595665539193311
-0.012465895472423948
-0.0035764648450689507
0.026847548760338128
0.05467497353749723
0.011770120193144346
-0.019163720607315998
-0.016870201110053936
0.08929542205902985
0.025766106249898352
-0.016039120341408933
-0.030892011966877724
-0.004118155293514952
-0.0028789922265037068
-0.024777707942840975
-0.016906525670500206
-0.0010166840276067002
-0.02108141786593815
-0.02695721613706883
0.00673428548378255
-0.00469411751591188
-0.005903634398696533
0.006624375155401984
-0.017090870975994543
-0.025314221287563037
0.23173107764499795
0.042331146407479175
-0.03759467393988642
0.047375806630521766
-0.009998648646970395
-0.058859793930079646
-0.033070212187859375
0.03643926145781927
0.01601545334259588
0.0013129761592334693
-0.046713219139716225
-0.03422995348651276
-0.021193674727163367
-0.034939873714337724
-0.036342573369607584
-0.036967493846340786
0.0036900211759364103
0.06204002933807589
-0.03184410960749079
0.01757666569549059
0.02220018261099394
-0.014461627391854895
-0.03705702808002527
-0.013556487596257433
0.001136323904165926
-0.006778813726615277
0.06656096693732773
0.0014263610754502271
-0.01636764385926272
-0.004503358585954799
-0.010574400889237489
0.04025458714476374
-0.026198568350146282
0.07579454876204712
0.037658817853103155
-0.03770880470491425
-0.008030663781420868
-0.026639410996681462
-0.010430063930625524
0.021026117475841752
-0.016982830571523576
-0.02579735957389136
-0.04425252150424805
-0.011934798434657222
0.0014656082642240244
-0.007776918089711467
0.020011081783451862
-0.007884389602142099
-0.00497742159000742
0.03197551776508126
0.016364280737140708
0.04654634546447727
0.022705733895961932
-0.005414144394290088
0.002713471231737004
-0.06080597115891143
0.13054057241697953
0.06313766568814325
-0.016378944823686375
-0.005934962018279545
0.009602869957280056
0.006674810264814399
-0.0005573104936134036
-0.03626296658986875
0.009464339333751496
0.027290439625879622
0.011032386214853137
-0.0035187568442608163
0.0010807525455730097
-0.008337559291021562
0.021449507356873558
0.06097447935676454
-0.012504713839091172
0.03319027228189745
-0.29740985712042195
-0.15623986499733347
0.05957757938569986
-0.043533496135725
0.03820503380184071
0.02449450770540717
0.022288167281318782
-0.015172010932875287
0.03389490321733432
0.009171964611665789
0.023907170550255284
0.027852223236823563
0.006159378675406133
-0.08355165146224006
-0.1585103739233175
-0.050793652612468924
-0.03348688677098423
-0.003943044031130031
0.09105345534335359
0.1411571818045111
-0.004207918938248647
0.022953031287666684
-0.008208991226077282
0.015674425448457235
0.02147700055714521
0.042907539303319864
0.050059285801745304
0.02256969822984147
0.003194514674405884
0.03229512835294343
0.01953509849112655
0.008157487900818014
0.05288971577068511
0.02070091644474064
0.012862368631910003
-0.054584818906037336
-0.14716090214282287
-0.059867384607942574
0.09935424511853584
-0.01661918946982678
-0.020320820989666408
-0.020212121879514745
-0.01302845809782834
-0.02482501621553146
-0.018739626157469536
0.0019872033887942983
-0.09975699193842323
-0.01155409538206893
0.04751416992740465
0.03651321756700206
-0.05305163817582592
-0.02400342200131297
0.026258175575537182
0.023221637697246555
0.004463297328552246
0.01192494255186259
0.014356358365794264
0.020426606206633943
0.008695909031667063
-0.001645450651228817
-0.004543626576696507
-0.019643563474598943
-0.03633341286883197
0.11790124740116253
0.05773073956199543
0.035155279941682216
0.09097096437255799
-0.12799059568946586
-0.021567495189827934
-0.0035296422961884457
-0.019419118712087312
0.019015730629957015
-0.022501801402634254
0.008751713373732007
-0.024966098459999937
-0.014138951331777434
0.07186653284650833
0.07909844887456027
0.025477697444252743
-0.00879253774781339
-0.022350008493254938
-0.04837195750727933
-0.022523067040728838
0.00033956448269003203
-0.05173355075552443
-0.0368948865474402
0.003941461450514905
0.006916282544133976
0.006998389559470764
-0.007009248683321922
-0.056683776759598604
-0.026070924064987074
0.016105866140699074
0.002824028903741037
-0.017500623398752684
-0.006180754199602432
0.11462535652237855
-0.009248121646323073
-0.01725983342973338
0.02585571957730888
-0.017372447227313105
-0.04335620930911132
0.022654527598845977
0.0018320194506181665
0.09050955267115253
0.02101965335695208
0.03239761035855663
-0.011361595923306824
-0.019177571227883754
-0.03401156052313868
0.03982496563690334
-0.007565780601177315
-0.03488673676551513
0.04325522226550569
0.014829614318567623
0.002099659167681003
0.032819359636782036
-0.006970282837853724
0.010531824915134044
-0.0012157405662536409
-0.012457501170942301
0.03538993096518018
0.026458956126754623
-0.05194434872490814
-0.1178872209195002
0.01981525701504951
0.027201562742051114
-0.011496274084995189
0.054993807427836626
-0.11582598733026739
-0.20741154776939386
0.019843419603157594
0.001783640375977703
-0.006218188652889067
-0.005030302561440325
0.04286558856356907
-0.006769807145942539
-0.005472463770444992
0.003813784398532204
0.0298390413838951
0.04794188856201354
0.01167450496180709
0.00655994404538366
-0.007898627205654013
-0.02057089251675579
-0.010437685850306598
0.015037168426650736
-0.011760931150929459
0.031002758995185932
0.04690978464572282
0.02265848770140056
0.012127472563140267
0.005809044960703684
-0.004991991831513713
0.0022765001461606312
0.02126949037085359
0.005703915198100165
-0.03127194475644877
-0.020357601553558737
-0.025377641496467956
-0.05024947662866282
0.013045317671010786
-0.006668486504295256
0.014404520921972395
-0.024071526080449906
0.0161356538115821
-0.011216080228115087
0.012722114399505947
0.023939480701434486
-0.01678034488482834
0.007450933512768724
-0.0076723878694699415
0.0031191739080644867
0.005988603286012822
0.014208046177378302
-0.03198823997468519
0.06217594334206263
0.07338721874784676
0.0007324059439340854
-0.03578374086093445
-0.034341085923515195
-0.012541176957731234
0.0565285899244508
0.034721846672505934
-0.009394644607899669
0.062348457175146685
0.011471466727597567
-0.017246851224430097
0.07565252355469367
-0.03279237710775641
-0.033775473892375105
-0.02893855400953572
-0.01953421974327468
0.006018495708382964
-0.004894156876786127
0.009407321476816732
0.0649904668740548
-0.002468891998465566
0.10906496336098825
0.09047866875613314
-0.0011992732062132134
0.058251126296494815
-0.2716689375519609
-0.13197583841987118
0.08915529625520972
-0.005614662888735898
-0.01001788632821854
-0.0029793165590978636
0.014718118160770491
-0.10124753256921021
-0.059494587983082145
0.031161541046867622
0.023287386846359958
0.003061292248468752
0.00495164644054433
0.00835712855717084
0.021506862996101113
0.009196478456302297
0.04876650496274508
0.0017801945089130071
-0.008809006713875378
-0.08788691049874184
-0.12041791438186487
-0.017492370960596682
0.00837812840984702
-0.006153066927539175
0.009288959299417277
0.01170162043667699
0.007167663627882937
-0.01797704656286457
-0.0018873298604777863
0.003197031466634905
0.007151884665725581
-0.0352723379171722
0.08402865881532835
0.1145110605300701
0.004466684174978189
-0.02358449560801729
-0.1592704019783138
-0.0004997914724085355
-0.007568670969358953
-0.01772638680738213
0.029564839665115097
0.08282114991227135
0.024711375354856617
0.03740968958926636
-0.04262902959330052
-0.007175613650629143
0.0026331706945056156
-0.00959793119127646
0.0017599256840578142
-0.03313862263511228
-0.008221128737395167
0.00858132533096598
0.039409565484178115
0.009605606149978128
-0.032643932951965916
0.019085224883780286
-0.01591251838233052
-0.02379161116070382
-0.012815616010663512
-0.015327955287245848
0.02164617694552137
0.1913762960159058
0.039871644732623515
-0.02163373793045275
0.005856911806704747
-0.041315970691418416
-0.0028054605560184085
-0.02287269995202486
-0.007115855026056313
0.02712062469151049
0.017374440183238946
0.03466652989374923
0.007212174415865401
-0.004882650280836232
-0.029182585825363778
-0.02919852642601151
0.0019973409632155483
-0.0031003781088452627
-0.02227286823106353
-0.014670117487373421
-0.0004113599420057343
0.017572092106521543
-0.003670839954623008
-0.012475823877210183
0.02292889066634207
-0.008219275273699537
0.000988462560988098
-0.017776671633777604
0.013682665660964053
-0.023789084626087968
0.009644153089693562
0.0750721541741705
0.040432800561828984
-0.0036778345401396904
0.018707202909854632
-0.004907814323043682
0.0050484398809831025
-0.0970301932468064
-0.033068036284655225
0.06666092850348897
0.01223114514259118
-0.09808871361263682
-0.025234414846085514
0.02943686085543975
-0.010177083178005858
-0.07299608093408302
0.018641966907141407
-0.014663865135417467
-0.0037684164597026164
-0.01193629214339459
-0.011545010828297859
0.0003087002907830276
0.00027465587309889343
-0.027722998390570096
0.033530590884465604
-0.04024831794001613
-0.14375811077395495
0.012579414410132697
0.033613317707052774
0.043267524638145725
0.010115381799047151
0.004158027708807437
