0
-0.0027383051557470194
-0.01602452331648101
-0.04056636444546031
-0.005109872215924821
0.010207220791547206
0.025474607620106688
0.00034102885734633737
-0.00046713372756845465
-0.027549109227554155
0.04434767991432378
0.18305521683268774
0.03984736608134175
-0.0019678795295785386
-0.03746071866907462
0.02805351103802391
0.0514004321400826
-0.1318856179068767
-0.05679085798814696
0.005715877105451366
-0.017907701304833153
-0.039890806999751206
-0.024538897208062255
0.006156002219009259
-0.06495470260547667
0.12468308201959219
0.21124578314919076
-0.05626504942462408
0.09037822144122737
-0.050277170044943774
0.09937880197350842
0.17782082395325
-0.15775645512808717
-0.01664706794061969
0.0065411582848866326
-0.1164840357170749
-0.04609773245597217
-0.026827044713227187
-0.032444006606239216
0.023360311257339703
0.01595870661755239
0.031098763108281892
0.15621342344024025
-0.016027253015082545
-0.02661198088410149
0.004819730532502652
-0.04365558940155899
-0.004236312311117915
-0.04091562423414376
-0.025393913495502744
-0.020125942570189882
0.0018877434670011707
0.00750796619278839
-0.004734553094826332
-0.030540403223613063
0.007708923564985026
0.0008247415875273942
0.003203364287375408
-0.010907275956840354
-0.0051841949778940345
-0.17917168672720615
-0.11496634710267305
0.11073925767092525
-0.021448930726076686
-0.01335518040942551
-0.062383543726065714
0.01637082270324783
-0.00348778964663746
0.013460854722902885
0.1029942710299221
-0.007209609449042443
0.031936813713980876
-0.007244420334714093
-0.02866267779109759
-0.018610847082852548
-0.015045201372978736
0.012764056737924053
-0.023332228914822326
0.044466805792218345
0.2158111381652287
0.09704688570797743
0.009937126256438852
-0.0009606181106286963
0.021119976623328707
0.00884022658119774
-0.050151679577985386
0.07402583493429846
0.11362370575277067
-0.06504075178038789
-0.05121415673407464
-0.042345531382172626
-0.024225222112642934
-0.0408919546693896
-0.06892880537079879
-0.09201721910876955
-0.04458469603253157
0.05429258103210183
0.17382419505454952
0.19265164587781336
-0.030172282434010735
-0.01714362796632933
-0.033756022539149305
-0.03270026777368364
0.015191921729240878
0.0035578985153181582
-0.07715961109043043
-0.05691431658683683
0.029474771546518227
-0.04622539881138618
-0.05001321882103431
-0.025351392110582023
0.0035288070460163436
-0.021409515970986153
0.01656184781389871
-0.015516705412632559
0.008933616846097173
-0.04240372788120104
0.0017324015116686401
-0.04349252290952694
-0.07648410767993462
0.01946454046464531
0.032625999119594976
-0.06882040739265967
0.1619587787800812
0.09004170601346789
-0.1501142331660153
-0.021766129724858734
0.020722685332460498
0.10664600291329762
-0.04059529338062933
-0.015309628956616183
-0.0510641968283196
0.011750410772401779
0.003382516740615474
-0.033615018477977966
0.017256612692759594
-0.0016914961750044864
-0.04861225233315714
0.006476300633968471
-0.046676964356459884
-0.021466992641847524
-0.005935049110707137
0.014839117859656862
0.017977740646773186
-0.007069434712615109
-0.06462615153419518
0.046364255593873714
0.0514986481293893
0.07301091592340476
0.045749877495693494
0.10611733910309551
0.03671256915576417
-0.02057805016054323
0.002747590395720126
0.015584098022512845
0.07199586620872521
-0.024055411393625496
-0.0038840832022764165
-0.013522238614290097
0.0009700423899593275
-0.009064027952894831
-0.021237673852615248
-0.008359744661029787
-0.0018759403354420608
-0.002797666946390557
-0.017488363368895532
-0.014364676809786644
0.043035544615702026
-0.024243780975217476
0.005360017892131096
-0.03848892559851692
-0.02719780422600151
0.02738977175648301
0.07890685668289849
-0.024316172279573736
0.048814771390193176
0.054516639617504054
-0.06045163347079146
-0.024388336233827444
0.05452466398287915
-0.018540003965572927
0.03236611033198454
-0.19324734631458498
-0.13042416096887893
0.05141958327541168
0.012704042718079357
0.031002389652989727
0.010286081127046806
-0.012956437006970153
-0.025819772460193773
0.029821247329163615
0.10233840499955932
-0.15663180478698444
-0.059813608057129736
0.016761019215169055
-0.021878478500079648
0.03464845931184847
0.08976238942406733
-0.016210746630843997
-0.016589524356904868
-0.010961225947462705
-0.02378844303927578
0.07316784350501433
0.028497078286613006
-0.01744571335001678
-0.09160009082378626
-0.11562974144411718
0.006867347443158126
-0.030150586926116288
0.21348089446442217
0.153556760574896
-0.02434610092895731
-0.005744948084824472
-0.045799291300988296
-0.004279385137634449
-0.023527931112974864
-0.016176082932099215
-0.00159232723288739
0.020888233821549997
-0.021987829535400148
0.011259823699111814
-0.004087737923107861
0.006350380428014673
0.025629965389610668
-0.009161620106309831
0.0072855468728421895
-0.010564452282722684
0.014308954772018436
-0.02710611682394827
-0.10688185100786296
-0.020280471265088876
0.012037535916044376
0.03514153568517561
0.0028380764085018505
-0.00028693261587402804
-0.014163380871042418
0.02299643995453302
-0.008966839332758275
0.11107736882200722
0.025682222570588525
0.00282474585049951
-0.019830599570104215
-0.02740202797673191
0.00433443056947231
0.016371377720697047
0.008930411754577653
-0.03979658301190524
0.023004981607689132
0.010895883447753827
-6.258934689390682e-05
0.07261137497581104
-0.004746077224126147
0.04981288543741663
-0.0011224555676176398
-0.028312551583268897
-0.008343068175648507
-0.008362210898536174
-0.005034607777036672
-0.04662625966075343
-0.052114405352361934
-0.0035475567307041342
-0.0025421754857293984
-0.010939923385728424
0.02656213362434174
0.005101442362612179
-0.008851509084799886
0.004980332001850926
-0.009761372508930239
0.013979466184908316
-0.019484824932062675
-0.05598655318891047
0.027807676089065328
0.04225764906118383
0.038121617528606856
0.03342811845143456
-0.06346196506678334
-0.027272792879541163
0.012953109107333884
-0.04683750362545024
-0.029096817611882094
-0.03423122000333354
0.04084976383774054
-0.03701172247002844
-0.037359988771385196
0.012294701664963515
0.04910896050462794
0.024025176912048432
-0.016925438584014445
0.006509535806442058
-0.028257631751082868
-0.0019974044454040647
0.0017017558899023676
0.012211235984543488
-0.02900258828377292
-0.053280507435690974
0.000169358573330409
0.004617417699328001
-0.013204386119597579
0.02837638428635366
0.002252962503702524
-0.05515501318636579
-0.039540824674895315
-0.0067115530364639155
0.007222693387023211
-0.05507724437304832
0.03316163786997247
0.08745059685669834
-0.020274280426847983
-0.028118864312301452
0.011440879554636697
0.03955065674792184
0.011725502724970891
0.1422557211928313
0.021088342568768244
-0.0029475695023417326
-0.06766003987019467
0.11088138582761302
0.0544518849115429
-0.05703169589622197
-0.018862449780858805
-0.03850899919703634
-0.0176328605905699
-0.0062119701503612415
0.0004015923190606584
-0.03276988566457855
0.05195809887223899
-0.011151846149594469
0.22931339212519714
0.0801769692725834
-0.047911970252183245
0.01513047157420481
-0.02838408749823763
-0.07690699744203958
-0.005601019401789876
-0.006249799146817992
-0.02635753214917573
-0.006606267310937309
0.03841383646563928
0.05788423269671357
0.03887088360791664
0.009802897729920705
0.0024273626368093502
-0.08377532815246261
-0.10070409910656378
0.052223010238299915
0.07120313480688668
-0.062486302050608206
-0.06162935393577275
-0.021093724644820237
-0.017318627092126754
0.0007575889376085367
-0.038519414337387196
-0.06124780243013781
0.001990461726071157
-0.0006059390541992012
-0.034618933780257176
-0.04497588120879328
-0.016922358902194113
0.03885282143180993
-0.06720096293208368
-0.013675281621282969
-0.023070696415900132
0.17463296502294234
0.11023983554320799
-0.0813299480022272
0.006196085279296118
-0.03812708185593125
-0.016670328970900334
0.00019081918807382258
-0.019123988433554284
-0.0013822342196206704
0.028227927039542036
-0.0077584360146075605
0.057746077350683274
0.004878595805223725
0.020602025719071455
-0.03270608865257773
0.07158594260519607
0.04725746030452593
-0.05851871865099056
0.0066282373054557826
-0.001031092485000139
-0.011018947210917542
0.014099605636380306
-0.010934920495764038
0.02050320371794912
0.014778345094450687
0.00845240686320164
-0.029133196422047012
0.03705541023764009
0.06860906014626807
-0.04765344629435889
-0.093560335029138
0.007686988510303694
-0.014073034509578254
-0.021372797192024746
-0.026074184017499273
-0.038162434573263
-0.021117836365347066
0.027449916752069474
0.001002491612745919
-0.016647380864443447
0.013022955506191841
0.061282647703356445
-0.020523091923937486
0.023095850839246406
-0.015264639452184788
0.015652704225035754
0.03448447518242296
0.02110865072148491
-0.04959678408014423
-0.08823838844126561
0.00018189365938894517
0.004808722938738718
0.020324872605192904
0.02186126354319528
0.015872018996937173
0.015023916946403471
-0.010119623919390832
-0.010253794823792317
-0.03150424437159513
-0.06187446802979992
-0.008156012901610388
0.02359704239304272
-0.01862677537590217
0.009572312932577981
0.01399645001279702
-0.003923890998112513
-0.011258276542310977
-0.021651915443009817
0.02390634601375725
0.037427603494265625
0.01139965418477591
-0.0003909638715936441
0.0061725651911568305
0.015913642630584233
-0.0014506602104656266
0.015682901399033097
0.012859300253080453
-0.017555934690006752
-0.012701970342007126
0.01215889582335654
-0.010909851184332903
0.07295121298180136
0.05439795305439754
-0.006023476663335971
-0.005531931907129534
0.012362302643422913
0.042032546897264836
-0.00016012659265954128
0.02716221765670022
0.019410110932176913
-0.013355697302346132
-0.020962096595803857
-0.07822350984325999
-0.07186364323704546
0.01388435110083739
0.010471178702584332
-0.0027213717143673207
-0.025170329718279125
-0.002761464175735603
0.011504034162865967
0.043153403213763396
0.04032343109139727
-0.01044259543945388
-0.004360549604662366
-0.030154306878246218
-0.05264695755978944
0.014926519912775452
0.022431596002310303
-0.0009485789522899184
0.04781449236913607
-0.037185809279796346
-0.1378302141565729
-0.015891436990582597
0.012684498696926217
0.012682042253744098
0.004696273766225888
0.02395664552353345
0.013240103749150705
0.06654495888784036
-0.04453590277937873
-0.02392623598347313
-0.021602271227244636
0.08721555853033167
0.08390337570300002
-0.0359665160401213
0.02816494511513956
-0.001988618217470502
0.01571312288466011
-0.01972026461225373
0.041756179000356615
-0.04954462455140314
-0.003930924363777046
0.0249598979298174
-0.05235828929606999
-0.044007614465656035
0.04398169471037456
-0.06341043368531306
-0.09486392498324908
0.025943685353536205
0.0017116974844510475
-0.04642642955957214
-0.003778778898869343
0.08631021525241475
-0.06332547575564011
0.05141179691544451
-0.013290097419628362
0.013802189050518793
-0.038443017580512814
-0.05169011446795948
-0.013592375146352835
0.009090412815460844
-0.010842229864161066
-0.00581952904703461
-0.037315865489903524
0.08956702905710952
0.08841176312391848
0.1894628306937279
0.12171518921064962
-0.03733366406032843
0.006945199402685574
-0.01558452759148731
0.007793110552247814
-0.03838731594597851
0.013122439108883053
0.017817070563609802
-0.024835125408288163
-0.04724806198859565
0.036216848959140756
-0.06370578366254168
-0.09549140676997399
-0.03432421261759167
-0.0021713727687563754
-0.004446785443329216
-0.014927251986883619
-0.01533686937520167
-0.013268955802166067
-0.06445931020583959
-0.055051787031603745
0.0005041101029980949
-0.03300325815949282
0.0026874501650603795
0.007414292707810628
-0.0038866426449046462
-0.04998041251032616
0.04380883120180303
0.15119324241264037
0.1783281472988036
-0.03258391754297059
-0.008142737509042895
-0.015016490860685171
-0.020862841383735245
-0.0031364345239929484
-0.04929603628577171
0.009526937423068335
0.10213636049430555
-0.08791077037490741
-0.014090921247407642
0.02262494820744049
0.022005324210183745
0.02693791236864538
0.007317459827433154
0.01029782415986803
-0.048423829454649056
-0.04428856224934273
0.004888535838577726
-0.02539310154830393
0.050921252351574596
0.090834051860859
-0.029922526286866313
0.020046948216465944
-0.040692771355077824
-0.06092386675905443
0.01200506138847539
-0.06410392041137186
-0.11484038936618787
0.0243767560034214
0.022652609224711726
-0.02506455627405575
0.06736853922052467
-0.001294890411375102
-0.07690211028646152
0.0195027309312181
-0.012819244756430514
0.0010293675309524675
0.009262820827905006
0.030654611121641254
0.054181716440038524
-0.03725082779229259
-0.06735566839115165
0.013921936425062596
0.07132695138296573
0.05905131066463296
0.16659703230406261
0.020678357030306398
-0.009054034768990577
-0.05327366050852693
-0.008044110163229532
-0.014047460055747342
0.02800922022524249
0.04305057887789401
0.011752515001508613
-0.0021676505037627096
0.03207660018916567
0.03250193220454428
0.0762669917364689
-0.03097236808880463
0.0869337603325646
-0.20608147172943098
-0.23306821532719119
0.05783358507165148
-0.03514610696298703
-0.19520404093369154
0.06974966507817303
0.11523984108801073
-0.05963020523382885
0.01265414194607762
-0.007295741449518103
0.0369844427908225
0.0033486144684047245
-0.02432321558417562
0.018655012203989612
0.10073036406293238
0.0008837964080422651
-0.06498731960577338
-0.00625497917777086
0.06577705178353933
0.008415002831021088
0.011552750917582868
-0.03647816574472786
0.019856468167115154
-0.00048564042747201446
-0.006343854418346157
-0.01494892224348502
-0.03140986947015726
-0.0073656786830192415
0.007797570645787281
0.007104204366039104
-0.060304716614472856
-0.009534225824094082
-0.04929651179607949
-0.018321393931380606
-0.016651975541013716
-0.14168051000389695
0.0069461498587350505
0.011939753722276202
-0.0009001074729642453
0.12265367218796291
0.01710690386197843
0.0361017309093027
0.03511141749366536
0.004557228067633046
0.02297504530013854
0.04997243882704634
-0.014452810521351448
0.030548610535848432
-0.028998066358745866
-0.00875693978502005
0.03745500899930557
0.0032041056465599202
-0.0171261028067204
0.00968189704375606
-0.068118241246916
-0.031182448949560976
0.0005340336038793935
0.002110916611813826
-0.06194440434920206
0.10158783138914541
0.24154971100618175
-0.028689730587017993
-0.004006600384159539
0.023451293003249784
-0.02441024928524229
-0.011614358201170273
-0.006556396003147468
-0.007391426097492512
0.018103799478245315
-0.017244258304487867
0.006465727161750031
0.015190180634641962
0.034773400511841725
-0.06386847414567781
-0.008858395639556605
-0.020683518456104184
-0.0017515277296594489
0.014469800459431765
-0.0011568840978093012
0.004834051971046555
0.023714448486113968
0.07210391310912728
-0.0455215734718855
-0.04126175677506354
0.030424607590644796
-0.021618506045848345
-0.018587482039052642
0.007196344148941244
0.026444190287001845
-0.022865627674020422
0.006321882426903639
0.003513003865784398
0.024752460210252087
-0.04233399898753418
-0.004082126915682961
0.005995354377801314
0.017139918754460727
-0.017660112803181964
-0.003983169617980015
-0.031765257249852824
0.03446400661876577
-0.15809901481896382
-0.07799182103956438
0.02407470402723462
0.0538878797230118
0.036877095210461695
-0.12487058456595534
-0.037692805935895066
-0.02136991541318558
-0.09448617363046789
0.0021556121966447035
0.013299685889433064
0.014404807963140523
-0.01902924311575722
-0.027084805192705154
0.013476751318884657
-0.009386760166160045
-0.004897444185341075
0.008722105603507726
0.04173996887278461
0.016201563134788335
0.016590796191611006
-0.030869532680259857
0.039610357476067566
0.08570079335750193
-0.03422676331739332
-0.023103804893768218
-0.015391787465633728
-0.0035793257511297543
-0.030788800878767064
-0.008696468274698823
-0.01016289349686726
-0.008329924019123186
-0.020614639249828558
-0.0009306182410035254
0.04430828246907237
0.2814140915957916
0.072694711107083
-0.11302190131079737
-0.004766140674046493
-0.05027282606798897
0.06167061978376731
0.10993419872425376
-0.017483287432043203
0.0015382786238231723
-0.017482320682333415
0.1246733510806676
-0.04627264057678372
0.09855138916490237
0.03566123764148976
-0.032511560561619496
-0.04751924722689258
0.0027892402376736287
-0.000525312268685653
-0.0040360682844681256
-0.023019619640584986
-0.011728611315270338
-0.02841127729278145
-0.03107719711657575
-0.003231556808406951
0.016939506256978976
-0.03379484184388991
0.06297356284645864
-0.040784206801421925
-0.06443721140368668
0.010492445777036815
-0.005689471652446608
0.03973373900778298
-0.006623204553107455
0.011816923750059773
-0.018471530456672023
-0.03889294488542477
-0.018746458176414876
-0.010635694154833595
0.0008014773916270205
-0.03911611769624689
0.03860653403599531
0.10485160864416872
-0.011513663810405772
-0.003145188633922372
-0.04361479322156257
0.013449690673027427
-0.007384200217885197
0.009928591652794293
-0.046604128132202396
0.1118326265643726
-0.03855208165945258
-0.21210577944283382
0.032159625876247974
-0.003528038389764417
0.00018783064596506773
-0.011344218349571646
0.012531764946422174
-0.006249011839384286
0.022661009942873685
-0.036649018848562365
-0.02753413662711368
0.015041525130242019
0.03180911571845651
0.024468730519219262
0.005760998982519445
0.01452568266140396
-0.08267218467426099
-0.014116510231984788
0.0414919442997113
0.019812893279042832
-0.011592168449600223
-0.0284045462484913
-0.003908262683319323
-0.009235747811524395
0.03184127616663341
-0.04865302848342041
-0.012600316341112824
0.02093920314801174
-0.008995400580004028
0.0152876481068045
-0.007853813600094517
-0.02769186932085074
0.12734554355868866
0.15416945458104858
0.02174876177507583
-0.024080733897344282
-0.0006800585499820594
0.008887147469336148
-0.01017657210404946
-0.0676964425266882
-0.02337380576926725
-0.013599367144319413
-0.101858005214496
0.03583206277493713
0.009087855511894819
0.006777927474468047
0.011719096269120328
0.014516375635394214
0.03571281961338726
0.018349458059998405
0.03721221297683438
-0.11139335107111425
-0.04792718738469021
0.039355242039888653
0.0002985419878930673
0.03165570075376982
-0.007216246725377015
0.027577423144397376
-0.010177420396938308
0.025843123963709615
-0.050860330277819346
0.025223538776716008
0.062448087662302657
-0.023268923397951103
0.017733679039933496
-0.011860895088497062
-0.0040512782535311416
0.037819409364811485
0.0592725323086474
0.013473121028783655
-0.030937264123662284
0.06581691829598639
-0.03522134838715178
-0.19080805132698933
-0.004833615299632418
-0.058828148144207414
0.044070704083759626
-0.01184189575398448
0.02355628153646806
-0.05771032928364418
-0.028130722536379712
-0.006033261972242857
0.020015654843404975
0.008235235095603154
-0.03251178180941132
0.026304166450858795
0.06904518090348165
0.01902572615067114
0.01278554753833703
-0.045261431993315754
-0.003710574725217053
-0.03123021592190202
0.001745951250568799
0.003679071917311392
0.003853713049790778
0.03338970985367594
0.08411577575105371
-0.019427963194857956
-0.02696059067755505
0.0073437389203513575
-0.051282319720562006
-0.014536657157327593
0.016681854675941018
-8.21731080272487e-05
0.010193810134769636
0.009894406698699988
0.0011352051361874166
-0.01756027622150338
0.01175897173040439
-0.01052222040432023
-0.008615782775152991
0.0204324461111967
0.069605871909366
0.019127617814759818
0.0028610524945271126
-0.013441253040997922
0.013544936513110966
-0.008368842640138648
-0.000768028314951817
0.00530367541113971
-0.01234521381607692
0.008644625120953374
0.14355144172062437
0.012703890457615686
-0.01955849287281838
-0.0030418928209413718
0.025654696759105353
-0.027943036627446807
0.05490553649936619
-0.14842426916532753
-0.22347503071582203
0.021261269832507184
-0.04106486439433637
-0.031016024626912057
-0.02811327315852129
-0.017015015766647223
0.0658574954835797
0.10788759535333005
0.03241811537460668
0.004454549718830106
-0.013521933851719231
-0.01712619879575829
0.0026297968026665437
-0.04190700910773692
-0.024020818849988468
0.031263697926416555
-0.017543841196178987
-0.008614258535810253
0.018354437195474364
-0.02053875740068055
0.0032753819775138953
0.014118708760131033
0.021715764409413793
0.016517055165135897
0.002900230331667134
-0.03443941095123619
0.04279861475969635
0.09667472417977609
0.042331364654322204
0.01689114843564548
-0.028286426312857032
-0.0196468579892564
0.03001976852285654
0.04033030854920542
-0.039588576339956945
-0.029528484413038635
-0.020489398675435967
-0.020054670920932792
-0.017173471577512936
-0.04683591775391483
0.011918928851492722
-0.005159171447792957
0.021460884584389866
-0.0017794417968330818
-0.007013392602990698
-0.07791702474716594
-0.016621296805972186
0.0666663319176236
-0.053142825913441084
0.005549183481636628
0.1281298137404706
-0.017896610700928718
-0.01732022923046665
-0.010798379272258631
-0.005032876897095232
-0.035158272669465515
0.010402826167257222
0.033155510300158085
-0.01927400862762293
0.07984078138000363
0.004568423759767502
-0.03890326842810603
0.009264302262777028
-0.007636660467490772
0.04973849183633003
0.0030188789445406003
-0.0005852081036055443
0.0027641716460351986
0.0072865864497403945
-0.12985336064894384
0.0517134276332455
0.08652117361487036
-0.03584899860733821
0.018806697332100896
-0.023445312805018253
-0.0290067279159966
-0.005699135029948042
0.05572076590274111
-0.020524670350722533
-0.005867795118967481
-0.0030680008695856196
0.09380575077542967
-0.06216897992144256
-0.06394721261436269
0.004484864993335106
0.034715032410801
0.040534465739010046
-0.15184451191376067
-0.07116503188187026
0.02165899007441354
-0.013016100535992323
-0.01960674987779519
-0.018136446270143793
2.638622541502933e-05
0.015195501319806383
-0.005695470256803243
-0.12932179058202453
0.09043606216410825
0.13688214309403635
0.04723278234832981
-0.008669736153621656
0.004360012911562552
0.005334680860821055
0.0015584762517699715
0.03349349308041887
0.006506300081476603
-0.006149288630472275
-0.004959503777987682
0.01989885952884006
0.021679391591044338
0.0424028105059116
0.016963323383418008
0.016668169616043824
-0.01640873671763233
0.005796253435768767
0.08186707341451219
0.013486066171789888
-0.005909404071291937
0.013413665877231145
-0.07284165266628398
-0.03571881535522302
-0.010743953444606982
0.008857521432536607
-0.02621075521282175
0.0033695652901490625
0.012666132473449382
-0.00037898072424085355
0.00826226810635304
0.060356710111753226
-0.15961968615123137
-0.18549102181303198
-0.01974229384171601
-0.03067548773649887
0.03356136648109387
-0.021242332697157525
-0.0077128226029944905
0.02484078150261946
0.011170095445205037
-0.0052441244182510555
-0.01759571577334982
-0.029311802841983002
0.012527814072903562
-0.02105610307907297
0.0027011054765579195
0.009913832328441563
0.02223136696749419
-0.08973546099094167
0.02319847896075081
0.029415461921641208
0.04645828283488612
0.044287741223923316
0.11227197128281155
0.09562774559735274
0.019983707695675017
0.059964795289625554
-0.041487972734545894
0.1148042996426367
0.12860748465013855
-0.07126966233334561
-0.010531125773527921
-0.011484291323203671
-0.015281185819706087
0.001580874295479493
-0.02638269612622393
-0.007518713722535662
0.03365820630222756
0.00978673227131263
-0.14387415345074214
-0.1396153156456018
0.021923763483408805
0.054150632179294694
0.0009113213981268957
-0.02646996630560645
-0.050875603657844166
0.0016642094692999574
0.026216102981335535
-0.014881571426010562
0.011355803115729481
0.00781957200285265
0.0211217183024786
0.016587194377687697
-0.020073590866665648
-0.004556621865475542
-0.018065532477677546
0.005109631437568146
-0.011560460859813035
0.024631870246518892
-0.07899971875222098
-0.10431607490962795
0.05037673818615218
0.01425704913480347
0.06398094597372297
-0.055913396063016096
-0.08658270630974033
0.024968483308999236
0.0034704687660976024
0.0013530304215977468
0.008214698831082437
0.06285930784535457
0.0012392125808321902
-0.0355271547510514
-0.033000929747141354
0.011153110527128633
0.009947939028276166
0.012047769042769245
0.015853559605563117
-0.00985720945596867
0.017469325577422035
0.021791897702612896
0.037517422572548614
0.10642157802068146
0.00594148993239154
-0.0075665275819624175
-0.02763878153477139
0.013171665619832374
-0.012846623298909714
0.057124344591152273
0.02626418588685936
-0.03507784555605995
-0.00033107430585705805
-0.0034096222220012275
0.011934089993464276
0.0012505544484570647
-0.010046820312282897
0.030634568633106155
-0.05122681302630604
-0.01108810836733341
0.011490997718278176
0.017288332555077574
-0.027523412329177904
-0.010582180092415492
-0.008033383087970726
-0.04554612902639773
-0.01703746200478838
-0.07644953677880786
0.019767269809820333
0.03963982949625015
0.03409577555794737
0.017745311947024146
0.018553947696493326
0.028899819950270248
-0.006323547102195002
-0.016878600004012048
-0.05409590805923149
-0.00808302778967392
-0.01484278779420922
0.008581588063043629
0.0401522045268751
-0.02487462162125004
-0.014300153489077162
0.03738387709487044
-0.0075367094298651755
0.04328892904174307
0.02672139822994014
-0.03970226313631459
-0.016900789682410204
0.007766829925515348
-0.04903549064629345
-0.02373898900155406
-0.00027725724240615954
-0.04470264903884391
-0.025838710983158757
-0.014290826012546899
0.012679609336962355
-0.040842052072681385
0.024853406971792284
-0.019536374059630886
-0.02937911345922758
-0.0015963503658910107
0.1705192700557469
0.12861668800980078
0.06551841183068428
-0.02091861552992417
-0.04669962051269207
-0.01976520676802327
-0.020042235648331738
-0.00025319441863110926
-0.005520631959393813
-0.04795158030840733
-0.0678667305338114
0.007029160443507178
-0.07455330738554695
0.19119049110810366
0.11960873858066778
-0.05637277639344634
0.004595042930851078
0.10043276639516809
0.055601784769753644
-0.05276749671896953
0.04273897635702386
-0.018305773191205677
0.027599016053980806
-0.02139111148356182
-0.007650844273051786
-0.0354396586512425
-0.08964373333263362
0.008727055471611265
0.015782458963592393
-0.05354540224344633
-0.05999558507453659
0.005523544414574786
-0.03158660224445403
-0.0027639958652925047
-0.052209405045242796
0.024866426544233523
-0.10249445422731016
-0.21955862677956317
0.048243910059196676
-0.015184528096351136
-0.017590232820178825
-0.018793532069067566
0.05049758347146508
-0.01229204656765708
-0.018357110484740365
0.006118690767363065
-0.020904073926369674
-0.03477988954736408
-0.021373392527735624
0.05242965179156928
0.21492983573409016
-0.01742070024698724
0.012589087537441755
-0.0028269473205205296
-0.01791519676095755
-0.010662397159291613
-0.010710747515442338
0.0184650772427984
0.017230949146552148
-0.00942448261926656
0.12432455147029578
-0.0033812912280428544
-0.009720998727229131
0.020967159006626757
0.010689830432341252
-0.017739449985427855
0.018324361427199298
0.07120101471703179
0.032744903382601324
0.08918753420729139
0.027765811199459988
0.013706810300766122
0.041621661089867854
0.06143801460685673
-0.016893790054239525
0.0214927381194979
-0.005996351161460536
0.0035779286797751686
-0.006790791653813688
0.010936640970762156
-0.0378597149651038
0.05644094641970465
0.01669087428025241
0.029193474117238032
-0.14528136495230803
-0.23686617130873067
0.05417313841188484
-0.06401805331727453
-0.05573413611617926
0.029371242235205004
0.009065616368891083
0.09080290034112856
0.04379106146538078
0.006925187040473066
-0.02391399660374257
-0.18525686244584302
-0.08009350024904453
0.025295364895681176
0.002936242270907187
-0.013662005828857194
0.00722695258604528
-0.00046357912707937864
-0.002021633861868362
-0.003454168212486441
0.01039154954091518
0.01932098011882391
0.010067236550933738
-0.005897999971388082
-0.010256700249988981
0.0010911921362184063
-0.004093461707861179
0.018803215130674227
-0.01151087587323776
-0.004064533257853325
0.010473806751660082
0.002177650049653864
0.0011491387450555128
-0.00797507703432655
-0.01594773235270037
0.023459374040401
0.00981065478756163
-0.013628996676618177
-0.010167213184507203
0.008946818263955582
0.022599675868517338
-0.013517111498573672
0.01998659738800559
-0.011580540242191876
0.015260777727385702
-0.026930477148532715
-0.01439862319902264
0.013557146037751192
-0.005131062273440793
-0.02140228338392776
-0.036308437856430585
-0.021124337574657447
-0.07561755506757287
0.034342249049432595
0.12171922667475614
0.021218476383305176
-0.014264691975271504
-0.04597768147781403
0.13449602777563519
0.05124120228226777
-0.02584554836208729
0.006772233281128116
0.056090734647460866
-0.0012188422152494666
-0.04745173007068157
-0.03931278835031767
-0.05391894159594468
-0.005484823761091469
0.00098126802895192
-0.00627008662973161
-0.04549875811091415
0.07168686952945307
0.1428418043924078
-0.0020635294971304567
0.014067097837731609
-0.01507123308835768
0.023211409414245165
-0.03338983991204194
-0.01558684330965208
-0.022147626394920895
-0.02870202451245707
0.004089117275219887
-0.04258515227950736
0.07505883068385855
0.09859603611461953
0.010384482931389398
0.05069350409866955
0.09189601351866844
0.008078547994227416
-0.014648016824781169
-0.019439636360294877
-0.01990356859348124
-0.03458499961705349
-0.061432403265825164
-0.02703379716113247
-0.08350322676142118
-0.15027477423122337
-0.027399622561801933
-0.04436959854925283
-0.020519050688101483
0.021438025494738482
0.11609286912754675
-0.018442618859537258
0.003926957866948614
-0.015613431178402585
0.008167013317061548
0.00040960667511127235
-0.003360454288668247
-0.001570083432166524
0.03483194739420988
-0.06785415530561859
0.005426111282647779
-0.005930363815782295
0.1816375609907889
0.05346847195358684
-0.04575372856661581
0.015243267412274513
-0.06657510732775068
0.012674884247673743
-0.007533607267207203
-0.02709602911531289
-0.011434479931830515
0.03269450776980327
0.006221797922203637
0.08659624664879113
0.019439123791065754
-0.024493868267622978
-0.010593743238582332
-0.004874322824222326
-0.031132614988256344
-0.0005058724306663521
0.0012055853392524591
-0.009766318287481852
0.01555366438688358
-0.006651751153672768
-0.013579788243076627
0.0029493151407440133
0.009904919835303196
-0.047025452517139736
0.02254752442835532
-0.08341876380916674
-0.13815795831796415
0.022335299812257285
-0.023566054186593837
0.01215364903886964
-0.022703820850392756
-0.0023406227102353828
0.017924789953153025
0.030298667929289046
0.031851930437203725
0.0006139018016345973
0.04148719889456955
0.005931277835218277
0.024373754096729237
0.01854051793232976
-0.002931938647591123
-0.03379547551690193
0.004884634129938971
0.06269892545961668
-0.005912822499559857
-0.021847304843687514
-0.04702326650052149
-0.019992509545414202
-0.029345675770707645
-0.027356544638867938
0.02935499642634142
-0.009896088790757433
-0.02295178336458623
-0.0231362437775384
-0.022727699493230426
0.02300790200297637
0.007603894778548205
0.005255905017788671
-0.011581986317881985
-0.00023904402574432496
0.010202318334135839
0.0010234292521302053
0.22399339947275093
0.1081476722225406
-0.07533048758711698
-0.05523411471558873
0.1024641884337783
0.005765036922500365
-0.03097272858987149
-0.0006355785018116751
-0.0068348649074775605
-0.03209534046034129
0.051478119174178896
0.05769601977987451
-0.015433317803281797
-0.003848386974374743
-0.018130702782955352
-0.02560191209288167
-0.018128128641658088
0.015390669139774757
0.09358111991121836
0.04104763054858967
-0.045753791899118657
-0.05311593040186328
0.04270922545309196
-0.05478875947757289
-0.1455302636501369
-0.002033234155027459
-0.0329296187478556
-0.004222831471827377
-0.0012126897270902767
-0.021385620944925115
-0.003329025237248316
0.01146646347153717
-0.0009839519192199107
-0.01327260184916073
0.01907784489107171
0.01278332918093056
-0.03331514525641305
-0.006546369999614713
0.0024405716266738754
0.028592613579596967
-0.0012839511788393448
-0.005858048209950181
0.012015409255493693
0.012374195011100588
0.036964440671277986
-0.06731286388754003
