0
0.0010091395244560656
-0.0835188721001978
-0.03193411185879844
-0.004948189981546448
-0.0076569461753549905
0.0058186874998797985
-0.010720266923387947
0.03004845277778322
0.012970182257751843
-0.00876575165847389
0.0018988019159042137
-0.0037565024626580804
0.0432672805356507
-0.02943573477967793
0.1471602972746194
0.06366565395635533
-0.06974894482909194
0.04269475966382382
-0.09802500342508567
-0.056038231002352494
-0.01656869391606479
-0.023189671384946247
-0.026043098080849564
0.008272585525330585
0.015834916597301574
-0.0015226187166381573
-0.02212446564618455
-0.028402880143552328
-0.0011573144577971292
-0.009808761293846058
0.06363302720254917
0.05291084768353017
0.025571312067513192
0.005212399010270264
0.002571460796119565
-0.0011858987510010833
-0.01736167089204611
-0.003626703428353868
-0.003482856755544463
-0.02936303846349201
-0.038901554021714406
0.004406536976783765
-0.03584423270166147
-0.014784689611285366
0.02286836931088635
0.05357654895696463
0.0031106681222002066
0.025950187999746344
0.03110241646840787
0.005916161848801866
-0.016712204617616678
0.013611958703762113
-0.05266353536473267
0.003946295862122525
0.12966670756866985
0.040965286297700264
-0.042168471586107
0.08068292088252954
0.15714816968552164
-0.024938940784201724
-0.04132401014012317
0.015434547965186824
0.03548786432826643
-0.01999855137477847
-0.0031288492066130057
-0.04741832472761839
-0.023265416212909944
0.023484667544490908
-0.02098417678588005
-0.03048082861445937
0.02479010527777136
0.030288380986657024
0.015673146304353153
0.028138054020663255
-0.02391568397738506
-0.031064641816271187
-0.021650848147380587
-0.048814882755365954
-0.01170881513588699
0.07771175273993698
-0.16006417957772662
-0.1433010902437385
0.07224922227006794
-0.06315703282613133
-0.24383207170551344
-0.07072924760254766
-0.02835736303496145
0.02095762049637928
0.2240425707035556
0.07982038842702349
0.012571089866919237
0.005239842465512135
0.01500261744324623
0.03075204258478898
0.02282979431560514
0.0058455207632432645
0.020137801897727833
-0.0022172980111937754
0.03428186367168627
0.008913023084702114
-0.015275402359512885
0.012099230557646242
0.019126824888281664
-0.005294347089423203
-0.06749901728068963
-0.02666970748587345
0.011699381943642883
-0.02896862084844623
-0.01859011137703461
-0.013576961557449295
-0.01038073601808686
0.005472193082818995
-0.01828477992980539
0.05599061112006714
0.03234934127182418
-0.0038776599044186926
0.016394409877999474
0.015027394523883979
-0.006250571691502752
-0.018649039580993194
0.016225659272108624
-0.05916887619827074
0.13286543905058126
0.06697732962475242
-0.013813316542924966
0.01593553171277683
-0.0346284587547995
-0.0381399679974431
0.02416698731720384
-0.013167340942283341
-0.00925043093991221
-0.018468160606765087
-0.023585720033631335
-0.005157083645738192
0.0026349235005934477
-0.011060516399009079
-0.018459065520367218
-0.005611326546066882
0.010116546712671376
0.012275623338626777
-0.021693787522193465
-0.012797970524942543
0.029810711185890394
-0.0027132589455585417
-0.02505475601149166
0.003408572044224263
-0.031427545241845024
-0.008444558604353742
0.004117587560701543
0.03920253228137782
0.021064614805047368
0.022809987874208976
-0.027245392769447582
0.012472241172571081
0.004952081321804214
-0.04276295837901099
0.008028963246919034
0.012696734618931107
0.015713840595757072
-0.0014906294085567904
-0.01228189905171353
-0.012544637093726106
-0.007482426459124819
-0.02005999967855376
0.0039058317792679573
0.015973457545041727
0.045600431604470984
0.012156364014505601
0.01729264605144679
-0.02913744078465948
-0.04937575752157847
0.019189731655895704
0.029900497115404757
-0.07346531343792066
0.06224671777252216
-0.004896716540865122
-0.08893572013990235
0.05532691803464765
-0.02296217359159553
0.0073256534250587795
0.0030182807838379476
0.02342454328906332
0.011476778443435887
-0.09207393115045755
-0.051625237488243186
0.02743986879338276
-0.035871016127696616
0.07943544437547458
0.05797518139830934
0.11109959084432111
0.09858430286949085
0.0032797390631916163
0.015785606534050912
0.030353639776205844
-0.01076902684624553
0.004920774673688987
-0.018494076194610392
0.015295624583618677
0.025984988752282768
-0.013185776897646894
-0.0007057241432278796
0.024008844503332075
-0.0073100626442504455
0.021087321650009226
-0.17503238394027315
-0.16125128532677258
-0.052328895983834334
0.01181411448873772
0.018687003008351955
-0.03445853792014104
0.053091098307869164
0.01544756821602264
0.020955137534530797
0.021179643659755738
0.013116397155441693
-0.019799034940974018
0.013134477294535306
-0.026974231249505966
-0.019612624694033486
0.0008222504270151536
0.0017096798624104137
0.02362443207335125
-0.027274762931549592
-0.04829610318717731
-0.0010791402215788012
0.00810470974344859
0.020671233635445707
0.03685242715000025
0.006727125066931418
0.021228283663346885
0.02021722085181071
0.05618072917137335
0.03945249845595304
-0.025765115483728306
-0.0003909363431163461
-0.007809913197879386
0.0007177054292442116
0.009453148407841292
-0.02637709221055759
0.023917234325826178
-0.06323530969889958
-0.09176537095096671
0.0009924973459168975
-0.013023687972450465
-0.05658615284405566
-0.03640919061071555
0.05408404159265731
-0.009297069686457368
0.007345717851171877
-0.0055377612773368935
0.008418460391425417
-0.009214376705512327
-0.005966599756958638
-0.017090089090765176
-0.05538006221133273
-0.04892457180632376
0.01902871568578422
0.0007597432707221554
-0.006915125158520238
-0.01612329238901849
-0.040325877763109384
0.031047427515395857
0.13523609251374782
0.007122571572673901
-0.024136021828149175
0.01285758282138822
0.011220861150047253
0.03291640770643682
0.1958245246881322
0.023095981278628042
0.005739567465797957
-0.00174865105274713
0.07457128970377211
0.05079001886545069
-0.02286674911671326
-0.018663983883464602
-0.013902720676677905
0.02923438848339656
0.04389258174304446
-0.07448231880566716
-0.0027948110104021387
-0.03285352039990702
-0.04309246014876244
-0.030326211584087433
-0.0042163715933140064
0.019518405367105
0.03173513635725859
-0.014982206938334562
-0.03369773572322405
-0.032115464120883716
-0.016972893607229866
-0.0010780131394411588
0.02695689047049186
-0.008372828116245052
-0.017538593005503908
-0.004074403961019072
0.013232355900674208
-0.024825964160298284
0.01922106682328996
-0.01805338672885118
0.024787080555513395
-0.05606934615466407
-0.07449544707877381
-0.007668278980605268
-0.07759169066017883
0.03701333358974281
0.04836051243580609
-0.03840320225949983
0.048476763476658094
0.007996359365805825
0.004703148946723313
-0.014586648592978544
-0.0021630161159789055
0.0025445883061055202
-0.020286995007419536
-0.03028451978265637
-0.0014252600591314194
0.0057183876970426
0.004323321507902308
-0.02253138639965367
0.07196799107513444
0.0551113343478836
-0.008883681470998661
-0.013297611819220739
0.027325509654210996
-0.021509910124424932
-0.025583193064067273
0.014616849717877162
-2.4416643126974745e-05
0.0038421345453957256
0.04189484569485337
0.0034319700418376253
-0.011129096128363188
-0.02083102569582539
0.0316527007755221
-0.03267954918518182
0.14376390671533873
0.12413905276381226
-0.02847097379819104
0.019372423485176257
0.01727396683755316
-0.06302264198378332
-0.11035846419463256
0.02190565607090267
-0.0014354495938567321
0.002881813202478707
0.044158063302172805
0.02309826697540569
0.01401533106218516
0.014408212915667833
0.002048243902020534
-0.03950885014109578
0.016761888939782334
-0.0419900399541432
-0.05240343479445693
-0.009900890640512135
-0.03884950523804455
-0.012693833018335147
0.12462718602890113
0.07698308420649082
-0.24370733385041773
0.0010025888358375162
-0.014476987025345509
0.013917722582376939
0.008010944286439687
-0.0019337957845678348
-0.015902725060207856
0.01738738997886572
0.029617566976885043
0.022894179867621975
-0.021500638762387853
-0.018983658242644797
-0.00015437802096923854
0.011162083488791089
-0.09398813343480177
-0.017046163047367315
-0.0597036943218874
-0.007666660574497681
0.007974535636514528
0.004207057886545822
-0.023595256927444956
-0.008793668577622087
-0.016429216413936912
0.009642526207380236
0.016517766464956184
0.006127694966571872
-0.022242146511455452
-0.002138873139524725
0.044979931790005145
0.008836869300843988
-0.023534647299422572
-0.00010620273988594423
-0.06996591214557908
-0.024666393721859796
0.050788281448364954
0.03330669907926025
-0.02378010698596852
0.007896745460415492
-0.034733142698587724
0.06821928255751314
0.19482040597020842
0.04384259699239636
0.018971092830884405
-0.024211374472132004
-0.01614116772771422
0.01852539436793625
-0.03394103956275583
-0.011803890677675625
-0.026525632558305784
0.003787062471612478
0.015769615180656275
-0.0032705813323575523
0.026134162533115256
0.03907597984643052
-0.02802879938439033
-0.02218579444591573
-0.0073677274417196055
0.0906339665990114
-0.0025848891780552823
-0.06377198259333727
-0.0028107846678525235
0.036549647198883733
0.01023556693264792
-0.0324147336629106
0.0023573962967469307
-0.04059508923520853
-0.01833466138977585
0.021321451582687882
-0.068024507759369
-0.03335837942217056
0.020289259286674084
-0.00943526709372146
0.005465680943553309
0.01839513209749257
0.10342588085316196
0.02395913897686388
0.014511025761834663
-0.012239979844612465
-0.033372229357620395
-0.05385180598282614
-0.014802132617544352
-0.039820483954588565
0.018888300989022597
0.21640596328655626
-0.011137884860498737
-0.017770613420908674
0.010310884404671247
0.00024676059884864754
-0.14043003694584716
-0.05356870486398262
0.08938006903891005
-0.016642519372037128
-0.0014928800612953506
-0.016608270013803363
0.06190938182748506
0.05486782388856515
-0.027713034207423357
-0.0026945852114483556
-0.024620240499047517
0.024848726707257403
0.0027029695168548887
-0.0024679583645327075
-0.02984266598902628
-0.0015088907385109498
-0.01689989043796783
-0.0023830530229422197
-0.0019654585599301637
-0.02672767971181923
-0.039543375412829096
0.010586082018685746
0.002129675586157877
-0.1417775433461262
-0.05648530411249395
-0.00124882850768299
-0.005295219912396424
0.009134061984383286
-0.023247647118095818
0.0939440341870358
0.17198602591649806
0.06596725633921378
-0.02446680802871244
-0.06350640969402054
-0.017428925608378568
-0.01740347010599967
-0.006286687246304114
0.03503328666456323
-0.004122359656801866
-0.031977591270797585
-0.002506852200026276
0.0031173027346905295
0.0135058200443583
-0.018845794828939704
0.02301142485972914
0.024885597441923053
-0.03647681660346721
-0.08716128035977334
-0.027471439572122006
0.022086182048555694
0.012327893118359927
-0.008876841191560993
0.005189326651208521
0.02788005723870153
-0.014614107706198988
-0.01931351771363834
-0.0009013442615578643
0.001825994356741493
-0.005404377108467764
0.00727594715601947
-0.026487308630461587
-0.011566455777338414
0.008018025097443664
-0.015845698326906087
-0.0008512995711983363
0.037062341968887295
-0.016785357907220657
0.010632645947760054
-0.07321051156298833
0.015120171185337398
0.11000885456486094
0.017532365784472714
0.02739486079752401
-0.03867664761372428
0.008147152040339924
0.019887499100313087
0.020864501038167494
0.047937435038139374
-0.003796625539307795
0.011062983492371484
-0.035542602678590475
-0.05299449283914076
-0.007266594012064506
-0.006947626371960117
-0.009255890998380605
0.10939261207968363
0.1024417489648379
-0.0017544288725814083
0.028158021892697904
0.06564006283631527
0.04591741353869307
-0.028219502603108876
0.023015818449482212
-0.02494651667461186
0.010432877808519439
-0.02878780526805103
-0.07953438907567002
0.0392419774787203
-0.003664410048059598
0.02901605192537446
-0.10134512107501892
-0.2039722995995098
0.020604024698587655
-0.004290903805535482
0.022217953587895235
0.02014137321487233
0.01951716525038963
-0.0029317249260417738
-0.013060747810994791
0.04580426693058147
0.041961491084286255
0.034350793856183344
0.020464168256867147
-0.045093614710212684
-0.02069637271097042
-0.005358217965822955
0.012808614366013814
-0.01929260751944695
-0.1451785062007892
0.008332584506475617
0.012063396169476874
0.005984604993769352
-0.0015998264775295282
-0.026561857855398024
0.0013682515470439336
-0.015068879186638665
0.036766787801728006
-0.00463447973078305
0.03815121810131987
-0.0011542347882442564
-0.03052287775130668
0.010472047396170355
0.03300814206833668
0.025805481568145026
0.01759170372973877
-0.0061792746956044345
0.01011285701367488
0.019323877407854274
0.006596855561305373
0.001317860945779328
-6.4771156010913e-05
0.0005029871831932889
0.013059350182578809
-0.17166954186146896
-0.03915237962617913
0.020680281825324307
-0.012128460957773455
0.008190604886617603
-0.014088962341434376
-0.004278511643111156
0.004726082778278936
-0.014035745041615841
-0.02213985356611719
-0.0002121392628569819
-0.02512587798783749
0.03228460782123273
0.036645468918234454
0.002269491938327079
-0.0013723760790028162
0.006484582199519475
0.0018970861830441277
-0.0243457733838061
0.03677291778647226
0.18627029066000436
0.017606226047546372
-0.015243646986212613
0.026023077829805726
0.08369223950456937
0.07915205566001471
-0.06826597981058578
-0.14389010467368296
0.010609001187679391
-0.0056262396320227006
0.00424539632973438
-0.002663735142197069
0.003567501424083449
0.0016371349782373266
-0.012440547254041643
-0.02979711676007244
-0.018162242815342754
-0.005873206389228168
-0.02064028497991741
-0.03861439546344891
0.00820042052135174
-0.01468796823134345
0.004405659178103162
0.022841565080490678
0.010916486941896793
-0.030265289599228456
0.020337151532152892
0.06266515845304634
0.0064026187325009485
-0.01669718740077454
-0.013763875370965217
0.011793053143947983
-0.003650808218069028
-0.01614662724850159
-0.007704835857877873
0.01570209073637954
0.003709038695828241
-0.023551564451019934
0.037708932117059
0.01981752410643069
-0.02884948984820695
0.015724156597601138
0.059260004342383966
0.010338867804728083
0.003524765624585797
0.0038476531703079578
0.002635442555936706
-0.004398939938951521
-0.007083254673279172
-0.022391385618948226
0.024500147581268488
0.00682512736877502
0.0349088887065329
0.02161367392356502
-0.02606978758392347
-0.0004792886941360368
-0.01778963281873874
-0.03905320111280433
-0.0074045215121800265
-0.03351149671411831
-0.04269963779175508
-0.010818676491053473
-0.008353260991393574
-0.0027990351070699584
0.008880840366199872
-0.008012185383671063
-0.005157347411516232
0.01646122876781204
0.009545485316255419
-0.04320256019558373
-0.020560874367230666
0.07387439797817652
-0.01131508741740833
-0.01364551723596141
0.0014189429889284115
0.02632047863001753
0.03748048477255171
-0.003601668933156166
-0.015322584562908621
-0.025623902733540573
-0.02558601730676132
0.0596027752673511
0.021585208828521975
-0.04436595597144046
0.009701196839822287
-0.033276268763164724
-0.029328103255538102
-0.014642980914377232
0.029087644344970215
-0.1114000797931328
-0.07138439806566826
-0.0019215008800581165
0.008231384978712942
0.24002033445899618
0.020394494822836343
0.009450618212867069
0.023643960575605884
-0.08460102221958976
-0.1914414612027764
0.056824511544580375
-0.0072716620732898255
0.07817727830394364
0.04726039628549057
-0.010367344375064844
-0.016551870096366505
-0.012237643297908612
-0.00776936234772192
-0.013934625572351523
-0.017338913528938543
0.027905427272532392
0.013246772328386686
0.007052930096089704
-0.022263317069556258
0.0910785482444215
0.1516545331087953
-0.010023703927128999
-0.004921201868241411
-0.06590279186294556
0.0012878445159885644
0.003372841814814591
0.018353547558214545
-0.03635807838391542
-0.011087500490053812
0.009788321631133948
-0.008425875158912601
-0.004199661183648578
-0.02396766604204127
-0.02307719530701769
-0.04487413723037202
-0.030581065188341576
-0.02480103409395684
0.0020673839829157153
-0.03402143663920984
0.07152023147156365
0.05612187256882686
-0.058914151798376474
-0.022772396434610598
0.026761723062715202
0.0969425599106508
-0.01738000049819077
-0.0331898488221814
-0.02746843228324174
-0.07760626764721068
-0.05325866050030023
0.019492903336217074
-0.009174434875056361
-0.006699074701714438
0.0311485245319291
-0.007049626927017847
0.004335030581719314
-0.02354714806753416
0.04466442651336716
0.022835563570351623
0.05754007829047623
0.18292319700877188
-0.055700566577895
0.019439654222056034
-0.015045384300423409
0.007171416162975496
-0.05090030249936214
0.017738642127816718
-0.022363040896188072
-0.0006195351612981539
0.008282027657813383
-0.01150997768406976
-0.052107406812041256
0.08614301234092218
0.01607362107704725
-0.012900069334673159
0.043460757179008706
0.05728490471057348
0.05498726980965127
-0.043036215405219284
-0.024115383265876457
-0.02079932712875359
0.0154172458510438
0.004957679437922296
-0.007244315187790612
-0.04551739343248301
-0.025006006689929642
-0.06939437270428234
-0.09866828969478447
0.007334824613008682
-0.030520253028612374
-0.005597240000126634
0.019130049361926933
0.11675762193291488
-0.04908404055490128
-0.03931068039742353
0.003301505456664335
-0.04620780511772889
-0.017723060834842708
0.010618560730026169
-0.018240655103543314
0.06954918743852899
0.005020690196008522
-0.029917238588641218
-0.003828019289566596
-0.024023948768157357
0.011079741230021218
0.05835834676977735
0.07052771733871577
-0.05853969399757249
-0.0321843860579751
-0.03319022698870555
-0.009954434877102004
0.06166914352005996
-0.011158630283272465
-0.02101875401931328
0.002452071190558697
-0.03885955203451591
-0.014672979635982552
-0.01553338268183165
0.0008759881314772007
-0.012752688502621654
-0.029651427518906717
-0.017322173868642224
-0.006077746061760559
-0.00037622379237755487
-0.008161776224905415
-0.028677767039964962
0.005306917091666959
0.022128020766246686
0.06692760780173418
0.20890513742392602
0.09087861060965434
0.0017012605903656919
-0.03255724375895731
-0.03942221627901688
-0.008249941129764642
0.042991681289150256
-0.016330664467278495
0.00046553434342071085
0.020540897882121725
-0.026958484586681607
-0.018327985842974643
0.0015552018411152948
-0.0008504716734427218
-0.019039155860676595
0.012709352117435445
-0.002104626215205399
0.03058857239590833
0.0013033576824201833
-0.01083906383097474
0.026653396368729154
-0.01134732511049004
-0.04179218722607568
-0.011819455667919176
0.004855195712759637
-0.033431570337731274
-0.04685813875884034
-0.023229939712897867
0.0056584167196729145
-0.03125483609730823
0.03499734746834438
0.0034766450818200755
-0.01989865141665355
0.014852970459105816
-0.015971419645595567
0.04170246007904545
0.04970743301829844
-0.016546970771887583
-0.03445278004664107
-0.05657580565143979
0.014358603713452045
-0.019689971005559477
0.00013838441047862263
0.018196068705666788
-0.010828597236104418
-0.02201796443818709
0.02074262909697095
0.006520303105504613
-0.013005999599660095
-0.0017891417052926834
0.012699176080000478
0.011195987345747407
0.0038491475669137696
-0.048478715120767304
0.12416193509210084
0.04327899229008191
-0.018764224786111845
-0.018396832676385862
-0.010250360109174576
-0.009874141836651267
-0.0020045544919399406
-0.004744944793442602
-0.01653024216810997
0.01248251662978521
-0.010362972272713255
0.004017822534013134
0.004445855810486101
0.012297507506384872
0.009915392697342736
-0.007965473779004577
-0.0012648567313644332
0.01975692629172533
0.03549451712769561
0.013753221317193335
-0.011706200507216297
0.029476592586152556
0.07904396487163964
0.10367273959996962
0.015076644232719795
-0.013657391829619647
0.05486838773689985
-0.09576849208465173
-0.16925127720338887
0.04397610333636659
0.004501750734291528
0.03193984443536995
0.014976728439223699
-0.029736891993744827
0.003234845813688958
0.011775032702087861
-0.07309506828738757
-0.35112674838275043
-0.07223872104020669
0.10633475964799778
0.0024411397853911056
0.05212698243440554
-0.07252487125124886
-0.01296695911297404
0.03695445720863344
-0.015215996851846986
0.018846353665976853
0.047629673168365756
0.04600292208253613
0.04187894587635838
0.018419190441368073
0.020830139672776513
0.004993415056681406
0.019816552703331176
0.04371201665483975
-0.02663290404485268
-0.08075415130970448
0.07798058663638209
0.04168566405585957
0.014950138738996257
0.033287384365820294
-0.005845732309732235
-0.012634224779219301
0.012232961044427785
0.019517284219813278
0.01926435684319159
-0.24025231093110325
-0.09499514359426793
0.01218389270811405
-0.03218923161958125
0.018117865933674596
0.014987512587281437
0.06381595000372471
0.01354360328411095
-0.0349924470233724
0.005449534863202597
0.04105394411903735
0.036171224908511566
0.0037057596561302923
0.007363077918503537
-0.006548772179386411
-0.031503292864288476
-0.0011378575765614522
-0.002334513042575546
0.06301059599700698
0.0020700999851689167
-0.012745854120951642
-0.005312925133439307
0.008864725091778847
-0.04467151846113698
0.1404339783789307
0.1757512461821939
-0.04074199897510584
0.002516211245100361
-0.07017148908237482
-0.04312834616120918
-0.005414907821727951
0.0083676268989895
-0.017083416265942477
-0.020191539282234515
-0.025473205020682153
0.014857300135325982
-0.010310813705488546
-0.011996254392115076
-0.03684564277717358
-0.01181590004300617
0.05396649439092183
0.01738573049293059
0.023272150047053457
0.07504013370136164
-0.026426277135056915
-0.027243245500861917
0.021848857211411676
0.0004688079995839605
-0.02031340775563358
0.004005687578844825
-0.030523704255023973
-0.009067895364417504
0.030307614125551784
0.04049251450325494
-0.09762527707046485
-0.02722211816236619
0.007841201695239348
-0.026503128442971015
-0.01394932547074086
-0.0162836101638013
0.031246747133660734
-0.022969528667748797
0.0028732223843907466
0.019196619663435888
0.03391919694687514
0.02085671957675122
-0.005509119281711401
-0.008107543502211175
0.005990764943911001
0.016701381651203797
0.048423109829199965
0.03926395475971425
0.008858501704846904
0.01430976056675048
0.0054903934101500395
-0.02986632596505844
-0.06810138133239606
-0.06108753193180329
0.04176041581496594
0.002775718754093469
-0.03321680579424498
0.01665328614108702
-0.05424537744178303
-0.014474469403778053
-0.025842541911563134
-0.03947617230675259
-0.013404071306886261
0.009628524336460905
0.018860771039978005
0.024728948874191622
0.057089471991210054
0.01249286299227776
0.025140545874152112
0.04403905364991577
-0.01062094524446356
-0.007105777287977391
0.005248189483401905
-0.013782625939726515
-0.0038605933019306253
-0.08457354935656143
0.051467170138952544
-0.02769474273128435
-0.005323169865577129
-0.006303857086381856
-0.03817152636979044
0.0008118937764002502
-0.010884415481953885
-0.0009480487763856659
0.017915418784655926
0.04883988303040155
0.0008255989309107768
0.04554228300264262
0.014561574611203124
-0.001679569273227595
0.01647651339924956
0.027699383055285527
-0.008509120887691258
-0.017400384534512845
-0.004184328987712573
0.06422157279177591
0.07658195989851291
-0.006873411237262954
0.005649414963538366
-0.012571038976241808
-0.009554959347491095
0.007592293485862685
0.0029708658272949336
-0.0002606974007357817
-0.19806897946112378
-0.08405735671132353
0.015507066608661895
-0.03610624261005568
8.174144395419941e-05
-0.011695244610585005
0.045611219151486304
0.05970408891260659
-0.01799751966637238
0.029118106956048946
0.015095230957412572
0.008157996823663706
-0.022872225418702964
0.06161574849707326
0.02707926866637329
0.016960508711839246
0.02201635200351912
-0.04110613406851988
-0.009405368679222943
-0.044863495721037705
-0.007122982009253438
-0.014665532712447209
0.06886584019366625
-0.05761576106262533
-0.10279094829013005
-0.012381348703341266
-0.0017755105025609114
0.05332663001225311
0.007814351150704384
-0.007436027306609268
0.01959732862101554
-0.11763890675865868
0.006107006165617432
-0.004368019374019556
-0.03643449705256747
-0.022852594848112855
0.029722816149850364
0.07531663385827413
-0.0037357798193352566
-0.06093393866460346
-0.10905518668467348
0.15905472950565258
0.12589611072271623
0.06208031142136361
-0.00812609747052767
0.023273786730127626
-0.007569777544396421
-0.01725310588233854
-0.0011884514532283347
0.003838894391744437
0.00119284911555486
0.025978464831906228
-0.010860032768487056
-0.06315547887589848
-0.0775737036271742
0.005436011785104183
-0.020547867716794028
0.08473931558453718
0.06889831614860095
-0.055768530428672906
-0.006142328740206399
-0.016223647726797727
-0.03027237271489888
-0.0064092974180086255
0.015524061079894309
-0.027511237697931
-0.016890586651939026
0.008004720600751122
-0.005643730269289997
-0.021909752687454688
0.1166169020425613
0.11703790037413035
-0.05631901908490222
-0.006318348477399937
0.007253755782773614
0.05439182192014611
0.008512515420402678
0.0003001003108403265
-0.013438779265932965
-0.012720613677087562
-0.003958689536491203
-0.029715028014187943
-0.005041307445976403
-0.01553777300790052
-0.03228445323560297
-0.0022944748214775114
0.042053360607616955
-0.006139893584809975
-0.019119631589806552
-0.007502322451414366
0.0034475243484904973
-0.008565041131487566
-0.010939310153247023
0.0018632744140257517
2.163828970295919e-06
0.03739695014484222
-0.003916460809036415
0.021331640384706592
0.02015938986117037
0.009295727710774474
0.04439509908676051
-0.01021472417070044
-0.03950245478380375
0.01345413693024045
0.044820010426519126
0.031980375810070995
-0.04243097759593954
-0.008209022079745845
-0.005259257004870203
0.01858179069610889
0.04803426149923919
0.025721309324982046
-0.1285396038524643
-0.12916627578953274
0.04614951464072455
-0.0016852619559470272
0.04324117542551141
-0.08576461269792165
-0.03955489567155801
0.03900538074592351
-0.012479108172925739
-0.0188719261981505
0.012266031010271586
-0.025316133200274035
-0.11784801675075675
0.012106677925120705
0.005157986506333004
-0.04766957901928976
0.07268313620345353
0.08260934608137184
-0.024652709791871067
0.02076928741330655
-0.07429318159556092
-0.07969035351674389
0.015175267617615956
-0.028601646216399684
-0.009930177071478854
0.006932958426934957
-0.03461139633143496
0.013265395260778133
0.07702557947203027
-0.04693808567572551
-0.0015554426143954427
0.024254554310645923
0.010359844235308785
-0.030156481417014436
0.04801606696070435
-0.12644292858919323
0.14114415044642975
0.14201352918525736
-0.0684255840409494
0.19919539014674145
0.05037648536301011
0.030711925541910823
0.03249188879984931
-0.010353348403624372
-0.003281512420870964
-0.007626434475372654
0.011168734826627951
-0.009699288752334622
-0.0037220125055049506
-0.01793451877949531
-0.03604588016098392
0.017567857237680198
-0.002954042033811092
-0.015127351978400587
-0.027726262412544243
-0.0450223059274757
-0.018367576935797228
0.009569313936070994
-0.017818838825593798
0.014304975131236193
0.00841009118828373
-0.0009149546919638412
0.0014137265192790231
-0.018249857938307662
0.02259950946961454
-0.0067867233140635475
-0.02963067609252355
-0.049698202715484224
-0.0013225454688086244
-0.013833905238230332
0.011524099570608888
-0.033359464025210346
-0.010995144573364908
0.0042700489052788365
-0.038485790638970514
-0.010271562512365214
0.0027968205655964393
-0.008706133474035245
-0.006841788141514036
-0.03165169030953232
0.10545376951664703
0.07799443195602343
-0.04626242807502135
-0.0006688602761368425
-0.017227036960534143
0.02206195995656478
0.004872071245391689
-0.033754435774188726
0.004534887892506918
0.004167466617066239
0.0400542127429616
0.020399477761191463
-0.02790613814286209
-0.07208721616814566
-0.08748312335613329
-0.015858560609168258
-0.01083897705852062
0.004716303439028794
-0.0006108032263216781
-0.05024729825638811
0.0029473892447827678
-0.013722926315645607
-0.00788881269415634
0.09241598016943363
-0.013320095460831186
-0.008228012341082707
0.14561482472387355
0.16950215314500347
0.03906780847865331
-0.04009892524499196
-0.0436534420973676
0.03762167160833113
0.047075819457812515
-0.11481720277357212
-0.09313564290530259
0.06714023506006961
0.10184999605484366
0.030945967789328982
-0.011613075954277357
-0.01472285327809084
-0.005893516743712906
-0.0024193615720175597
0.016217493928540827
-0.037893504142955496
0.014253328194703242
-0.028373155577346224
-0.0618081217769099
-0.0143578037263804
0.12147243554164988
0.02649294236908636
-0.06205885663435716
0.01831492154732038
0.025885980115514223
0.015303078512422226
-0.06346339322383614
-0.0013129658523081341
-0.012140675402244122
-0.0006729572469659222
0.04066917644335656
-0.02162074386210256
-0.004372939526643037
-0.02020473115747378
-0.14422761587714295
0.004146791736845773
0.0018286582410401105
-0.015842384324980193
0.024446530928748284
-0.0011243347200533991
0.000598235242860037
0.04341479652192715
-0.022319266000948083
-0.006138223430274835
-0.020021906974138807
0.0038023665754991108
-0.014757224351912094
0.01651637117986505
-0.004929506552347455
0.018835617101604023
0.02082803805282334
0.028584871554068064
0.006084290673025958
0.022839086333148906
0.01348528231786909
0.017911559321358687
0.001640866815791137
0.010757394381025784
0.01797065477906429
-0.01379003328137227
0.0067800489578741215
0.03140942335933431
0.03759090699850005
0.08917399152481614
-0.24056070982385147
-0.14624455476909462
0.05652572585721829
0.011574785058185617
0.0263988828109981
-0.10287232813279827
0.009822102213302581
0.002198966043048759
0.032881441408077576
-0.008750262011036423
-0.027864967995807
0.012097348249484071
0.026618684957954396
0.022433190744329524
0.0331059053955553
-0.01976631705282682
-0.014848071424744357
0.019528580477871822
0.03889529105138158
0.019053088225283975
-0.06329955132051814
-0.020510068913084885
0.0033491942600459785
-0.079815865549029
-0.02036818387540465
0.015092531745316502
0.013862339589325813
0.07485965312137981
0.05418782235022953
-0.05232491059136083
0.007404760590838541
0.012513528904248075
-0.0217675653331272
-0.0033727017359654423
0.009206192855485514
-0.0020042073073524786
0.05449481864368945
0.0036654968783520563
-0.013815186531558762
-2.8727257464679084e-05
-0.004618039641362561
-0.006956206030493201
0.03831578904454276
0.06420052036231094
-0.012681051221158493
0.01903039484233403
0.01443685940091361
-0.06473640005625848
-0.019008003349064106
0.022591535320622975
-0.030779638278023613
0.007918083729627691
0.004616911834302447
-0.010475798344156495
0.00012360964290391747
-0.012802795831300593
-0.0017227100931730345
0.007751476779783028
0.011016724824566148
0.011701201449108673
-0.006349203125780092
-0.0179792108296697
0.0028559299552184786
0.004215953079842738
-0.026024714173963036
0.007503972755081272
0.016246644068253213
-0.0004463352520200057
0.0019039841647664158
0.0042008433008594165
-0.012020272651769534
-0.037321566845830434
-0.0250905902350588
-0.01507053960788938
-0.021042641032756913
0.043976405752384755
0.06577952931948038
-0.031088814632654716
0.054491025798688156
0.07167007485614722
0.022973900337808002
0.033254894749132576
0.018936511250916024
-0.013809052864198808
0.01371472948491885
-0.05128881475488412
0.05187446600430056
0.038725725774837925
-0.03550918230006536
-0.01106059368076585
0.004263253869682449
-0.007102427866790587
0.021477123294794953
-0.050161806622808135
0.005553927271271851
0.014596993775703953
0.010387401069624018
-0.02239487386475876
0.028796830931473866
-0.10988483950641746
-0.26099433072607264
0.04117665996574824
-0.05661168794684143
0.009167105953602797
0.0155223808848842
-0.02979033961466602
-0.022265152331497548
0.01440686782232637
0.004969575567657133
-0.0016095253056258806
0.0029753799439344595
-0.02169274441160639
-0.0018856405733343005
-0.01714994630864084
0.007669066129371754
0.040368131901877324
-0.019372537628607453
0.025534690182913305
0.08891302858733002
0.016796186175283903
-0.010563990397734169
0.015873332775126255
-0.00164964420636117
0.030893733589892607
0.021751544508935163
0.061548976195998556
0.14989730537165807
-0.028654127321286263
0.03763002520419479
0.01509592393548378
0.009323472278172077
-0.08919165221851179
-0.08802576054830154
