0
-0.0403381469867712
0.06107700178862231
0.06068836141575271
-0.033935831214363235
-0.02262601159406597
0.02091458866502948
-0.017599057072318996
0.00027981698768961326
-0.020355042623278294
-0.00393430702144228
-0.10214557369654453
-0.02819977130166425
0.0833626954501639
-0.00958767732619352
0.08803876779064478
0.006246881039699057
-0.0132851534769208
-0.013286088813097622
-0.011552682370622042
0.07767332187190644
0.029044361380184024
0.049764831629188565
-0.00963279768121665
0.018384065405133203
0.005314201307564956
-0.02883082111752069
-0.03336943231453684
0.030012594611309455
0.006664770571969614
-0.06666293879545163
0.0161912265333024
0.01878773280953557
-0.01601298346414399
-0.009162854813376925
0.004518074235400404
-0.001070052820538563
-0.0019068290534192628
0.0024849247894604765
-0.03832362551232118
0.01292571996277037
-0.0013468496957420506
-0.13534358798306573
-0.0404385335361428
-0.0014147676684801642
-0.0001745800701006634
0.020464735735078548
0.014383267596177923
-0.03403458150909824
0.009416459026397844
0.05751309592574273
-0.0022205817597524325
-0.06751129426152841
-0.010788392077275135
0.011025913944487155
-0.025926688712124904
0.034288554705829664
0.0406909522808308
-0.0019577445936375367
-0.028980658429657538
0.04257635751870206
-0.004778668625749675
-0.05418325339755074
-0.04165055347375835
0.2066284194212882
0.06054185610864884
-0.05312503980494265
0.07436876204019481
-0.05690419258837835
-0.09961797036866417
0.026536753761221585
-0.012995836094821335
0.06873331273518293
-0.0005807431199441011
-0.020408609465789276
-0.011377003227107196
-0.015198256971084349
-0.042076731764552386
-0.010093188004554736
-0.003770957316923166
0.02266151372299753
0.028475088562082775
-0.011889608942113074
-0.027679316763298198
0.0375001225456503
-0.0132569018361351
-0.02786340320299687
0.026472558601539294
0.007942212374207117
-0.00028929696099778995
0.013231239175859432
0.04242417218295254
0.0446221515829927
-0.02135162824794168
0.029264738072711936
0.018346242502884184
-0.0034906121577897224
0.010581010097801961
0.022927055369752772
-0.015046779119092924
0.011590276480420431
0.1549326061766353
0.0362655836100424
-0.017883507109158685
0.033714011172082455
-0.14707875748710245
-0.06383703529735252
-0.187958777232924
-0.13540062134893435
0.033256426582387276
-0.008249809444395455
-0.005774883625759245
0.003957902764071004
0.008512724383728246
-0.0016050649020385448
-0.04432669357294542
0.13598454610841984
0.13943798466560886
-0.0914929638440155
0.014530218840652724
0.008197032533945471
-0.005885769049201092
-0.01717141757760899
-0.0054412572775094335
-0.020628010046272745
0.02224929620452555
0.007899897605987223
-0.014032478671590257
-0.05933758247798397
-0.007359575480295828
0.09234787280533471
0.06204804901266112
-0.013508364823749145
0.01006433228263022
0.026789471296761767
0.02546424940858541
-0.00546082496081913
0.010161365094236442
0.0034575626172966443
-0.09663391451706886
-0.06849966494020199
0.07206996980155089
-0.007909196475201719
-0.03313141093552293
-0.025607776739068798
0.009214850457249214
0.03692761090055758
0.0018424642997847671
-0.027104413004742912
0.02846632022265914
0.02379869231394595
0.011400337900718066
0.03595470647377325
0.021674984364539348
-0.03505894083454028
-0.06424162177184958
-0.005818519714618418
-0.03024516642513451
-0.02630275276939225
-0.014597040016860458
0.0215763993966565
0.055331982838390234
-0.010214890245411614
-0.01888567511847082
-0.02301191300152971
-0.058366890026285305
-0.019528249321160665
0.01265115632187081
0.013580099325941772
0.006018749621375535
0.08968537820004088
0.03681820422191323
-0.008683803379552471
-0.03335506878559275
0.004135810484043751
-0.05878576408033851
0.017228082670548466
-0.01853138956848454
0.1008189358011593
0.1272830655848223
-0.01651698353550593
-0.022046402046097955
-0.0563131093174191
-0.0016236200066725743
-0.024728893321634374
0.0010925832159358198
-0.015106710485145829
-0.012401775766303197
-0.038779792212336524
-0.012787549383501727
-0.007846302492376613
-0.005949887180623257
-0.005392340389101841
-0.0311943337883942
-0.032281688190450214
0.014115602608462488
-0.03799225074291553
0.04498121362351001
0.140268241080042
-0.02259522516074015
-0.06371398281052425
-0.05859338010013195
-0.0098243538588471
-0.021460222897289584
0.011440847360220843
-0.08661128751642706
0.16547881463999672
0.07242659220716986
-0.016877664320036293
0.03859168506682102
-0.023878809949993116
-0.0231172859077986
-0.05071709402257458
-0.033306615426665756
0.005038539036092705
-0.01728096772234294
0.019393946032892125
0.15080893412556803
-0.0007222783749283169
-0.027468902447703267
0.025685639310437804
-0.024273509558505334
-0.0295984820234166
-7.708426901113578e-05
0.0361764233054596
0.010403934726582383
0.001372079715836215
0.015584555040557006
0.022508874191707242
-0.02225610231105038
0.04480515463305045
0.03723330839081239
-0.009467237730696918
0.027437377871306935
-0.06071787193768097
-0.05195493538758436
0.1572595626263677
0.010496212089440888
0.0012444980765082614
-0.005312545461988466
-0.0397648469233043
-0.01445460445687785
-0.031102827133474273
0.04333021597553166
0.02256818495343263
-0.0012166166348098648
-0.028802718765819406
-0.03518020087261189
-0.02790825903793955
-0.009929821647296127
-0.012807949894507986
-0.04694800648756034
-0.015539842849115604
-0.20892649723441914
-0.07692694271342689
0.04239083487539691
-0.030143587228437872
0.02727596583211649
-0.025275981585061044
0.04069882255562365
0.011339181612479902
0.0639405751532641
0.023172111997879028
0.013047064452339831
0.008039116969310105
0.00782829004939041
0.018658697359455658
-0.010193387096808951
-0.003928312757975758
0.006733681706727071
-0.010585103558724128
0.08658479296639175
0.006435610611444168
-0.05744453726404718
0.00042490804647811334
0.02369612975585452
-0.03952104953102233
-0.0518922463313679
0.0519895081173447
0.021074539304407114
-0.002800044756999927
0.016139778653485305
0.024391433947524674
-0.001297684661208799
0.008730615363871333
0.008169776971688053
0.05018233025967753
-0.004043393552201703
-0.01930549588552078
-0.0391458552156159
0.036737416421247594
-0.006508597210713937
0.04077744103204995
-0.14022135724000237
-0.17245052472358555
0.04841663911134501
-0.0020009169833179897
0.0271354351182332
-0.021820271679540912
0.004079032558948201
0.18722722633846686
0.07351507516946079
-0.013744393220696937
0.05772781876476356
-0.037205334715963455
-0.05356546144362541
-0.023171769696845857
0.008890406832522877
0.012278384246690944
0.018569944835188278
-0.027104217944674235
-0.011166277358937072
-0.0016062434454963033
0.01759226819855419
-0.0020180396848395806
0.0013316304499593201
0.03517546323164712
0.04582607674100895
-0.039555429436792265
0.038006289637081435
0.04301190182321244
-0.021494721070969593
-0.004781263722551413
-0.019520688841007106
-0.019407998397901853
0.0158615498511189
-0.031202350447105467
0.0012603852042194644
-0.0009372523899147455
-0.01233393507855797
0.01375691482515355
-0.0962058382287672
-0.06176750041483109
0.02494728899994276
-0.014884667445014283
0.033093875496248336
-0.0018227986418933456
0.029250418115037223
-0.06480001205363133
-0.0829276611037216
0.04050596214459862
-0.02720771572945126
0.05563345099089553
0.06370620953480617
-0.03067643419508992
0.1048980193831732
0.010348821957573513
-0.10167226539802329
0.0010332022801053783
0.04535526592068227
0.008295923574546673
-0.030424796830090344
0.021369603113799585
-0.0031234314693717596
-0.04594390529611718
0.0038727034790542836
-0.001276247587407774
-0.011983045693470003
-0.026373756788450595
-0.031112447887916023
0.03839917547264279
0.03918072911134483
0.013514829023353917
-0.039379883683033676
-0.019360900626561064
0.02402703603743418
-0.0049622793860592
-0.003963859578760623
-0.009925261997458726
-0.03461748568501407
0.024171527659494263
0.00529261644184522
0.0973779158659297
0.1368722825221624
-0.0621686529224189
0.023985903629900482
-0.02304051698666986
0.0029975482460051985
0.013898874354641991
-0.010817209023906506
0.007351322268359539
-0.009602733668078779
-0.033450135896694676
-0.003979486181140953
0.02714735615931147
-0.006523014902650382
-0.11000308507727903
0.002029167776861267
-0.029912929219968725
-0.005512603416650528
0.0032928649240479132
0.020318498111401427
0.0016597567874962011
0.0018733230059895488
-0.024937023535577876
0.014042479992533968
0.002916277191709889
0.018272828004247475
0.05886283075683833
0.009329700296760767
-0.0037449563494734153
0.0208620536067258
0.0010377838244409819
-0.048790909203521776
-0.13344047391797692
0.03518238027795477
0.04163557902380818
-0.10329630656012817
0.1039570838129253
0.12238390917773376
-0.008305444435547203
0.11814970376068548
-0.028900878313783133
-0.03403337883026584
-0.032277485961781024
0.032223036015981456
-0.05470248253989459
-0.03994396706578615
-0.01179417679999047
-0.0035309175222207256
-0.0325340281216898
-0.06135134916255172
0.0007518482422960402
-0.02038764430348495
0.008108404067662002
0.07612812653574041
-0.09693631060117945
-0.043026581551385605
0.006777889004521879
-0.015038666272283313
-0.08712211925913378
0.09792063628165999
0.11582172458092238
-0.041315871411313196
0.00913069003326901
-0.018343246958989135
0.024256977725329375
0.060687656788027684
0.005748864415585711
0.052476870115220946
0.07704684243992288
-0.0018842513287096038
-0.015683685038930327
0.004817524607712652
0.07755176865367924
-0.04805912434824505
-0.03217988251120742
0.007167933578292932
0.011762319938546529
-0.0112307605179786
-0.07250152095470451
0.017766115755092824
0.008446782354660448
-0.05243240935194877
-0.0564087984105843
-0.028282912128450115
-0.06637520292609247
-0.02343348537509366
0.011131063926992292
0.005402277649312589
0.0033535107757618476
0.03412499973803555
-0.044737262059723205
0.010942652912000436
0.010830428565106858
0.10559272371812792
0.06444041662937533
-0.02108617044863835
0.0316189179922705
-0.00027569588010928917
-0.037062924228404674
-0.00956809164321173
0.0790094641485982
-0.011681905192588599
-0.084697551955834
0.029447551905161264
0.01807711791889243
0.00280184729029574
0.014490864396237039
-0.006192621691279959
0.021372013327638942
0.050269949752568224
-0.022500333769984948
0.008981269090241613
-0.006222317432492367
0.002649043835215429
0.028670203119943154
0.009962289524609097
-0.03320611103135228
-0.00542934603442607
0.006523678989934525
0.015281677242565267
-0.05073714281893107
-0.01839878322900025
-0.040741459462893766
-0.02953811255782269
-0.03174837464184715
-0.0956126331017495
-0.0357625579866922
0.018829556569324096
0.013840560483150592
0.06766032230173796
0.07260058331658226
0.0012670915403660366
-0.0036647054737710197
-0.0058170224530152415
0.03029712901065738
0.003913649180585644
0.020211966310991668
0.015478473700426498
-0.046366398190066556
-0.020174911819539735
0.024275293931723566
-0.04121655962057517
-0.055561390871033914
0.01520653559271805
-0.003885372125410497
0.006259708327453011
0.03804064246565269
-0.005777394026251329
-0.03824230107115999
-0.007180459635886987
0.06038237948541464
-0.04636691956429773
0.012953150976959569
0.031953614560963885
0.04993536922921955
0.039774979737322316
-0.019522715583801947
-0.000621168709926007
0.05364921790718401
0.0031854545896102117
0.0471377993356268
-0.11012645408972477
-0.11281211080684682
0.009947863315512902
-0.0006733900491620232
0.0016444663302676865
0.0050085918942765805
0.005885861821262064
-0.031210695757385384
-0.001702764727938072
-0.005112082285861743
0.02702777132084228
-0.007324704397622679
0.003720244183758709
0.007983599807490246
0.012326089026482703
0.025809584677446464
0.03303581467003097
-0.012288150255458841
0.00119183755520201
-0.006098030390228512
-0.01299211019744001
-0.01196585497088263
0.004761414111931613
-0.002791669761654971
0.020368334582172076
-0.009366677868745713
-0.01776204531914404
-0.02226715656927198
-0.0028931802593211062
0.0007583456223935062
0.009021111993363203
0.019854136778193605
0.008776660754057383
-0.011806297782978464
0.0017767223242464811
-0.021404268696146145
0.04396839592472045
0.05486131322338273
0.0016373015315630504
0.009551730755859496
-0.0022001738820208476
-0.010614925018113943
-0.020030110047997273
-0.007802106069114378
0.06366801969928403
-0.0498229576700279
-0.09816873398195052
-0.018056262369923
-0.005254876342172301
-0.020461391245614812
-0.007579563250901484
0.0006875182659789196
0.0004702087474812965
0.060717381576655315
0.025311038917059422
-0.006491149035485376
-0.01256816157896707
-0.001747198431364675
0.020461498813750586
-0.0009652649125045246
-0.06956120307778027
-0.046658605059963346
0.013712554153686963
-0.0033425220097840504
-0.01737968849300755
0.0021995275758820033
-0.021665095760486017
0.09738850026395152
0.06477380181098805
-0.0319647486924272
0.08185304277611101
0.04272940319901759
-0.010616549922948904
-0.03390595067304632
0.04362583582471201
-0.01785151137296175
-0.031848551704817527
-0.03846005669733197
0.002429864752334511
0.006236413243396724
-0.047015889726348875
-0.006563665448959902
0.009228762852882318
-0.005008952179265932
-0.01737433923132186
-0.008600126433011548
0.017857473499640314
0.05533593871106576
0.0027504905459872957
-0.051624619192331696
-0.02199852973681397
-0.058629219946677545
0.10830667914620261
0.09667657165683859
0.06529547999235968
-0.005201455817890571
0.008301310807716525
-0.007886558132773829
-0.03565298144423153
-0.021259840165275636
-0.0007926410339805887
-0.00038837982462374754
-0.018981604323214232
-0.021781338733929977
0.023194296656837227
0.01578338301440018
0.018334119293387383
-0.10007544216796058
-0.001371782424228522
-0.0001626803078533155
-0.042514154970798905
-0.0559062824074443
-0.023574171861170556
0.10077821428901637
0.040344724999541115
-0.05175098366933644
0.016320188242933797
-0.05645670971227159
0.12172694663534184
0.041938737822613995
-0.04070696398122456
0.007127605850655033
-0.007065645645542521
-0.003313256161257683
-0.038933213256879
-0.03789920094318063
0.06578489316035666
0.002849160830371167
-0.042178363433582756
-3.817273615996758e-05
0.010598355942455576
-0.017119022470460637
-0.023974393401220633
-0.048537791291515066
0.015423520682125519
0.05189723939740163
-0.0416252539312878
0.04229381136718192
0.07456604087143547
-0.018533519462828343
0.04954307279005241
-0.03045366367619003
-0.011549900816713986
-0.02134496723062022
0.009122993881997582
-0.028568015025296753
-0.03962113198747102
-0.11500275348394565
-0.01970671795197701
-0.16814297163804398
0.03323451942393402
0.2211855395628909
-0.02704211917879608
0.0179687956268008
0.03174759962729915
-0.022113669926171295
-0.02341398466909549
-0.012874957607131416
-0.011116109227398707
-0.013775205563470307
0.05788597913843622
0.047668587150053905
0.04304820492824684
0.0014058786937070323
0.014869887239770193
0.002648902098761344
0.0033728729500310875
0.008802037432299136
0.009898133659545569
-0.00015343502338445065
-0.01561328309050736
0.026133988689644283
-0.016034539939352253
0.01128423637393781
0.019214736611987537
-0.021320347922322885
0.04186927453212026
0.05617450279845228
0.01415624517432052
-0.005594068430011963
-0.09818488164118742
-0.0058978563507553336
0.011984969431279299
-0.04144531449189843
-0.0071952948581662166
0.023378270264685634
0.026020906417302647
0.013071273106709545
0.02277895634773268
-0.011948622303022478
0.0077651105996841266
-0.02576102925300169
0.004434590008668282
0.03243494941559198
0.010238471085858122
0.012507155646651924
-0.05767984011885532
-0.02267400343727165
0.0007775652463433098
0.04129097966564235
0.06693296076619441
-0.015344601880587313
-0.019298724664368674
0.023842486532917682
-0.008703998646054105
0.006978277357828294
0.01831242465468781
-0.19319260224839405
-0.07813132462539642
0.07127548858543284
0.016037170270495265
-0.03989594957895366
-0.011657127651862413
-0.0017703494608744793
-0.03865010150151602
-0.020042326269410535
-0.012983686356737469
-0.002212035377912993
0.018412134712519717
-0.02183410378448217
-0.026900332574812176
-0.018134255796852978
-0.024713627025187146
0.026878544325581784
0.023586600683800852
-0.03917216142200603
0.11877067115843225
0.12816968369997578
-0.03688120565757599
0.02863390058235567
-0.03584587233318969
0.0033534844397350226
-0.006076871506729004
0.013929866142354409
-0.012095511706985248
-0.015758528736043883
-0.05963034477007393
0.010879338827552147
-0.01783302551604932
0.0010847969232612275
0.018075787846211982
-0.0022540804190962814
0.004683164570845662
-0.013305207092949954
0.024999788331776667
0.013672755727073653
-0.015791009940635488
0.002424746276420696
0.08346939271703809
-0.011779516241689872
-0.07639341701492829
0.03615403205793133
-0.009375698742350579
-0.04097772769321432
0.017305512540700545
0.11255668384824594
-0.004755986263055971
-0.039996809452990986
-0.027772236424823373
0.022703821748643882
-0.019020576597943383
-0.004416325829218804
0.026096246314638985
-0.029591049095553098
-0.02962993563990027
-0.032943510360969694
-0.024104274520505103
-0.006887215322621889
-0.0004179020466417051
-0.01510701430199069
-0.036616953860937745
-0.03410886198208879
-0.01414882598432104
0.0431834884506685
0.13294716061534564
0.02083224835795873
-0.009144555437531095
-0.009459590788313288
-0.03606825719160915
-0.015430202233802487
-0.01347269861348935
0.021148627333186207
0.04161083860469606
0.21325310663218722
0.03129276630401972
0.004150851563741628
-0.0029378066563106368
0.007835280700053295
0.029974229285547556
0.012763497963143551
-0.01553133800120352
-0.05140586164534309
0.008309784968328933
-0.03311562252081737
-0.028116824828027243
0.009717500252982092
0.02020579125948732
-0.05612205514913994
-0.016701224462191532
-0.0035737444440395293
-0.005087520489349186
-0.0013187799571655991
-0.012756898663342143
-0.036830486974284565
-0.01008459315003185
-0.02423783539711417
-0.021143852836549477
-0.012341566299552827
-0.008520998080341471
-0.015354593374382448
-0.00403492426226039
0.023805671802943705
-0.020714906423858134
-0.03162830301307721
-0.031391212247701784
0.012150950670479027
-0.012918424961934946
-0.028903092747813084
0.07274033465491198
0.017475190634821777
0.0033456447565076053
0.016695381280813246
0.0036757576276168456
0.006959154271220664
-0.028105640679645615
-0.017411892731966847
-0.0015719917778457611
-0.003222839776411617
0.024990329218915277
-0.008333425850866525
0.022484698765245784
0.03985984126289747
0.04395872528288915
0.00974134834819183
0.06495477498784405
0.034194635657248826
-0.005830181965914268
0.004274615933204678
-0.0006334800153366703
-0.00118738543821683
-0.012939856888209686
0.04918448684965535
0.030445583038902154
-0.017321183181684102
0.011776882335257094
-0.014601354958908646
0.016685281771031346
-0.021814265997214928
-0.04520945525659425
-0.02614454519111653
0.005456469213361482
-0.215013475934869
-0.1117692079534506
0.04372813315584369
0.041420133322565965
-0.1411299018983681
0.0031735082674366135
0.0864323354353277
-0.050841593118237896
0.03027943708210969
0.022639699719389183
-0.011184709800163124
-0.02103718622451758
0.021734858045657213
0.0035706769729763515
0.12750339696065463
0.021798595410397532
0.012929946574667473
-0.067581067517923
-0.08334832209137086
0.05009877975122509
0.011054609184850673
-0.0032627315639853897
0.017398338811086572
0.03705801998903093
-0.025198245234973226
-0.04535594339482742
-0.03301299620128906
0.00800120537780458
0.07568402985807768
-0.021180906340939238
-0.033847480308182465
0.006808031741288595
0.004075488513232436
-0.010211975084157714
-0.023210413404545948
0.020671850263121013
0.006997057829814723
0.014891897123828204
-0.01367458652331508
-0.05023849793339749
-0.0071374872700348995
0.05000426948582556
-0.04624042363838563
0.14291997416970068
0.15490774967005913
0.006417293785151364
0.04089539569176751
-0.019710777665775104
-0.013003681541298953
-0.013565939364624633
0.03579543187482042
0.03982457639265685
0.007967928400970423
-0.041452013071303355
-0.0036045464477144967
-0.0269356383939744
0.003348845507481675
-0.013728039726900704
-0.012655969901356302
-0.05100676657027119
-0.010092296398853891
0.0007658865429239283
-0.02480577742294661
-0.011161167126348164
0.011613939237430756
-0.037698639115441857
0.0317430240210522
0.05755263647267842
0.07847847735076173
0.02507007096375066
-0.00400465327601387
-0.03139719485092887
-0.018183386543632857
-0.031324055893633046
0.015862451422739857
0.006099202994075276
0.0378019152182152
-0.024982925627322683
-0.05634013078329558
-0.06025971486320303
-0.08529997874306634
-0.011912668487805094
0.008998496697329333
0.02088570912989324
0.003332401231067096
-0.0803682326937441
-0.016839130972604383
-0.029462792161939165
0.022364989886134973
-0.02372214607089228
0.03310954236555415
0.06617239409320048
-0.006847607272615093
-0.01590344422586306
0.016241450584055503
-0.08304282525827185
-0.1428484520327264
-0.0790067007982095
0.12668044301119188
0.13852761070930078
-0.04326265609351957
0.07596185596239582
-0.053607950039573485
-0.03937573866801392
0.05501276247869012
0.02722346197185168
0.05634319263220695
0.036696685693364824
0.05442633048780913
0.04353866592098993
-0.05846992351839185
-0.013262147950561246
-0.05050269993155241
-0.00703094654203303
0.004812866772577893
-0.019652239893580097
-0.04244869813663038
0.00010104309357191446
-0.010322651772423287
0.20618517323269347
0.06318259808370087
-0.0056464048654316385
0.008684709984426288
-0.02775400827538405
-0.030616256832851175
-0.025651008645970603
-0.02095767107696812
-0.029942169697565076
9.804585253253312e-05
-0.014203434876112524
-0.05532631014719368
-0.003438982127410672
-0.02322726312856071
-0.021962676634247724
0.16939973205810324
0.02825469154620526
-0.001154293794526349
-0.028782563047554884
0.04973598350915348
0.13479307663849557
-0.03056491193543961
-0.00856430768542831
-0.04661008569460059
-0.021054328517598208
-0.007665532062998532
0.006350086349156085
-0.0025456825833638902
-0.0053408307149885575
-0.011080198957673914
-0.07127788279106788
-0.011928742250146276
-0.04317484068144228
-0.13238845462703794
-0.002054905810794505
0.01345156916197456
-0.008771980264972508
-0.031914445265156646
0.014153499587175376
-0.004951996004768524
-0.006335353069166656
-0.009776558496399726
0.015121645096737371
-0.006416001220570749
0.0036268338968987513
0.035101267802879116
0.009983830782357869
-0.022196366130765182
0.031573548119026094
0.03483915938304078
-0.0006447590443705316
-0.014282806464589863
0.036611956218581314
0.07907645427331375
-0.016602470887428937
-0.0013532544447267493
-0.00030274791144186975
0.0009183751254124955
0.06951382167536098
0.018820447793361436
0.022382244829534808
-0.0030382344800715323
-0.028808642001320838
-0.11630565840326547
0.006694959823403926
-0.055293257471627895
0.014477482321568319
0.10041057801706209
-0.04170081738401797
-0.005540032341305924
-0.010955162007689463
-0.03399369889225541
-0.01752149462031757
0.009598437136363772
-0.001506434939414364
-0.023580907800557934
-0.00663264957989306
-0.03291498426666249
-0.004769926413083238
-0.0020711487533011407
-0.006720179694794212
0.0015340162836775778
-0.013811120308338599
0.08681598407955006
0.032127686592495944
0.003701232555960017
-0.021330780580733278
0.0409217885312975
-0.05432885966615863
-0.08146201517052881
0.011126954334710195
-0.032898581934845864
0.07714272022555059
0.024467743105706354
-0.010161824401952416
-0.029499673796152752
0.025317603294506375
0.022859283329563582
0.025863511898607035
0.05097110001566658
0.0320312643260554
0.0055155122057533
-0.04109272436357283
-0.012354964519061684
0.0007837395322200167
0.012460329737447474
-0.010267320762792843
-0.026714425662451104
-0.004491952123469653
-0.025843527209170193
-0.010509128420976828
0.0037401088332936782
0.02875378789975928
-0.006969627596941153
0.011703099190675586
-0.015887703052195147
0.03439252836726163
0.08619492396331895
0.0183337166854152
0.009123104407630514
-0.03388462315109485
0.05974180999658028
0.03134362365603539
-0.0036403903916471213
-0.042262400128978875
0.0003549348272806733
0.012627815308080787
-0.015668971263501676
-0.01930450886374948
-0.002552568478319925
-0.01692007919842132
0.056537475336328816
-0.10393941774697671
-0.1450387851430971
0.006541998287839508
0.00471950888419401
0.026909688400937947
0.010255810402921
-0.004167971344245376
-0.0010731022911999004
0.0027557018397320575
0.009240091993309787
0.007349379756579858
0.00605227324931934
-0.00773564120495356
-0.02164119938878726
-0.02957012908710437
0.01451269495225388
0.0010684375513705534
0.011354208636924733
0.024456777614744143
0.03366594972753878
-0.0007679154513734548
-0.026633597035242016
-0.03167648720160217
-0.029195024173709283
0.019032638553715894
-0.03597681572046906
-0.021073794660765484
0.019374513449198855
-0.03121011178798742
-0.1197600867857772
0.011818299097866077
-0.01049724260934568
0.004416218336459255
0.0231516053198411
-0.014861166225331169
0.03203766141593073
0.034744392874055
-0.028665807794040148
0.006352780083431229
0.08081697666948821
0.08207633021271113
-0.018349397525403086
-0.04890947426084557
0.07670151484505669
0.09451903917396164
0.004957012591216333
0.005959865717032361
0.055225190906894796
0.05545817825986235
-0.06338649461342921
-0.05702903573655681
0.024691552566856248
0.0990734995139968
-0.0001454494340077908
0.00476700263629117
-0.0026421612057633123
-0.018146109136467102
0.008276878738418526
-0.020064057209407814
0.0026873049060685754
0.018727617584252003
-0.03347453179539325
-0.06994968638789105
0.00482359882279442
-0.0033789147883721547
0.003781856991098833
-0.005358931690224621
0.023575129471912915
0.030532579206109526
0.01978544209042244
0.02311575429995374
-0.025136864497988184
-0.012569649428110756
-0.015148867283042336
0.05950141923692388
-0.19021519166154713
-0.11742350075468899
0.004575131907251321
-0.02791114446307578
0.012701594942056343
-0.008736272280870186
0.013258560405418852
0.012884074882644068
-4.44082217754533e-05
0.01285183349257492
0.02422966188417206
-0.08055001518449932
-0.016694421904682486
0.00933140024497083
0.00043860996075060067
0.0030925132013063248
-0.010042988938064079
-0.00746790992917805
-0.020615783569123906
0.04221327167036483
-0.020945863694253136
0.04909161865101809
0.1072691770966578
-0.025192720875983333
0.01675934563553925
-0.014926700348146011
-0.02782047341057465
-0.0017919864757330536
0.03743440304842506
0.02983278906741082
-0.09970550922778502
0.05989082342493405
0.14999517707461488
-0.025651721689827385
0.03800836111352348
0.023444148825452947
0.0036237253575887524
-0.0662456798213501
0.019019512550546066
-0.007022790831570389
-0.03887662289597183
-0.012465846236764815
0.04055168328798566
0.004091038015030008
-0.002067222355501733
-0.06634200037147533
-0.041859253101823056
-0.012100325607704545
0.01438360496198467
0.0032627808947672315
0.0017158874179453196
0.000546568757190829
-0.040672782966775456
-0.01199464044176414
0.09655069162765124
0.009714356057536329
0.0011157969739968845
-0.0018883154056816317
0.01151615255764023
-0.06407380436173386
-0.04916691297000547
0.017089917648157708
-0.0052786500560006375
-0.044828482298871396
-0.052161254058584156
0.024704081784359008
-0.012533194234705183
0.0333381495997965
0.02329155457174975
0.13528922320719391
0.0384032323593578
-0.028828284738655147
0.005720443637908529
-0.030448075719497997
-0.011716794741868855
-0.012784182605164045
0.000995034542898029
0.041763724874102764
0.054204328929936055
-0.006948377359711204
0.009645010449364345
3.3871765256371185e-05
0.05558118010363832
0.04836567772725017
-0.009084492022916025
0.0032481147766622214
-0.00831543470936725
-0.2396585662749599
-0.029396410322269095
0.04291030713945981
0.009978966762231641
0.005580214895106291
0.04375115707643267
0.00602922117000419
0.01697648731161699
0.01094794210298703
-0.020532450153770903
-0.022593773044674744
0.0009505995583823553
-0.016187761590861702
0.011150712487893026
-0.022371279093827016
-0.0776322692336733
0.018953640434878898
0.006621803774590026
-0.02517078220473464
0.01649104571563452
-0.026970798534545027
0.0030509945740346536
0.0017446692405144123
-0.0164097334949957
0.016804982654201567
-0.0022724431378997106
-0.030931417858241703
-0.019290719731872047
0.015398136060439981
0.07784162125200861
-0.024547333453470075
0.009021969748832423
0.0005938945583381834
-0.05985107159209668
-0.019639466293361958
0.016542321928289527
0.08594250995396222
-0.013191553128395081
-0.01614881624909795
-0.02812941492566193
0.056304207100505065
0.02523201623137371
0.012005130256887613
-0.034016310492855
-0.09031697267766914
0.054425337620664614
-0.001298621135251643
-0.04311438138155932
0.011471317979957209
0.09180719210160077
0.005926292274276767
0.0022068747381586147
0.0024179298380308037
0.026452910155409185
0.03538355630888848
-0.03339845990979524
-0.03308006727924341
0.017013474635539316
-0.00487518223061686
0.0866927141991688
0.003184202270938663
-0.059332073298842596
-0.013733103619571327
-0.02021543227181695
0.025806792473531775
0.004806056719176634
0.025920382259743486
-0.016555638717208578
-0.009862307555314516
0.005223304445359976
-0.020264846929868074
-0.0326415252414767
-0.005606389247277699
-0.01839955497384288
-0.01629471785572895
-0.017957662569609432
0.04290745219800301
0.008965586379085877
0.002086320714926505
-0.082116162163392
-0.048600191142877794
-0.036927489870823796
0.04106819518747453
0.0577610576486362
0.06872177223094333
0.02493423552565819
-0.033629054133212856
-0.04609441688335955
0.0695007745525407
0.10904263858954677
-0.04219794793690779
0.03108324255012144
-0.03098693287773629
-0.017215090715472205
-0.016706225651466754
-0.021007470016368476
0.026483141698905668
0.0637926232647202
-0.010057567329168618
0.018191101274866003
-0.02405004520890366
0.004746999497170087
-0.011567806764045849
0.04196104063693414
0.12761738524685576
-0.013772540052126057
-0.019103870491271446
0.019187245961741407
-0.044219034261092
-0.009373746812580288
-0.0909655314385822
0.012273195986194557
-0.0014149679971747603
0.029681490316473165
-0.06926015523927549
-0.13026516141400066
-0.1008488960013122
-0.15280321977399586
-0.0010922274526832985
0.014401363200676661
0.030402467758018553
0.014342158740370151
0.002931770143659076
0.04748408921137992
0.06965513017882984
0.10857180598220474
0.03117486140999068
0.0140583043684458
0.03697582310687656
-0.015894567342024064
-0.005140711012819799
0.10039326461578608
0.03744682625599925
-0.04350985603918172
0.022636287078224227
-0.0029494023657084998
0.007680123745156484
-0.007952218024566707
-0.011788151270644804
-0.045423893041677973
0.005531198632645059
-0.06565526199516285
-0.030469399060002622
-0.04141562403273181
-0.0046210950214583876
0.0030435409330614115
0.0004604581985019553
-0.00573669893376272
0.002614352761068719
0.007466491872026371
-0.020524113153092764
-0.006662975042222957
-0.005217878521161139
-0.014627643923964727
-0.00386440224174672
0.03861155924469491
0.01738161102293256
0.01850407470227685
-0.03758052851690523
-0.010428667789471022
0.038552880164973755
-0.01407632009314218
-0.045410999706725325
-0.010558840322171236
-0.06805766676548101
0.05502694091621428
0.08858925378707462
-0.034708651896080106
0.0038551362710957542
-0.0012836971325404314
-0.0038115377737294506
-0.018635860408932694
-0.04678501609321105
-0.014735653282288135
-0.018012314287383705
0.0290949806819015
0.014760844951237528
-0.04429287398518554
0.0759692345974534
-0.020051914367604683
0.13149049352242423
0.1506349564749723
-0.030234313100495645
-0.02369462895524865
-0.04098919429618782
-0.05071313285824003
-0.02245564505639585
0.051940946349473355
0.10350988396018723
-0.027901762347812876
0.030583585483657933
0.10753183487545345
0.01786124090295915
0.009444397121797178
1.9801361689900597e-05
-0.043736909422140556
-0.2763447856660603
-0.0532032803113006
0.009985042160256282
-0.002942381637813322
0.012325334110700303
0.010370026391920154
0.025209471981355685
-0.017642351604664163
