0
-0.025767998450644074
0.03376186712003936
0.05354610130190331
-0.01142435047287348
-0.018189058465569247
0.0124052598860175
-0.009874543532982168
-0.024473947484105463
0.003720262349076981
0.008938193498937427
0.10397720602561158
0.21558642549225682
-0.01872360739125944
0.0006745773937208967
-0.025020728696542413
-0.006199091665531814
0.024283214431433733
-0.03650391309224943
0.006383840248426463
0.0015913687702896401
-0.024912981802959533
0.00626245681628274
-0.015630606453971303
-0.009862685203085227
-0.007783550967079179
-0.028128147358246407
-0.02335563389155381
0.006124620196669748
-0.003087260606996686
-0.019378643963127187
-0.01542817995667772
-0.02490191436018524
0.006041658018190195
0.007964463742636155
0.0020655253910691956
-0.01918104319368788
0.0035441693553443735
0.03777322340216782
0.016251752380276818
0.017268198907261226
0.008564134462047197
-0.0031770436440674795
-0.01914490647091233
-0.01626409781056948
-0.0006132983818405049
-0.032948544615385676
-0.028807815627957943
0.005520868967847406
0.0013140440887598752
-0.02168974249156449
0.011829765210759458
-0.03582457387602721
0.0030210098831149144
0.06175677100533616
0.04193521948404523
-0.0124655601417985
-0.012173267699293633
-0.020061765281099694
0.0005304376369634943
0.024163790413243985
0.0015765304131114463
0.02066161399360102
-0.026714924291493296
-0.021426594568095866
-0.023928117261910388
-0.016438970070053377
0.011558361791861415
0.004395663992832652
-0.017128094653009344
-0.019312575220797976
0.013116707509020392
0.05796011224667952
0.02480906637866124
-0.041860018180668604
-0.018467040112183853
0.03766079827093517
0.03004425619833257
0.029582329432486572
0.0877887380934934
0.025403138559927922
-0.16351775853820144
0.02567264577192188
-0.0019187533461269344
0.0021564300314616774
-0.04143170945003057
-0.0029904107063207963
0.013960073336511558
0.040426323499515665
-0.07343407689828761
0.050566236604997615
0.07650611928304661
0.1151362351736883
0.023821185107130705
-0.022101703187428604
-0.013773593614288782
-0.013240413179151145
-0.0541808033973415
-0.04659908792654231
0.019409170210230774
-0.041241087833289815
0.00016601164170357123
-0.045156523365925606
-0.0949314487381926
-0.03509009791504341
-0.02536088224143325
0.014144146304940371
-0.06747640069703865
0.013159904508964395
0.01862531690019572
0.003189775903201664
0.026300696426159773
0.0526122341694979
-0.0075566807353539675
0.009727492705046963
-0.003311630556742513
-0.010775928812085516
0.04035453981013226
0.0057361077416706865
0.030625191027672607
0.04696272428288497
-0.043010931640233806
-0.05416038647232692
0.011117778010864847
0.011876262243957901
0.0030162448479969647
0.025784732926681576
-0.008949362109912137
-0.002634863965897671
-0.0844295278623498
-0.05458965782633459
0.016287011030369072
-0.05151666445129019
-0.0583172897510669
0.11092239803221775
0.025618762653992072
0.044022657766220295
0.1730134884488336
-0.007645361687296356
0.03404433126438688
0.019684624361472888
-0.08723996202055606
0.0167030028654532
-0.04370098239997783
0.043366286014819656
0.13948264433113233
-0.04331187575148227
0.009399613316140242
0.009977101267367778
-0.013623428190474478
-0.03353150822129958
-0.03397753388769702
-0.041085506449934514
-0.023754731866532944
-0.03823825796271355
-0.012635990665704734
-0.03722099327712123
-0.017371593024277206
-0.032575371876267724
-0.02707152701831084
-0.06546719356464047
-0.029793324614846774
0.06938034780444448
-0.0663336941849368
0.2038296092686342
0.07204965365031701
0.0027110323223948256
-0.1044416559989578
-0.01010294538261469
0.0987848466750988
-0.006122165207146838
0.015135272551052553
0.002925495047972189
-0.0018750508585614813
-0.02407364999340543
-0.0037490422971165117
-0.031594573668543735
-0.04903401452128927
0.027949947727854845
0.06561828880473745
-0.06523101973436832
-0.030742535511937622
-0.010293013960313267
-0.0531653266703859
-0.01595837211885959
0.007916445413430572
-0.02468669900079158
0.1377446599707388
0.10678403426571276
-0.04286275934060931
-0.04434283976621336
0.001122189809355906
-0.024905963554411013
0.034110351746747265
0.08671162478065694
-0.015299101215991035
0.048235671886434905
0.09140839456551127
-0.01350666184803091
0.007147332524286663
0.014133207172666262
0.0038582227445315225
-0.13059028125662062
-0.09840032958615062
0.049281717801542654
-0.01875931312166928
-0.0032637272499419843
-0.03007141056119305
-0.013401939915165011
-0.07208406626728606
-0.011678798327587746
0.008060839956398546
0.013387114755879144
-0.010274089207955004
-0.03528420663205077
0.09265246127012332
0.014943245150547898
-0.05250340366625499
0.057159409601178275
0.10798910754505055
-0.2333758227490105
-0.16532635282518657
0.026525200149030165
0.003102731077197064
-0.0020284624766774115
-0.02643901778989147
0.028277549862251047
-0.029172074240511735
-0.024211908121030048
-0.057874841533223476
0.15997324487150114
0.14650540211179489
-0.02576794976799018
0.16506781506693527
0.14563543174785828
-0.029540075296312023
0.013915241525743959
-0.007139594498767877
-0.03710264244784477
-0.043579852333930934
-0.006091487705623584
-0.013870395858369466
0.02598452802288406
-0.010428099466866953
-0.023196189553385798
-0.007421651417889252
-0.03170327419626612
-0.015208284885548496
-0.0141882334811411
-0.00857919713528264
-0.024554822376932146
0.05187514570417887
0.022634030973810268
-0.018206390556611402
0.041975219601700225
0.05738948574214383
-0.06504968047118653
-0.02356756747013245
0.0320110943972395
0.05190351717294759
-0.00016430652171575604
0.0002856311677622569
-0.020197225261063205
0.01163623302067072
0.001597740707913061
-0.04052061129265543
0.009794662696413022
0.12253485349657996
0.14006373098595362
0.008702048515533386
0.0020952801886141934
-0.040971668667721464
-0.027642702581486347
0.014823098298299317
-0.029668018264635304
-0.2122991690302636
0.03322831995437077
-0.2188338725502302
-0.14090425189795913
0.049753534378607085
0.021079416786514097
-0.0652674409919101
-0.021818270625351768
0.012172050687062735
-0.004665973944219856
0.041726086929666305
0.025409564595071352
-0.03888562340535243
-0.04558648081385725
-0.03040435528915854
-0.0019692392125183833
0.015731885216158373
0.016566884311504174
0.07714942126985902
-0.002561846670723954
0.027870779169628938
-0.0051681114384925664
0.059358611580745214
0.005507323759153269
-0.001366690988546681
0.0158761340386085
0.011789219334790577
0.024384781437687315
0.08541640431182393
0.036833000517347655
-0.01567089737028744
0.02473687777483037
0.029703091426808336
0.017844494271204964
-0.00909367768686754
-0.037941307350794824
0.000735427907600713
-0.008835282907691797
0.0008616572667852488
0.006624381181696976
0.0036492729934117286
-0.009068306895108472
-0.015153403067302968
-0.01118889703146148
-0.018463646120280994
-0.012001955627760678
-0.019329861741767956
-0.013069120820271469
0.005430119979648644
0.017909195955128694
0.0196914604261752
0.006418698152770885
0.011816261880068355
-0.021749156746283225
0.013180474981856457
-0.02716486832508379
-0.03002565399720847
-0.02501735940506654
0.08272963424826667
0.1211489813240259
-0.07839990468011002
-0.04974804481135302
-0.024304793338491646
-0.005009761353166641
-0.003344471071935494
0.08026194670017389
0.03751324869062949
-0.0007932760522040442
0.041749923340437325
-0.030646075486033937
-0.14075881294430156
0.058543273499116644
0.06899980110775057
0.028799957371740174
-0.028799096604533503
0.00019034142320721164
-0.0016840451751436475
0.040570830476018664
0.023686975789317524
0.014672392717587704
-0.00561005554907926
-0.0034996045277090335
0.012509046672906777
0.009381360256419878
-0.023980511648465753
0.001914077418770475
-0.022333095279943083
0.02318205820036393
-0.1123516229722865
-0.01510738047820773
0.08411206922018284
-0.025548462723648586
-0.22080308087555198
-0.08781775015537935
0.009285679968733782
-0.026168546866249483
0.01229467211096604
-0.010464687243057437
0.0278694366402238
-0.03511080112733596
-0.014041542917084468
-0.003800745708907765
0.0206275022780514
0.06199705855487644
-0.013971135216536099
0.0010988362710589955
-0.0015097863784843226
0.005754971512377214
-0.005830000576495431
0.021676005012923123
0.019857552670064144
-0.015221336960649517
-0.0239815979995567
-0.027684488595281498
-0.006219680028272265
0.042887073431316175
0.021695117500391048
0.05179049861934094
0.02047724770857691
0.05610381470230832
0.048195523344039516
-0.0429785446188185
0.020631385480019915
-0.024960311923375948
0.010662780387725666
0.0035074399100713275
-0.012350944610221142
-0.01493220795357706
-0.03741111102632222
0.15630328415097072
0.11397176964388128
-0.10104655627166406
0.0769538697239022
0.09784243399990755
-8.981993842529778e-05
-0.03347107089792884
-0.04684301271948709
-0.06874223148639026
0.011618275335862245
-0.0008459469843706799
0.023224503739342865
0.0642828939114883
-0.05280032952050268
-0.08549920732861864
-0.021419290199362465
0.011689131112244582
0.008581046987858271
-0.01349204820784426
0.0008711331754504113
-0.008787021996413782
-0.016901191117109533
-0.06417948258351676
-0.09752273331979541
0.03205280975014769
0.02658786049865921
-0.03603552224447592
0.10987555516719069
0.09546299947759684
-0.03942855657326107
-0.00188020412779495
-0.013366578178668792
-0.01089277708484532
-0.019939516052136105
-0.020884826488039177
-0.0342255736997819
-0.018015145593224667
-0.04050841343786417
0.013446661092928195
0.031300339237036394
-0.01947971055127388
-0.00016344996468909282
-0.005179537660791358
0.008295025162475586
-0.018639844531945688
-0.028684391841645267
-0.008237071260493533
0.03397481261295633
-0.06355084850842843
-0.060374851261786974
-0.018030362933122313
-0.012122890167030267
0.08475726470268981
0.0035805309414660147
-0.01382402006105762
0.005560955801376204
0.005630479826728878
0.11924517244174557
0.12247527887856156
0.02232634422400287
-0.008242059553809458
-0.0430624019769672
0.001921844049725228
0.02056096919727605
-0.006799409745765131
-0.01231335599242033
-0.03625103831486607
-0.007811519792132634
-0.003979025678186193
0.056530554177486654
0.04569777507383643
-0.03805666864670919
0.005403816015571406
-0.04875508527158723
0.03873246674265602
0.07147630140633672
-0.0003607661907402704
-0.016303857907317584
-0.056351460344092746
0.005682171280520976
-0.02577130610351933
0.044652941984057976
-0.009800327906797196
0.00036485642666232276
-0.01907374971618577
-0.010945219592797489
-0.022235501213767758
-0.055615694163444196
-0.030942638066048026
-0.008382263800139674
-0.006941407231544003
-0.009963748570045885
-0.005884239837820775
-0.010233746530972069
-0.030366943931998215
-0.022732859830639617
-0.010407077119087456
-0.028032372312606035
-0.02180122506845425
0.02871190577565958
0.05163923408661516
-0.0002267895458050137
0.017382678617565286
0.006714641922948405
0.0007592350071991725
-0.006003863534719186
0.021518281100951716
-0.05283019658276374
0.0815597205067987
0.05055307396106961
-0.01930055000158748
0.0005492425385145459
-0.049121758879273544
-0.022913132576945723
-0.003427324612529218
-0.024334391593593147
0.007179407900593196
-0.011484823974451885
-0.023943344886497728
0.008341353024447705
-0.010354852676447037
-0.03592753652747983
-0.0027052135740454233
0.007987559709482851
0.07218231058112964
0.14551754983317933
0.0768151279747297
0.08420223553392817
0.12301731229518005
-0.021026744462346838
-0.005526968680275573
-0.0005289182053020531
-0.01244217956356828
-0.01783185685978646
-0.003454931352356885
-0.014702800451828348
-0.042622309233168856
-0.017442280365805987
-0.06429523388526406
0.0010399151886492902
-0.017469474840436212
-0.007357734046639474
-0.17467162331418037
-0.005398305661470834
0.19424000588179513
-0.01637873169861999
-0.017425479009101512
-0.039125898573700545
-0.04380173390415648
-0.028962787638608493
0.008510035930696347
-0.008502324711373013
-0.014829840812674897
-0.024106701779028558
0.010213433664962948
-0.0005617536363333277
-0.004989075926620941
0.018349595104210737
0.032091247451751445
0.013393319013995193
0.04383161601087202
0.04690669435187207
-0.03069043637576228
0.0069605524637891495
0.011770458420943862
-0.007788685484723823
-0.026330457678856542
0.02271154752453343
-0.002744112493135264
0.00563689245649614
0.016869025760926238
-0.011840165664065582
-0.009571371549853812
0.01545903649669728
-0.008896472357131324
-0.012458802608143117
0.021366478790215974
0.047961724211780785
0.04794140389547955
-0.08738382959693602
-0.006273903172219066
-0.031304929948735745
0.01645872332217506
0.03464344220769776
-0.1611292306167609
-0.03206669685064875
0.050680682265871455
-0.053951347930053226
-0.03905194757654831
0.047150433764280325
-0.03271327172097574
-0.009349888361921799
-0.005265623384424876
0.009469046495549376
0.00036984469509740447
0.005341440198406203
-0.020650266976829992
-0.007156194723865362
0.03178928315985528
-0.023403218096821488
0.017822439077258924
0.041736048440404364
-0.03220731676767097
0.0006393071068769348
-0.00682020365956149
-0.012266360337434635
-0.0053884732735983995
0.015426518524031908
-0.0003560849703392726
-0.047394422109847664
0.04660366700630168
0.07890412998878654
-0.053371554497466576
0.020704260717593605
-0.029011635805421168
0.0021520196932190852
-0.007366785457722639
0.11492309705586921
-0.06409806658662878
-0.04366175840267024
-0.03787880261963533
0.0955996859035284
0.03725897127911346
-0.07159203457338567
-0.029819725677229472
0.06739865846639054
0.0508454465691135
-0.06380177588962385
0.0040591605595200475
0.16990034928811334
0.04792003630564917
-0.021600664768686658
-0.03461407631259648
-0.024111778944691076
0.02266714632326081
0.02411999812111841
0.02986770666808576
0.0019326736039722019
-0.0004341492390865793
-0.02652591306731199
-0.01688488958875721
-0.13375708783173798
-0.007780014121714244
-0.015600546658431552
-0.04941810995936729
-0.020561171194372358
0.07687156226967488
0.03741401003718515
0.06204447725428921
0.09031197151431394
-0.04293407275300722
-0.02712785936190325
0.00743339625250419
-0.002587625982453814
-0.02298340108134873
-0.028156652256635935
-0.015125716145326576
-0.029686631686311846
0.00863111707910626
0.010948324147786497
-0.030909937794551635
0.005186478856056637
-0.029173238484843943
0.06114555395245246
0.0801357122692012
0.02845211450892688
-0.034631011991401756
-0.0073665767742317175
0.006837312137450166
0.04182118413010855
-0.09032082814265235
-0.057642214796831355
0.04131177463026882
-0.07775802965019087
1.2384297506908452e-05
-0.052950631787823325
-0.06080624617391768
0.007029995142885125
0.11943481067124967
0.06332929952141729
-0.03724664026123924
0.005910206116669607
-0.016728524252485145
-0.01221701701327546
0.006780074966121621
0.022979373460472748
-0.015343055514961682
0.011559016268187082
-0.014770385742391416
-0.043614824804371316
-0.013656393676618644
-0.022184587498056553
-0.005019184771100649
0.011793222508351624
-0.01561673603881212
-0.06487356107939071
-0.010035859081766463
-0.006355191281507996
0.002373388488005012
-0.012488852271236242
0.003936858574028307
-0.02240392465428764
0.013906196268034715
0.10523284501759894
0.01311320612987469
0.045462270962074794
-0.02770479492114887
0.1146502388868347
0.032130630056400766
0.0885751247311796
0.1028104956923527
-0.030685536605067867
0.014650813267476725
-0.0657714542015144
0.013764878441839476
-0.019550654557046864
-0.022887752890435237
-0.02273378486201965
-0.012253838340081084
-0.027690117920655
0.013182541279956723
-0.0013700620454762241
-0.008943430137838286
0.007027538510112081
0.06639034789216437
-0.028481643927260384
-0.03671042309312183
-0.015974210108563664
-0.0022516995532974684
-0.0017019528271950844
-0.0029398620587257705
-0.0260028559005531
-0.028117188026062594
-0.028997866725159315
0.009978000270385251
0.00040516552651558143
0.013514278097472894
-0.014352647255154151
-0.0007800436949885678
0.019617369755242794
0.020026118101242944
0.03295837953116759
-0.02294657911838737
-0.04031911463593801
0.0021862053497643456
0.043080807426439736
-0.004484823913267152
-0.06396407234953698
-0.05195385084472838
-0.016765221136464045
0.01715047189477673
-0.04032317167180238
-0.01670966730472244
-0.05615206457794029
-0.06538251914774902
0.0007989004178274521
-0.02254253033866377
-0.08285541366068995
0.08993081148103997
0.045510499924340274
0.008691887358756908
0.023909182809690496
-0.04198365645883148
-0.04229662740449495
0.11762846066203153
0.12601690151851805
-0.001394491502714021
-0.014514835660106156
-0.023175216374801473
-0.02073816657296533
-0.02163589182211937
0.07593939558011138
0.04643021036728241
-0.0318169373134982
-0.01753136680780094
-0.02843734665326928
-0.013583179786317857
-0.02541191863999516
0.028537837160277572
-0.030552697924072798
-0.0026517331294043187
-0.009024501048732078
0.017420367012311543
0.06464532626141578
-0.01009376370279979
-0.0099255976529807
-0.0017417505912481097
0.0058108558414842115
-0.022038831387364354
0.09333653013126751
0.09414577580135106
-0.013700562144681292
-0.010437989648736077
-0.04406442712127654
-0.017107146532659382
-0.01534106243265746
0.01913149588955626
0.04377947336638891
0.023641086848069023
-0.005715155969090617
-0.024189578183235524
-0.028873081759535926
-0.03709635745058766
0.01640880067536637
0.03964755856768318
0.06604677869302095
0.04826924219848726
-0.07094936996756465
-0.015403260956180859
-0.03627199363812534
-0.05574871962037376
-0.018637000618640282
-0.00990217180032984
-0.04015084748903617
-0.025166551871355452
0.04469840125917065
0.03834120013916406
0.007123902241398569
0.02746982945625759
-0.0409036668479802
-0.022122190804735542
0.026647085893756896
0.0191807236839297
-0.0026599124516468817
-0.023383544909943106
0.010420589384288642
-0.004844132259448092
0.002190812275462832
0.01970243170760905
0.0015828999332545767
-0.010111220875297115
-0.009736348385676646
0.010924192920446886
-0.01124790087637648
0.020740079061063028
-0.027864330553486798
-0.027002772687821537
-0.013426620629803777
0.01864765101640865
-0.010341030030046862
-0.009692353073894796
-0.024675683550304438
0.024474069629656287
0.04020472466206437
-0.011439447992658232
0.007351631447618116
-0.006976195950901552
0.011068776349965963
-0.015817079814154568
0.02979050903462184
0.018876910850436017
0.011014929157728275
-0.017646406870374637
-0.005029475214176155
-0.00048963170770128
0.06408402499959956
0.11288295675224838
-0.036089702057440526
-0.1297419571104348
-0.0263858537314424
0.03934810644269777
0.016321711033616564
0.03899020314688362
-0.011208887703083788
0.031442940058217524
-0.05796015001398496
-0.020685983075805384
-0.025625221337537373
0.06947487905138565
0.04045939185349647
-0.0015935286037798962
-0.019179138662266285
0.020534828520230267
-0.16021839809293226
0.004016108823229158
0.02778727943527004
-0.04500964111905907
-0.007396785723110297
-0.004107502718091539
-0.021648406191256762
0.02763535480353819
-0.00361012248964345
0.019168054690463364
0.026766112327155867
-0.0007121656827748699
-0.02341500706887643
-0.00044797390395564493
-0.030686986281288527
-0.1256364654606565
-0.009841049163932573
0.00039868821617507016
0.019345821586640187
0.03388101817918397
-0.03238837031654089
0.013151223406256022
0.04407610291042339
0.025401603166571293
0.03249074325659474
-0.00890533277445944
0.026170115204900896
0.02547061202788792
0.013203674941635435
-0.007437692766591454
0.04268111169775103
0.05882113693748026
-0.012761343270099926
-0.018468445340049697
-0.004604868592876509
-0.020286342433231068
-0.00825550171426797
-0.023908684734083866
-0.028452781178748252
-0.00621978481349071
-0.039165757012853096
-0.0471521682633895
-0.017470192672429167
-0.009236328111225092
-0.009914034876808631
0.22113075878499264
0.0010865734592251386
-0.015364842640885657
0.044068888900459895
-0.04359890385790339
0.04783748022415907
-0.04048198949822739
-0.05871132147425317
-0.012045125320024682
0.012786190394051324
-0.04082361380658124
0.0018803676317704376
-0.02347659727484142
-0.003721155017685655
-0.021120591900946287
0.1118189984889752
0.08689802541368774
-0.04232128298238266
0.05808936589398901
0.07295671865152986
0.02081660729846664
-0.025349561719543293
-0.0114827534633263
-0.012030049811507255
0.03569276680450037
0.028497203118510735
-0.021808153213256368
-0.03503990817879701
0.019368234736343037
0.017117211094446794
-0.016687637050195922
0.006354059676169149
-0.005588396102789965
-0.09258694539741663
-0.014874935455825002
-0.039622389370057305
-0.01690367621933551
-0.026920773680078686
-0.010372785175265367
-0.04568905057035383
0.025158022632902358
-0.26535662043719344
-0.17265451153352387
-0.017794483063167527
0.10545948861313766
0.07381420577695216
-0.020256229651288475
-0.003792919574264812
-0.023179782663346013
-0.021086508051754257
-0.012808315348290243
0.011497728183549352
0.004762208472310515
0.039325241635250294
0.023258286459694345
0.2366798240573778
0.011538536081977776
0.024538346002195927
0.0584905669393281
-0.03820847827214224
0.005272061743129479
-0.05425564975923306
0.16150698707206226
0.24999925887145164
-0.03880753651309023
-0.07619681646869972
-0.042277146986915176
-0.05149590925070653
0.05222429123105334
0.14294003844403128
-0.0660673825431329
-0.03576148524528511
-0.06194545616418296
-0.0371483578487215
-0.019425552186933016
0.024652447581103906
-0.030657115128116738
-0.003015536329782471
-0.013232773633471048
-0.01507759329971928
-0.03049483924633591
-0.0010676256803984526
-0.017496252439378447
-0.02349656528229644
-0.01599635262221574
-0.02134122543734227
0.04047407838367854
0.07673569876451194
-0.1227432463458949
-0.10534865692251667
-0.00698823989961951
-0.00400427417999092
0.01974710414016884
0.17494067409554617
-0.005077704438474453
-0.057916143017666094
0.01383515796172154
-0.018489573817961433
0.04146514127449264
0.027341599309134733
0.017745838101173358
-0.004436683116594043
-0.0013978288837711453
0.01951334129594546
0.0344278417359521
0.01008971294695523
-0.027000836287985386
-0.0042362633256304814
-0.009692027855883705
-0.03663397484877943
-0.033248280106592795
-0.0039443783246138385
0.006066141105145344
-0.007402908176878004
-0.022821636796828672
0.005742228809662222
0.01703729397913208
-0.004778329188198889
-0.0026738169177488677
-0.015347693323805906
-0.020531155113688235
0.011109457632655924
0.03911133808840944
0.009115530124594868
0.0206952765531487
0.016225172174180055
-0.014891411603493684
-0.0026668214024478457
0.009420692680141047
0.03208123437347862
-0.008251973154419038
0.0069251193315286175
-0.014936341146707423
0.0469275946888216
0.24569933167387084
-0.24352470616090013
-0.12009225450434763
0.03886407158618032
-0.00619824017630236
0.02166105135433808
-0.10597462777102198
-0.040791265641898854
0.0335292925826512
-0.08451009943093965
-0.06813202353383568
0.03618105271803876
-0.00033821219714413273
0.015986905981583914
-0.008003414655054839
0.013399465237821397
-0.03279628782966034
0.005095868169621062
-0.03880907262887501
-0.035050988407362926
0.028787861410769347
0.09952672356065512
0.03585935715822196
-0.0007873910238322707
-0.000876345393335614
0.1739898720267933
0.04965901183244145
-0.028191815135134628
0.011663180001232079
-0.02446568252688662
0.025796257463957507
-0.026287443709135546
-0.022981912389894395
-0.0005244500291843896
-0.007414595398771714
-0.07840066564485602
0.01592780996373752
0.05452742332185121
-0.15423985294655268
0.02391853385831314
0.13195367608849798
-0.03148664399372175
-0.023473931068760372
0.015526389034644717
0.002565570238708427
-0.004125656821564997
-0.007390543260322655
0.0015001742329517438
-0.00106226312709957
0.018172644717269173
-0.026190664860502384
0.004074074073253317
0.009628168815073234
0.042655661018698
-0.008947276237654256
0.06907983645865394
-0.01658781178385224
0.015000268534253486
-0.07061244803561864
-0.06025153021310577
-0.0021542374965831806
0.018852702549144697
0.12481015254228299
-0.025328867796197994
0.03321374331004691
0.05129418657728297
-0.08376171576107362
-0.03702622085293162
0.023487244649994608
0.007866764890708523
0.020541076155491028
-0.00939152724118079
-0.009267966955372445
-0.012912433444084138
0.016565569077301563
-0.006669095145556494
-0.00013150145729304776
-0.04218852363864463
-0.01592473187485161
-0.020535580918743357
-0.009143270101795702
0.015567425173852234
-0.018023331652548564
-0.03254329849420747
-0.10008112813340346
-0.03868132491109228
0.045434471344121694
0.014920757061202206
-0.012036238210895417
0.0025970646808136555
0.012817887933826438
-0.006750699565587073
0.011508846411210603
-0.011405505923208116
0.0981164706610373
-0.02918883422139997
-0.0005987050974726001
-0.007766437827676415
-0.019475039871917614
0.03500304841731276
0.04787767844879894
-0.029177850602669603
0.012899241213241227
0.03599254278563114
0.03571917126903553
0.010518944774094078
0.001062218459076616
0.01911702412875422
0.03362553763212786
-0.023306400592724288
-0.04778822140894341
-0.010245168693092877
-0.006569753560936527
-0.00831982850220103
-0.001289851173735053
0.01874988864498807
0.1150957459608316
-0.030223015663033512
-0.2496851799145862
-0.059592040889295435
0.0344401736940867
-0.004527367140504526
0.02035875321710006
-0.012279541768928069
0.03314520027941852
0.0304010737046492
0.011462587998683238
0.007296864710082548
0.016594202246540783
-0.018676893475699643
0.010522354140059326
0.07768418956008663
0.028594157600948314
0.027341484552559837
0.015892855965014968
-0.017373339365664677
-0.026592753213633382
0.0034706577999590905
0.019634880503843443
0.006532025705623721
-0.0009572017281775821
-0.019420308992295552
-0.007459216093694445
0.027815508044802477
0.0020786407449059447
-0.026516014804249616
-0.003979365622781881
-0.010923647254118539
0.011539638886352064
0.008949970280171523
0.014205900960576886
-0.08328591665407815
0.012292428184455471
0.013378792751233427
-0.02876718591616272
0.033263282777998365
0.04556325966973346
-0.020782459950646127
0.013388880345795913
0.0028364205948145276
0.032347241853990474
-0.006219068985612123
0.048883315861648374
0.06485729982221015
0.0010622324036713199
-0.2529676217418867
-0.011259974539887427
0.014778785564701465
0.01879672705708171
-0.047533579962443874
-0.08191732660238381
0.03271946490988524
-0.005742183215828007
-0.07848622248234904
-0.06403031844171186
0.0026915355303594587
0.02161927850547723
0.05114680805019147
0.01647604392931779
0.05140494464277364
0.042773354346393955
0.008407933168950232
0.026011614671160047
0.0034660509667975366
0.005565187188427862
0.05880433194562185
-0.0236075181991488
0.012505207595422644
0.038254832581443125
0.03192812456732313
0.014017744866386097
0.027983505742548563
-0.013377694439956414
-0.02336172896825062
-0.020910010417490115
-0.0913498787889279
0.05192666711745354
0.02531308143498499
-0.009309561773296917
-0.02494764219631594
-0.006352756706720673
0.02376102153887042
0.025150221978648444
0.020772176238490026
0.010449086732184585
0.002042520758816411
0.010371491254025393
0.012106373626839188
0.034383315041436595
-0.023335741661148542
-0.030169060906008658
-0.06116719247463727
0.043839534404307635
-0.04489035347239597
-0.029341883078800667
-0.0004617769575328209
-0.024778176358872892
0.037208187176740556
0.0350952804600451
0.02650412134015942
0.011426304301568699
0.014862246976527221
-0.007662842040445085
0.014234222896108754
0.00889696480511746
0.0472578942355921
-0.04074160535067853
-0.09923651503689461
0.016994960631349535
-0.011696108967961635
-0.022224044865495007
-0.02087693583953784
-0.005287070884983652
-0.2009214658007553
-0.03742561897202997
0.016457695764686725
-0.0016016958446397442
0.018004307858025318
0.02696432993919053
0.02397644581809899
0.04515713455314122
0.051035869989714655
-0.023835802545633392
0.008457719645405605
0.06167725697856627
-0.021861737048388903
0.00308353803111676
0.02764153938337268
0.008305205090300955
-0.018128874128325017
-0.03900631557225575
0.05186092299696177
-0.0055254072992827
-0.027484991002142738
0.01131363807666967
-0.03157319178447591
0.09731326499924071
0.06573600383620852
-0.024420531693394434
-0.07595806147068365
-0.012465153023432422
0.012798501010462478
-0.03027136658901031
-0.006390348480896274
0.03852532445469433
0.03269698434898981
0.053625162246327934
0.0055435513411987835
-0.017206764822975614
0.026792536007231096
0.014025919013251361
0.004358378358824938
-0.002917276235496422
-0.04638674587095385
0.0015929878098315487
-0.00044231529742852726
-0.044690216214502566
0.03641279451327066
-0.007883599225978501
-0.02011809502396962
0.009320095878064257
-0.03663590318324713
-0.07521592645994614
-0.00501055456875531
0.0030682396019657493
-0.02211431311841722
0.004318852193830053
0.020670890326385527
-0.020812182354170657
0.02717850733263
0.010917978082194616
0.014154411491571596
-0.0044039834126084875
-0.004679113379234083
0.06520909180832168
-0.008050134588833104
-0.013245910314097137
-0.023393614988471232
-0.00954472254974218
0.009818970736734737
0.04504416067036262
0.03180523503910495
-0.009067350603806127
-0.02660418520597781
0.04126032874768976
-0.015625656491769724
-0.06635778335832791
-0.007743671211471822
0.06614706614459018
0.01128899524353721
-0.03131874939147798
-0.006610128800739057
0.0005660014419232328
-0.011642974702328042
0.07366126680201661
0.014306556217314057
-0.07612577604048101
0.03569473692483576
0.0059032598068274695
-0.01660582611358931
-0.009446233698905286
0.009582050777841867
-0.01682387741970715
0.011305414640368027
0.0068318799493846125
0.01857192428787983
-0.008705056394809011
-0.00999143931448999
-0.025104699973165293
-0.016301027198668615
-0.004156333960243511
-0.014079887936230039
-0.009545994917005673
-0.08928544434097264
0.10201866055152331
0.10793967524435835
-0.04061369965507805
0.018093164213949905
0.02960354500517382
0.03350830505819047
-0.02971816318124182
-0.0015252447198996779
-0.036309272608710995
0.01994879267484702
-0.0061246252157029024
-0.0059262184855724065
0.026784616400553934
0.019015872155472516
-0.028768746268400314
0.03014439124941484
-0.01720960718176725
0.07572487855480127
-0.1391025114339077
-0.1948860757108195
0.030036923026396278
-0.06813389023106238
-0.012589236866118361
0.0729876844447508
0.10685344868421778
-0.032379172298485935
0.02703962127891679
-0.04996548914110475
-0.01346427662377015
0.004564973336079632
0.005016872904399823
0.025320723846043655
-0.004285041666872766
0.029409249419329608
0.02648442877188746
-0.03314602868575001
-0.0014252054706550843
-0.01665389115596974
-0.002507033596474594
-0.01040385875210633
0.04397115347937987
0.03353003488366303
0.015585578362430026
-0.015166177217812235
-0.0389766039457599
0.033455218280355054
0.026496097626295578
-0.04408361479290461
0.01113901798633291
0.08061318861843192
0.0027500308910572606
0.02386642652574635
0.006728785255264943
-0.011112220280530051
0.0009610209323081244
-0.01917064438426003
-0.016187524616441115
0.0537034628133268
-0.022045033994665484
-0.03488056368018462
-0.019695240447788608
0.029738617954971045
-0.031134622153709785
-0.02625858406548523
0.013426240777167251
0.0004403301450375612
0.0012600550613118503
-0.024588309280398207
0.005841093700882421
0.02231641229420407
-0.005103976136569702
0.006442620970674452
0.02365363222434329
0.013659001625128024
0.036365620283715004
0.06100478192443065
0.012065406659078532
0.03950103612064323
-0.017667325887692112
-0.015355664696435727
-0.018480612016777115
-0.03638843616591098
-0.043402091126631126
-0.044652877223363786
-0.009317309997255304
-0.017555509000820962
0.015961614714159
0.014952024338347043
0.0027527331049831166
0.03627553093153628
-0.07722321961899521
-0.14591633211865648
-0.11355028496672297
-0.017129237006524314
0.0467294147260197
0.05857599588684983
-0.010207111897414392
0.008896031236988847
0.02469007917396762
-0.035569749170065106
0.0031034930253078024
0.009933656821221687
0.0759070264231158
0.061364499988622735
-0.01891392881447925
0.0008087209270477119
-0.0016505026476751014
-0.002295188281630145
0.01725042323685918
0.043860383842452756
-0.011431731207272826
