0
-0.11822408606744308
0.042362870482149435
0.024156385494307427
0.03278695644779361
0.026535005023645888
0.010222484656093074
-0.038306764385531065
-0.00707420333846963
0.018799112816977846
-0.019157850166252464
-0.034624859102406674
0.06841400487461403
0.004409498304904631
-0.01546915241553356
-0.015594205492654339
0.007842090025474506
-0.022773209774420534
0.011748283709653374
-0.0180896907867776
0.03461233092307735
0.037710307404636496
0.03480697428322966
0.012583404481272396
0.0496970354605325
-0.004397954156471171
0.0031377019024846106
0.011567184060852756
0.006560122528280008
0.0007908072576486793
-0.004027988235513701
-0.01609337851792868
4.097457387379271e-05
0.0005004644017063756
-0.03385241751080751
0.01035599147297097
0.010007681458019084
-0.026487802092824753
-0.02371251743889435
-0.00839971858776086
-0.07294723514479708
-0.01226074834996298
-0.01472718622423152
-0.05722289438908674
0.015695492948301963
-0.013676985978460541
0.01628071956247354
0.0070975555045785805
-0.0018546295894850766
-0.012404103134416875
-0.0013151293899372062
-0.04246220965058539
0.023558903658316126
0.12192787811299108
0.06566392055040217
-0.037590752681526646
-0.006437820471749161
-0.017813483356685953
-0.009359376153731063
0.05629002976277891
0.012056933427665378
-0.009273691189717709
0.052907329108270465
-0.006922256974621143
0.003913198525694728
-0.021074964153345584
-0.048896969784712384
0.019326426289595158
0.0039010303949057064
-0.022477119153453833
0.15134881030719105
0.04805887203926712
-0.023852793797713746
0.01190145189376994
0.020681386385481348
0.007547410277923621
-0.025739398781640395
0.017452373769117895
-0.04300305951488894
-0.05908344629040248
-0.048404786060737656
-0.015080544507612441
-0.05057196076413444
-0.08775833611611221
0.12335571667650587
0.008488933383163652
0.06820972638957402
-0.03198788987142648
0.0027461735691350206
-0.0757081673831079
-0.06211139235510869
0.020417248635197408
-0.02517799744458613
0.00013301201934112373
-0.02850489529847451
-0.0026748825427318906
0.01867136085932903
0.03122946694457388
-0.04537766596204638
0.0006266889089410298
0.06066134046080791
-0.027615145381509422
0.007534130489498449
-0.01764580890477155
-0.005223916377493728
-0.018932320855846025
0.06863571956841527
0.053588012103892
-0.036261845034521414
-0.0230790715904123
0.007790293902778755
0.014168122232678087
-0.011475643563987867
0.0021061368418460753
0.007367882558685133
0.022580140129181574
0.011531984253125476
0.02841784328611371
-0.081335253953157
-0.09656072771664581
0.005064174091839784
0.020629541651675607
0.033938984119244876
0.0030051419518487164
-0.015514520821818567
-0.030581300525830944
0.038091592130253454
0.017389987335544678
-0.011338220636442119
0.0019256601854954552
0.011859822685435662
-0.027195866686244713
0.0019499149316975926
0.015025147587852413
0.12057175133590102
0.05544767392407902
-0.028108577757275523
-0.0005932581321715643
0.022630095790738013
-0.022075315375114382
0.01954436910233112
-0.007186006763160646
-0.028048281955485078
-0.03820748807561789
0.016156135823536255
0.04330063200559132
0.017438760289532035
0.00474443442085173
0.029315640575264583
-0.0305166034932889
-0.011133419359945999
0.08945879453876751
0.03473140032312601
-0.02344225477538299
-0.042881342869765415
0.013965855588145441
-0.1177455274850869
-0.04167092027375987
0.06640025150962142
0.025829950797781078
-4.206980400409908e-05
0.008197221184387078
-0.04773793332663384
-0.060809711421270285
0.021563068950182913
-0.01179264681200139
0.03354245781113895
0.01509784448007048
0.005577251438214184
0.0017134989857946305
0.022010982241371473
0.0008980265502959227
0.026123949524520018
0.0020311629903168875
-0.11885964196386056
-0.042965291638199066
-0.05113817792235135
-0.019644685776305012
0.015858248264138022
0.014283294929266145
0.035571501056453285
0.0013783986109732805
-0.0050412401463300945
-0.0076440062727776625
0.026821368691325728
-0.012110926570210047
0.01101990076842928
0.04968464987965726
0.02580633537383179
0.009789278095934524
0.07564828700348579
-0.11876636266114925
-0.18017633676457787
0.01628708902245781
-0.03061235007790276
0.0008219363668142684
0.005568319391942689
0.01583122205830389
-0.0031989477094649765
0.007467447848283326
0.036063676402660665
-0.03406810499627348
0.005285890649290262
0.027868375801386985
-0.002827156207175808
-0.010223652376939587
-0.00039280014474751124
0.031201479059713953
0.053728107745847985
-0.0420302230433558
-0.008820848062211211
0.02955065177385888
0.020928556815481787
-0.008228082568310827
0.041972466746867776
0.006136685006781045
-0.013058109438606694
0.05213075759757755
0.012171335099399645
-0.017439767615586937
0.00623409650190833
0.01712229877676723
-0.0036979937125570577
-0.0013178415511595927
-0.002711464745765967
0.036634730867785806
0.01879312693698697
0.0701348865844835
0.024143481035060116
-0.011163043391164766
0.0019246804113159227
-0.0026962338732012398
0.020897623883207116
-0.0210438888568934
0.017403282251764386
-0.0045775585413087095
-0.12532720046640664
-0.0022465263155837965
-0.025076558168578622
0.002006265530860648
0.004130808330321882
-0.023449475867994035
0.010675849800928859
0.031060376807768266
-0.06852318392566938
-0.02645188592650987
0.026948497074935754
-0.011685199018802672
-0.02496860278400423
-0.00551219197014352
0.014078348596329057
-0.0007940165851760975
-0.015368259844296267
0.0006123936774546187
-0.025153907614784067
-0.022351503479173848
-0.010336013908807031
0.0013774367435047871
0.001604168520550294
0.01553687463211926
0.001392587402466959
0.0014849704314880846
0.018808325107540637
0.03816349969950774
-0.0317610365982719
0.02233043360052737
-0.01699482192299057
-0.008665530141442186
0.004615203302204434
0.10056540011793945
0.07686718333295647
-0.02622014839546232
-0.013152790852080773
-0.04566062773057398
0.033884789358757425
-0.03207599113215404
-0.006208147556114655
0.013231887128708309
-0.009497984639668586
-0.0003871217033805815
0.003192286567119123
0.024304721598861222
-0.04105977136894882
-0.035049223188401
-0.009645978636324389
-0.004943111467332684
0.007261754080277476
-0.02087055123280532
0.0065365802583941205
0.00923229839182223
-0.01886258012812027
0.01769062785110929
-0.017741850411578847
-0.027503009611583296
0.01893556635509728
0.011817079704394764
0.018594350529195808
0.003993720338541022
0.050125295415563854
0.09270119504674577
0.0011206166591154454
-0.010383387889496751
-0.11617753356740922
-0.02155720491192427
-0.018447837559158138
0.024649608022252325
-0.02047898620356459
-0.12745515227722398
-0.030044828209276935
0.13964563234935914
0.0646396087540838
-0.04337047224928014
0.02468824504156803
-0.07213845109685653
0.06428704766070481
0.1805492405010917
-0.023536010671982847
0.052721956765439136
0.04253615086628628
0.015342144245960887
-0.02981329329139397
-0.03576192161671319
-0.006548711051759918
-0.0038772737312732022
-0.018506157531922654
0.006896768607646175
0.009741586236227569
0.020003398133882716
-0.19078171850815917
-0.0824027228585818
0.03547623506425609
0.026543228436288112
-0.07818022042082177
-0.04024881580123389
0.019923654965587886
0.002034967014375081
-0.00627563678303809
0.030533215098222797
0.001968713533620239
0.07914994467685937
0.11071688481689132
-0.05294114430430966
-0.05069722427033671
-0.0019842372667826535
0.01633292546346072
-0.018785490359889467
-0.005570432283679016
0.016952114200856776
0.010850811749295546
0.0027550211730211676
-0.0143321854845817
0.023988466034246467
0.07382399575983055
-0.019002669413839574
0.010236256444412783
-0.0070268695476233605
0.02572490241473949
-0.018870820469007756
0.0027097599010164437
-0.020241992232601494
0.01600087112702568
0.009436634300843735
-0.013320316692493263
0.019537477810092397
-0.03188174860536186
-0.05327686908705819
-0.008588686383506417
-0.022207350819303976
0.02461373737010254
-0.017174148897645194
-0.048472641458535894
-0.025753502283710372
-0.012122067158354597
-0.0074987903244692665
-0.011802793609262997
-0.029615894580194965
-0.013790889576533879
-0.022669199527069056
0.014000899543179847
0.02533499348381647
0.014911901281924043
0.0133258654492717
0.05119931758539041
-0.04247735940035709
0.02285660824433241
-0.016800784439444195
0.003959498208184591
0.0031918008944559198
-0.012925231945593915
-0.0007910602047559793
-0.010629942907700664
-0.016101105245405332
0.0035740729046085514
-0.038299722761280006
-0.011108472797931373
-0.01753604405188195
-0.033775912753018555
-0.1980604780824225
0.03370914246472666
0.260697216405385
0.04591231831473658
0.044025864416660426
-0.05024368248883984
0.21284881507344874
0.10518197637442678
-0.04739939359801208
0.04217036117079996
-0.004041330176500923
-0.02284147164112941
-0.01793881508513914
0.06948646740386687
0.028634557875792607
-0.017542643987480205
-0.038206486723593676
0.028613579569083433
-0.03234020481101747
-0.07450226758245758
-0.043532252001324
0.004505727628793745
-0.004655662638284649
0.0031600660251003103
-0.0047298780490481005
-0.02049539248653747
-0.054249725384193294
0.020765036428779818
-0.024986521757908265
0.03550181956843233
0.04099322685833737
0.0031600384374420344
0.0010905964396984078
-0.0008101281594574549
-0.015551610534662488
-0.053640875518213185
-0.04182913334525793
0.07191117960137214
0.06412122395592769
-0.001698118472732603
-0.005484611892708491
-0.002955707539178367
-0.006468439468749563
0.02644290994348501
-0.14578054541293314
-0.03661995922309895
0.07861222288242883
-0.05712692361379685
-0.07155487722834367
0.016610855070998118
-0.024926716391563773
-0.020678339992871216
0.0021554124001451755
-0.003735221418321664
-0.051967421113781165
0.006778901140920085
-0.02114365603477239
0.10099072225292818
0.08212967906579816
-0.09916160854096649
0.039251004343449004
-0.0010214325694066022
0.01208659087663634
-0.021172864375679792
0.0025606302401461685
0.016370062265140414
-0.011812240997407212
0.009178635429929478
0.0418080936287221
0.035749550942014124
-0.01679416117032189
0.02991172201395625
0.07489815873318871
-0.010644747540781655
0.03816264371585897
-0.00025137183288892934
-0.03867633591987029
-0.025216629864553038
0.014247301511216592
0.09574938603013687
0.0003589996009672542
0.003011112929321983
-0.03317286530378472
0.004405389103628356
-0.09460452005284768
-0.029507047920297725
0.05843295264737091
-0.07482891486892938
0.042225531302206666
0.03002183543469712
-0.0010019175123045067
-0.03187732944306205
-0.01810315077671007
0.013422094111511722
0.011442217674799438
-0.025698539722102884
-0.012304354201642852
-0.014689724389460342
0.011822204499122732
0.041655696246590816
-0.007219559354797717
-0.005068818650646021
-0.07167787304792775
-0.04460920583948667
0.01810326694485905
-0.003375183446280231
0.03402519956420281
0.004239233797682281
0.00810136231088373
-0.022432235594666318
-0.0058570023360675644
-0.03914984077489001
-0.0200251569971838
-0.019353584280723365
0.003874243291832624
0.026969620891855704
-0.036230424572198876
0.00824968104092444
-0.07481769724328342
-0.07529306132123233
0.0191937704719618
0.1189628539147013
0.08803326830022172
-0.06281567478775006
0.02792891080814014
-0.04218571231836308
0.04791850353552845
-0.002430280987740764
0.05166474309177525
0.1155636889533207
0.008599512943989706
-0.03873938125441982
-0.007625821363532157
-0.012463450323584173
0.05440596995460727
-0.04129773297401904
0.06207530610245107
-0.007581940492227706
-0.15180071144193133
-0.0056811117845249805
-0.03540011865995825
0.014470919383695983
0.0037855306853376556
0.002459428291093702
0.09049704073743005
-0.048067416901678324
-0.03905516088064097
0.056182413987967354
-0.0881864081563948
0.09329214862695594
0.05914079366757826
-0.03790433012970398
-0.010031379384986832
0.00689144534702687
0.0031658737675930426
-0.02378330793501554
0.005270548817381516
-0.036390695358355554
0.014997355945707929
0.018934709366235092
-0.013764198166500362
-0.012320190272725602
0.03912583471787606
0.0063154402253745
-0.03476221267092693
0.015357694925079322
0.03622335799386237
-0.009698043546393456
-0.0066023568506370705
-0.03145057616302579
0.02000010892185576
0.07638621122953539
-0.0291991151305178
-0.008596217280121944
-0.004223940909396297
-0.021746550235010063
0.04655138356056548
0.011286612752797258
0.0007323019312340359
-0.006031666629476591
0.020571042633192725
0.04055374015625878
0.02019335372837676
0.01672582298901941
-0.010360902461204606
0.002268139811453293
-0.020257959097760476
-0.05056023552290077
0.016452155607509733
-0.004752988884143177
0.030186454497546877
0.05018205331983247
-0.01799430680652566
0.008491613604986388
-0.030243893234570298
-0.10178313930325472
-0.07875092713392892
-0.007555173977089381
0.05797047309167183
-0.023749758916673205
-0.06066414813775588
0.003011382318187745
-0.01824724713171647
0.029664620287781378
-0.0719656188307737
-0.041081197535677974
0.015160473922735972
0.004377942029544425
0.02069217988391394
-0.002027244775572414
0.03404340091881068
0.024467220416665873
-0.036449596350869896
0.006937758153438735
-0.0009217214277715979
0.013937209483463312
0.024706071763921953
-3.348452354724949e-05
-0.010408277753604991
-0.014103826105885143
-0.00875621391191583
-0.009699696293195476
0.1384212252294258
0.03798951975213895
-0.05586978727332957
-0.013015795643508696
0.002562053581818819
0.029125842172436436
-0.007745598535328263
-0.013089016648703
0.05248782220527094
-0.006508952270853792
-0.01838113508187671
-0.019315999975212564
-0.01598994381525052
-0.02077030822302385
-0.03243569928131925
-0.02545241465296792
0.002594592219308828
0.05001731884978906
0.0022170171192384376
0.01460094129019455
0.05091716316328733
0.03385814997963023
-0.011355961402734118
0.007431335579841187
0.03152238216689073
-0.009943157912537295
-0.02529995717256289
-0.0014848869004110393
0.022315014677941187
0.0048401805052427985
-0.03945643134755848
-0.016584836149345437
-0.027085000599645144
0.04022245083540841
-0.02563564277918614
-0.01085990227376132
-0.029486976045959578
-0.018146521728763187
-0.008560606928104368
-0.05083222520259871
0.009603671538150073
0.03546720690081699
-0.013752903175838299
0.0006959192114027316
0.002179150697794739
0.026868163174927455
-0.0032349253589145695
-0.019076137687847907
0.05675978201984474
0.11025107976576402
-0.06680533817685172
-0.05809552055446815
0.0032766544574388606
0.148485110659551
0.05225646106773912
-0.038870411508153
-0.030501261396367
-0.06560184357640866
-0.005683824827564133
-0.024992951741077175
-0.08232940527998228
0.070319006622099
-0.039496456609774765
-0.023382050883076405
-0.0070765080438974825
-0.04632420909925473
-0.05115122709158098
-0.038411951835412066
0.0011965094283562028
-0.022790066289102053
-0.028068693946863846
-0.02379273378872688
-0.04607699742269765
0.09822746450041331
0.1528744255251841
-0.003883534806974418
-0.027026656175375363
-0.0334814524886135
0.010578855371245359
0.10236878913554619
0.16816857043399325
-0.02297413432470525
0.061502497822566025
0.0800763338264636
-0.04413027549965288
-0.0837514324806349
-0.058819893841162575
-0.030787588801745716
0.016111524451758202
0.003921673469212973
0.016113130014816755
-0.033960837212645756
-0.029736565585560752
0.0311658842597214
-0.008722546084025024
-0.08763632595019621
-0.03937533567738217
-0.010292650388366053
-0.011168312794342602
0.00568556125763851
0.011934379554448104
-0.005171564273893659
0.011919670605806504
0.05155002291956378
0.0006066494011564436
-0.03371960656200438
0.024595326929577103
0.09291094073717002
-0.04320161144818344
0.007201243812095508
-0.030054821128717917
0.09305253159170516
0.0729598352596155
-0.019164781241600825
-0.025740141968673656
-0.012015976386179001
0.013564000933747527
-0.01619443297102423
-0.03266703916561292
-0.02756527210101638
-0.016278633412312934
-0.013371377132556367
0.009454131185730873
-0.001764545502810238
0.0012855554141547021
-0.016720832116360572
-0.03999677794651226
0.008430043198669452
-0.022036531332330973
-0.021794366948502838
-0.032005295601893205
-0.0649862462065287
-0.034417348745884126
-0.02267561696773702
-0.06406038867477018
0.15112379205853124
-0.00807515365723007
0.005304528005059873
0.05605673592741018
0.012076990055275436
-0.04727336284784815
0.09738763077303518
0.20768821795790243
-0.03266923002043418
0.00840115642145996
-0.05730949084860565
0.006504841520442067
0.0019308373454248605
-0.08522796214810624
-0.03655272810403794
0.009714314494005378
-0.03222904524854258
-0.02527205194030979
-0.026613207097991025
0.0078850651226436
0.046187798219732804
-0.002769290742177425
-0.025634103778271876
-0.02179228703512098
0.043884612646340596
-0.050338323700397224
-0.02423972278061708
-0.01256740465067617
0.00567104529033021
0.04115339306149757
-0.009587035033845132
-0.011577383724306198
-0.035750928584240046
-0.028025558853257405
-0.04162367194344107
-0.002078620722909153
0.09842298326182446
0.12083228024632324
0.1041960582621847
0.04029188064222128
-0.019802968777288342
0.02593927589004078
-0.05438958128527433
0.04192126385630797
-0.051461635254834714
0.015164058019503057
0.025211870618792875
-0.01736182603745499
-0.014866089289603748
-0.010653533602960771
-0.012517636577302024
-0.0027498019453868275
0.0013672116620762772
0.00939073907299477
-0.061049115841657196
-0.019708039319460014
0.005616872226923499
0.007897996169034353
0.032223455608980246
-0.019123205037904357
0.06879077518356173
-0.004850681176413737
-0.026981370289463034
0.00935022039377926
0.029232549722510482
-0.011263857063517726
-0.04979039925742819
0.01653578948572945
0.000628003412862743
0.0019498098259765875
-0.021388292297607414
-0.009939391992494712
-0.041945427473733504
0.03239384389512213
-0.11377727978290547
-0.05762624818019951
0.046579157571282594
0.0076473156522358105
-0.004214108949123865
0.012721042649000487
-0.004845126076373264
0.009709243844508596
-0.005883055381908275
0.031110196985341735
0.035806626534122414
-0.023213880782118106
-0.03617377819909484
-0.0036212121998583082
0.01685329964851289
-0.018107798692805707
0.005980442758019159
-0.02351192206395954
-0.02844956072864711
0.0069598232640881615
0.006353077478958252
0.023635970184133
0.053824294272783145
0.03172624899144509
-0.0139505249793794
-0.011604416893920909
0.02199550934505179
-0.015733771810030377
-0.000727965778324235
0.0573106754625627
0.00416294486863759
-0.027569464524161123
0.022696027910449643
0.04641330609145435
0.02502840463996953
0.011924259332658945
0.016448138970622757
-0.03839611671487053
-0.024278004019118133
0.0055904847151185735
-0.03995362222587397
-0.026399518690868883
-0.12300057229359833
-0.12319457152169751
0.027794604186244583
0.02574327803581154
-0.0038690030174720865
-0.008359506487188624
0.014938125859384232
0.010121851473190866
0.015109927972697697
-0.012435442779532896
-0.00395954258541272
0.04763940709749584
0.03754369339411746
0.06763133661677699
0.09240154642631462
0.016461944261710715
-0.005800165972819639
0.040984724463023016
0.017019954703434495
-0.03288800167197008
-0.05334101029764031
0.0016854324426730783
-0.0323405830790979
0.009295508172259452
0.007607950069061212
0.010624271214076551
0.018038768908081544
-0.028705459033788152
-0.044221786984878886
0.021069372777098527
0.03904299648997226
0.02436436470137973
-0.04229600534066666
-0.010379279499204766
-0.0206257695391906
0.002036670056304893
0.003919191482748706
0.010433941081710215
-0.02428505511280123
0.004237708307310407
-0.004531183088780344
0.05385234518340918
-0.01364050754709927
0.024462912156736356
-0.002708129537590623
-0.009971126509526472
-0.023416344033415255
0.00305671075019546
0.016291190030086188
0.027147654001822504
-0.19585770417729756
-0.1931093733672524
0.020793630009805712
0.0575083126026693
0.3099403335154991
0.024998035997768488
-0.014738391826675882
-0.008549765024347346
-0.06327233814878522
-0.02750378739875048
0.047720690427694536
0.10363810334394656
-0.015748441068745615
-0.007602865231254177
-0.028630345398788285
-0.07073533129622055
0.01415446285438256
-0.0483116364402424
0.010319949538556264
0.018837110281020926
-0.009425468217736361
-0.025620233283174514
-0.013434001250934335
0.011090423099386734
-0.03898564160376968
0.0006559657621825761
-0.05611377793443275
-0.016627107673140053
0.016724159207307823
-0.062028809427913015
-0.004985861001988744
0.1560427740968755
0.04661605480735897
-0.027752908946580515
-0.0005037791941943327
-0.0697118450628821
-0.0012444260917522827
0.1207830326594804
-0.047657225938798155
-0.08205529998981366
0.007153194847348347
-0.023007586332329102
-0.008438287234634646
-0.013102925339725053
0.03821728533059174
0.006213126536606316
0.013667664819180135
0.011820265601543483
0.03050131579816618
-0.0019881631835038166
-0.026378730538635375
0.010545205986297598
0.032314391754806306
0.012438829277174657
-0.020245230815559217
-0.021944932735415007
-0.015343442811852043
0.01737030837588077
0.03983887414112172
-0.015617692058579841
-0.017450369061958515
-0.0072061030452593945
0.003370630450137924
-0.02693387324707982
0.010374869374812055
-0.012463731694291253
0.030244554064861685
0.00036530778391075374
0.014715628884600623
0.02757575324193111
0.0787184176528567
-0.010488231214810967
-0.028844334468229572
-0.020333783654834965
-0.0041980049948496774
0.004860328303459082
0.015974872926795506
0.0171781173566798
0.0003625828390167262
-0.030313490706178982
0.07440440986577684
0.029414090281585144
0.0040248698989090005
-0.01208040435325508
0.009268236464596295
-0.007217172634271301
0.034314485748233016
0.00014560273476925715
0.06395464259590379
-0.03932808219935809
0.01557338414139702
-0.020615052556310947
-0.018664478245722024
-0.13587283888795498
-0.22019903922252176
0.057993749736908455
-0.006541510248504777
0.08249798713932135
-0.01772869730785095
0.002982821476021815
-0.03653804856484186
0.01568264088221784
6.0462952578349064e-05
-0.05505124233432531
-0.00516591920027214
-0.005131476567720831
-0.017101764363625243
-0.011320177594698255
0.003270866909446527
-0.020083527590643944
0.04793008910342715
0.10875815256049894
0.05831341788768601
0.11246698331202304
-0.14477159572715173
-0.012417307695067827
0.15685689500611721
-0.07232795381237461
-0.02054598873709022
0.0001993418469762982
-0.014007080500369366
-0.0188392580142568
0.01848478711625576
0.012326399722641691
0.020171027920258534
-0.03441007325938097
-0.022221402743069982
0.014780536136780148
0.017956380043727762
-0.004320259313143079
-0.007320349875471485
0.037881697597990566
-0.002823675390773803
-0.01633196665483481
-0.0025373764097526954
0.039325375828503394
0.010238409983872316
0.01127805250989241
-0.013739707682892604
-0.008205342010290483
0.0003020552409632814
0.005214739557379992
0.027260938040733554
0.012693512663980602
-0.0015941689722150305
-0.07699235939544756
0.023535169729082782
0.034107957104792294
0.05794688580529193
0.019483252757183333
-0.015086849351260402
-0.00738193571431395
-0.07023940206647741
-0.011541708569345131
0.02894995427697331
0.018250110839011888
-0.014132769071888068
-0.023235575832061883
0.03499436642075785
0.06980581190630358
-0.05739211515482452
-0.09879720593262026
0.041711239220650426
-0.10887012175790664
-0.24589314175705002
-0.025800985716808736
0.004515018276725056
-0.004272423291224617
0.028002068801823328
0.03814358350547492
0.017849973059507
-0.009424511768089007
-0.0007761235659553994
-0.0017863282359999076
-0.02070683755534711
0.015458468167794576
0.027711183846961737
-0.03315802638285358
0.10873877483987443
0.13412362502081665
-0.007235999287514386
0.019042943510539773
0.018941849377026324
-0.00923067243475687
-0.051280344066270744
-0.05220482855816785
0.005651624844470894
-0.033362185513810164
0.01919187811169582
0.08424277404846338
-0.009232190503049903
-0.024876659161051005
-0.0055013675743624335
-0.02044983080941599
-0.011249163218188935
-0.02444061557917338
0.0010880509415409087
-0.010706394042575531
-0.055516646212592516
0.03458976693727965
0.22386985362705977
-0.015799522282543797
-0.0038028225318726253
-0.030573458816938803
-0.01999545594966228
-0.02272786206910854
-0.03409638140409156
-0.05344235467966798
0.0941163495347264
0.15480864745100248
-0.050797166031865564
-0.05618426169887854
-0.03870596828362376
-0.015375278169331742
0.03390537648782612
0.08765136261955729
0.030213161378352612
0.006201213988841735
-0.06110184334833915
0.014363819048410048
0.0481043777648099
-0.0017971774483943339
-0.007295019118482794
-0.004537542017280939
-0.05272504825576049
-0.03263601948797375
-0.024067455406208475
-0.0675945333515256
0.02469967954650614
0.05539658648955946
0.02667808498589079
0.02322822957125203
0.018871562204447346
0.038518256566125536
-0.02847027599307243
0.00276770867603414
0.015718450267114506
0.02665935860505556
0.01755654713648288
-0.016262756750446566
-0.02824856254033385
0.01554985986942388
-0.012823600824752564
0.0003243938550521822
0.00015115539549228412
0.04413237248147384
-0.008898057350672395
0.01017207015721958
-0.14972442936395772
-0.051710424701672676
0.044629932652658855
0.00016696490320115153
0.03495832722351633
0.007825228929162766
-0.010681933598706183
0.01880551340960513
-0.021198675372112098
0.009243268779773684
-0.0610679864237326
-0.11919210893435889
-0.025273419411681274
0.0002194680774829053
0.009639908689399117
0.028519847845414975
0.05246319429494022
-0.03281224179713968
0.023221451590127562
0.027696986041743827
-0.020556279017644664
-0.07080725927415654
-0.01199386448396208
0.020534029154499138
-0.07071114712009752
-0.04885789400708781
0.025543496304037714
0.014013200299368455
0.010742891308348492
-0.025434549228438404
-0.0031420985595308026
-0.0250816905304989
-0.005592473789993122
-0.00798346016229649
0.002082452822509151
-0.015497536952662828
0.010363099925569535
0.03889199424318572
0.030419434650347632
-0.023118725713267573
-0.04724485934198769
-0.05936323301837593
0.16914122303530757
0.21722534720862352
-0.022044962691151842
0.10853019430856323
-0.01954094850008925
-0.003429647121416695
-0.03366574907188352
-0.041901600486054964
-0.019856011090845057
-0.007347687214195842
-0.023236081778750105
0.029174138808445396
0.06333308238270706
-0.008963664390614188
0.0003533407596255837
-0.025187969311570173
0.0064260920807040775
0.05589895945137473
-0.02492686930367365
-0.055025226768140346
-0.0392858593027114
0.025583947064577145
0.0017145214579153542
-0.01769831795087228
-0.021684814579958484
-0.01703419304398913
0.006386384674547453
0.06946750975431741
-0.011364541129309055
-0.030461820941866405
0.038914567804047145
-0.03759821321052309
-0.03702862352296192
0.015651440300148728
0.008248399249625657
0.0599443888515442
0.049958621916920506
-0.0017747616924785432
0.019690556321598728
0.018187117144334183
-0.085119289252708
-0.0001958636690403448
0.04583553442345235
0.00941929919411145
0.010721876810468944
0.058258774271541226
-0.007537330493482791
-0.07739367991365458
0.02492974914793256
0.007141052043498515
-0.11071290729843625
-0.047241583529516185
-0.006949923156592556
-0.02039400436158596
0.03151492867172071
-0.01082954418888093
-0.02355327370145483
-0.01534598454371146
-0.010012380492358584
0.001284721062895028
-0.013273324346100984
0.009363581817166447
-0.0020627360374090415
0.005106513674857974
0.017124470045631508
0.00010780959932322127
-0.0018758870373649509
-0.02690376526019241
-0.04624249616236387
-0.01118020250500894
-0.012120392692470484
0.027443344054170135
0.0636149413856147
0.017086906608236738
0.027995650622058398
0.0004732851971198094
-0.012719829316132306
0.018011463360021646
-0.05531629838992745
-0.04316563590559907
0.006340434955899333
0.011276885565331496
0.007081443628575037
0.0006556028457499195
0.017079897889137975
0.03995329662084049
0.0355241736786865
-0.02516824417279677
0.17431891686218226
0.13020791880824842
-0.15472314683936986
-0.05248861181804831
0.048737466812756744
0.010146678567264127
-0.008890367110024226
-0.07657722553167018
-0.0696685837461742
0.06410963305228858
-0.00993140630494599
-0.006091894052328622
-0.06309109598113494
-0.026378220165876112
-0.010785278848225872
-0.015326384627921172
0.0026313269986019904
0.0209699177459776
0.052923960691209006
0.005904787841253685
-0.04147620540077523
0.02549881067397483
-0.06531883641651247
0.054110254262383604
0.13649160706510166
-0.10007571614559349
-0.013954541821518614
0.016965007475549916
0.020749920250281016
-0.017387758077731012
0.01989514677353641
-0.0052536149513854975
-0.005273446540654177
0.010505723958266402
-0.012841617112907088
0.008338640093827778
0.029777736814848143
0.02989884127040597
0.031983155273046654
-0.037753843572892326
0.0002613233720388176
-0.030807484315989637
-0.043302606340976234
-0.01911122999990284
-0.0065257728704082385
-0.026304108153515488
0.018824107398470007
-0.04340004917802952
0.0015891128506663795
-0.015339313304944315
-0.012869129411343376
0.0028717101821640603
0.02405414159550384
-0.031217868709822634
-0.06037673531719638
0.004972664750459721
9.342484304981045e-05
0.01819990510617953
0.031758463626574314
0.04118222411010199
0.12839545876939198
0.1335121404605613
-0.0007707482013158713
-0.05017009897121779
-0.0018154222459389655
0.01573889357167347
0.05913573559325601
-0.013728180389032183
-0.09198067421857399
0.0035849067503760214
0.010284073248633412
0.06334785889436421
0.008561206752709919
-0.007774023121851955
-0.0059876015179389334
0.005003225911918387
0.0034133614912165394
-0.00031759206547776015
-0.08641069793577888
0.02675615821443949
-0.17570156902362913
-0.11760596677797379
0.05299598846965875
-0.08343949057436884
-0.0368765416998053
-0.007862655430519831
-0.024247817017299254
1.043522313532285e-05
-0.023268886528931592
-0.02029340123410224
0.02212201452872691
-0.016846645560231098
0.24105488127652192
0.047636417565569335
-0.05830297860521294
-0.05842853629940808
-0.09113782743084611
-0.026731702477222223
-0.01934028211479365
0.028236987429715133
0.013627748267726347
-0.003609764565729448
0.01151490965548235
-0.12478943218172273
0.0962675037070874
0.19045914806777808
-0.04534188178466645
0.00804430079067505
0.025095561786886517
0.006210282139203515
0.09703862230337994
0.11584401554244762
0.006906140739922825
-0.021141527555456993
-0.00720011330677134
0.0566845566899793
0.009549657919915137
-0.011306787194269623
-0.033535490602686
-0.004042823000371674
-0.023133860416039105
0.01726914555952092
-0.030025302523548975
-0.035620410705705007
-0.017225111724532734
0.026762783573634968
-0.014228258991251873
0.028923070900120855
-0.0038064080583641788
0.10864292294660442
-0.06686187402248342
-0.10894441369441242
-0.012381635736648555
-0.06630670402834542
0.028921999381248814
0.0007858043536800292
-0.007252227353622428
-0.03521542477228223
-0.00801875715346271
-0.022370039439375787
-0.07259309772805937
-0.009173714878192137
0.026862682104131758
-0.01797965577244465
0.01854548791442012
-0.0587887258599318
0.023881466482025673
0.05468390345094791
0.08139350717371961
-0.03233729136513572
0.09100645488258198
0.015774769582416054
0.05284108377140376
0.08657163095311739
-0.03354553896800356
0.009262794637286497
-0.019840491907505003
0.03290583736709716
-0.007089859488240278
-0.01647875923910763
-0.009248285653019613
0.05227749382961796
-0.05893005637032449
-0.017729107604618616
0.07570343073198868
-0.024646174341465103
-0.014141295826486901
-0.01135756389176878
0.04010330702102291
0.03781606602216428
-0.07689638611056186
-0.07879381443966367
-0.013468009162943164
-0.03813967053797012
0.01789654565379944
-0.09779747166395635
1.926197479363938e-05
-0.01733567678905689
-0.01137121656102796
-0.04543825171976827
0.1286829696492147
0.051594007619680936
-0.040834627504999985
0.012534034920973188
0.06404230849138808
-0.004241782485865511
-0.003728155862773137
-0.0442689849184504
-0.015441135544994555
-0.019810626660257433
0.01356020194925986
-0.03361909896340435
0.05170437548662005
-0.1570030890905669
-0.17684147027753608
0.04076797105077348
0.018788404483288702
0.014604785704237884
0.015412382802504194
0.005319446067031698
0.07593863054916268
0.1581898485196944
-0.0072574799674970155
