0
-0.021125321448018097
0.0045412973826301824
-0.011047289067766475
0.0018595648889591207
0.03598968898548903
-0.011739834788994605
0.06210066101960142
0.03275778547954873
-0.05257031366266081
-0.0349741258878211
-0.04913945488620553
0.015375252097466392
0.010333337978313397
-0.017670314111634396
0.03673423281668787
0.01947422847133525
0.008783219609568694
-0.0024439209900458648
-0.02055916545806632
0.03511183456358439
-0.0037604117061754267
-0.0258112986520492
-0.0016025507124608539
0.016744945767627816
-0.04061649602708003
0.008601072864191239
-0.07747188060177941
-0.1810345618965309
0.125303553357189
0.018722781589839185
0.0020472583210511862
-0.0353052585281728
0.016720307408684517
-0.01592087321881298
0.20163926215988523
0.03985504980814398
-0.03764896084587385
0.01600450213005352
7.799326593116813e-05
0.02979817878293181
-0.015382582782863875
-0.015887551552604316
0.006758625378487879
-0.025238574941186746
9.296747522067903e-05
-0.014749017215198452
0.0362164383490112
-0.09292695837504325
-0.019065016163824274
0.06605854481774152
0.004885012233063325
0.0423359997744504
0.008052696857746858
-0.014573094585791181
-0.01748280846538718
-0.005349934057671083
0.015088166895007193
-0.005613817874032925
-0.013059028671343089
-0.03428576653036074
0.012948815669188285
0.004150017138164149
0.00342214563425201
0.019189789586080537
-0.01812498444155473
-0.02555168963430839
-0.04169598985216878
0.0126933524291241
0.05635413982592035
-0.03793337322066043
-0.04404408562522286
-0.003586858630361625
-0.007529705583427708
-0.026440385653922368
0.014615888215149003
0.04753446184561909
-0.05960311697791664
0.05496982219649484
0.11517782855679948
-0.036190436552409784
-0.006299650859350004
-0.016612722228574763
0.027054373732625942
0.01304496723316291
0.002812137861032683
-0.037430799603588236
-0.02192511733920051
0.006551541202703917
0.001858015512043918
0.015989894904481425
0.014338038881368823
0.016822530392407366
-0.009157572001026472
-0.01840033354053104
-0.0014676318097090436
0.06543015681647531
-0.00486048484240793
0.00034611939402679636
-0.012509378300731918
-0.030834730380410305
-0.012501909064451922
-0.01057464540306447
-0.03367944115034206
-0.10461711047344785
-0.03345422358499813
-0.09753030262375605
0.05305077265091297
0.006716398818511398
-0.026561666718459744
-0.01126184261184175
-0.021825811255963744
0.01647277091900157
0.10012403520419799
0.032188972698351984
0.011154006919042553
-0.0036819190784096135
-0.012310423522028864
0.0078822605312626
0.013564989704526638
0.044648961890794085
0.016756099524360014
0.017454360442198395
-0.0034604773932491416
-0.013933754021527677
-0.029929701355909773
-0.0028167250397838975
0.005046109862929848
0.0017167719362943456
0.07168757432660634
-0.028359862944105245
-0.008119837728508049
0.046865951412877464
0.07303024300224643
0.01764393244802886
0.023203935744910247
-0.028302130064816244
-0.05260026387874167
-0.007212395553536923
-0.005555201944134059
0.005222098307871208
0.0005050038046901244
0.0065793699557311494
-0.025545360253210518
-0.011631356744673589
0.0026506640711721095
0.014164686280464515
-0.026004130910692737
-0.001067012197661834
0.010460567556685788
0.016455151646897308
0.07271202950580288
-0.015974290043042787
0.008514401519193159
-0.05257184166858579
0.0007804689374448363
0.013555850316904388
-0.01827384451855352
-0.021728366341225568
-0.012533666489535831
0.02041207437567043
-0.02167668955321392
-0.03765128559204347
-0.03135363421495632
-0.0009672999289818966
-0.036453128074576804
0.014818608923623586
0.0553889560267222
0.04345459342030837
-0.10622281068898563
-0.019791687761328107
0.01156195974905677
0.017149097446519865
0.015145527541779273
-0.01934289923365175
0.020007540810108523
-0.025550776898534987
-0.011568214274164322
0.047203565351514376
0.015435517552336906
0.0063753981367966825
0.019062054278670068
-0.0016362624621378173
-0.01735774454024788
0.004445164995365719
0.017655227065353732
-0.00920949277306584
0.020156910243277884
0.019055689782555153
-0.017941211520341564
-0.018052594380056897
0.06828764918596686
0.038333726574899654
-0.02560980052080338
-0.02048566645687738
-0.03884506996545098
-0.040552572424059075
-0.03044212371885719
-0.024502015893385947
0.022047345860015
0.03154952595029813
0.00558221412463573
-0.023504968895441805
-0.013234245563691334
-0.0060562408451055455
0.024894629197303446
-0.05575450844377933
0.1613829554544701
0.06697379436592472
-0.018302713143240994
0.004597628699428679
0.006243686487193713
-0.1639095638746402
-0.08332102048560866
0.02777808046445589
-0.006827884365872181
0.03561987418243945
-0.002927133204047934
0.016031022596596278
-0.0090678117536627
-0.009895481745720228
-0.013611984730293908
0.026198840965193277
-0.015179900443857955
0.029571952864046194
0.0019188257358420684
0.04278557734744311
-0.04307071715616489
0.0055519749326845445
0.07492351118859687
-0.030275154826025646
-0.006165837382460797
-0.009731902305284182
-0.0008648673179731241
0.026701573775210492
-0.009635453581413583
-0.024458157973569535
-0.0246266758680259
0.0013590893724985897
0.004312244818413685
-0.023838638105642445
-0.0246570640336995
-0.018997016287027428
0.004158219684970787
0.005311795404261668
0.005478524128186504
0.014747671745909196
0.01589008567674915
0.023741057788849995
0.037059894462119256
0.0004326550910093937
0.05403902934798781
0.01938307263572967
-0.027007566652059504
-0.021107652693244362
-0.025611189412199174
0.04268746542328177
0.006718659574057021
0.002795660357654537
-0.003005854642735443
-0.009380384177477781
-0.0035515331008339353
-0.009471862301496823
-0.003960046227104313
0.02464907559878845
0.02341669239362745
0.019115909091161776
0.0029374502611264255
0.03605188366821404
-0.0437720472294556
-0.03940484383685487
-0.020943888606071808
-0.00561945525385149
0.0381685621021524
-0.0010588718605255433
0.008745371609805137
-0.017471645050612786
0.019254374552534287
-0.001033675866262519
-0.0011901816565790333
-0.02284519401145964
-0.032372724369688854
0.02902982886029889
0.0005572225000534275
0.013874443109337156
0.011833094594108487
-0.04047962003160669
-0.030674252625393434
-0.0022058608413786126
-0.008311521221107655
-0.07992021217199734
0.061592605693417304
0.0475784711637581
-0.012928495945343371
-0.011197489486486833
-0.005587634646273391
-0.14996924014310198
-0.008598798904566777
-0.01546450711647116
-0.032378944562891906
-0.003930565172855768
-0.016840412670075654
-0.01164507194570119
-0.014151662103601862
0.0034956627131707725
0.030331384079948415
0.027879146167853457
-0.029273407255553982
0.02000831309494627
0.023713070854687802
0.030969704882006576
0.1895328584883447
0.006144636324703601
0.023838398074753783
0.023126795434009834
-0.015163543983042902
0.0008479845075467882
0.07179274085993144
-0.013650717264439118
-0.029376826496977877
-0.030027514685861456
0.003675745401674575
-0.06724231707251214
-0.11255925165534059
0.051012728226723744
-0.011796255334630391
0.020720998208101436
-0.0033112010867026318
-0.0021897850338397254
-0.08857954792662756
0.03473915680205103
0.08410544290744532
0.0089462407277432
0.051474208231613375
0.10292284907977285
0.05191593542971468
-0.020707689427790544
-0.021582647307533117
0.0018494986566305917
-0.026042661700101603
-0.011272612687850507
0.0172421798440309
-0.026782716784259458
-0.005697297471112258
-0.006738961815400234
-0.015646963180837685
-0.03058922575498402
-0.004401800155939424
0.026811122874679415
0.017855258701305048
0.010225052966306205
0.026920943188006315
0.004662513052966327
-0.009719478395456628
-0.016406917015268068
-0.08211171920550735
-0.06165284554679079
-0.038440379121950356
0.013341462635786951
-0.011371245577746334
-0.04177902111752757
-0.0006954289143287982
0.08229244198492344
0.00729400949871312
0.006415929328056987
0.03551998950052796
-0.07972620661841318
-0.010899894734320618
-0.03816240539981729
0.0028837658559646377
0.024476594369803536
0.015711815183426018
-0.04876200860018445
-0.014208385713426338
-0.1159307404700744
0.07333016746852712
0.15581274453305854
-0.003369007004610181
-0.019090386752741745
-0.0014282361788585354
-0.0020373152002097533
-0.014493869068484511
0.01252405332337133
0.051077809324625224
0.07784432134581573
0.01243044356514224
-0.023000573943720175
-0.003452634741768006
0.009293025150577455
0.0004539843524744408
-0.018097485948848205
0.001231685542059985
-0.03054167917013664
-0.11220016295610193
0.023625445467187305
-0.0248661323051994
-0.0516658867135341
-0.020255831645838062
0.045103425621346574
0.01268818460704026
0.018518022305497806
-0.0014688199122366125
-0.008863054993462818
0.006682621285198812
0.04290931215278203
0.03562477810157725
-0.025673228192197205
-0.017432378457566393
0.006347315386537424
0.13745304440083073
-0.02878125279144921
0.06432700668817172
0.015215779747106334
-0.04179215171149112
-0.007222868932559222
-0.0477183364979527
0.0045895495776082955
0.012088097376506214
0.0746912399078445
0.00935950963432514
-0.028929759880015945
-0.033141035644745215
0.00014010053421780865
-0.018557153678565988
-0.023963220034393745
-0.014620672126660024
-0.020488109083711247
-0.010116203596951189
-0.024535212033965224
-0.02192066467807563
-0.06540920877728171
-0.019505431300705298
0.0047012995207697155
-0.007718752967439142
0.011806749643834014
0.007183879501785468
0.0009011016944359817
-0.026256149765603923
0.06970527756156386
0.013484334906514583
-0.037628018186198264
-0.007222603254871124
0.11018052560604571
0.10810668166214851
0.0207557936649036
-0.06617742225260474
-0.06756629777682509
0.03561082732294653
-0.021711780902612332
0.015942791997916667
0.04566307239110366
0.0057002713163315484
-0.005954218003239572
0.0066080391146149196
-0.010435385073616668
0.042268932954950204
-0.025545992764038905
-0.044814552816326014
-0.03077464344328605
0.005582517874184095
0.009071808326703366
0.003212098504928891
0.006348004289905729
0.022257217808064063
-0.055878690766904354
0.006636353875785406
0.009602209718351278
-0.029244816425311446
-0.013271500903602107
0.012787970879103387
-0.042060989782544536
-0.01225221546288432
0.01983069324685788
-0.02472444012915724
0.012642702601468308
0.023112029775641817
0.022188213249505116
-0.011852553966959483
-0.020661683716071088
-0.010328144395814082
-0.0045761915027505255
0.040590056991444974
-0.0151275748552476
0.014256797617387157
0.014924536100680414
-0.018748291515115468
-0.007802635184048441
0.019705162290220648
-0.004074034162749476
-0.030107760028475202
0.012880702683599329
-0.01459760471846707
-0.018554148126119933
-0.012979473541900157
0.011345895335491216
0.02438695572027588
0.03463931400157655
0.012748091904292255
-0.008072067417165443
-0.006882407375313877
0.004824452754458693
-0.02895420114240048
-0.006339354127693949
0.06665972916245053
0.01160395444946126
0.020954738057433326
-0.05334747212877692
-0.06615881193694469
0.016816416101026938
0.0014661323998718726
0.007189118219426702
0.02293112584477141
-0.012592089807871845
-0.020612016860494603
-0.003176195227854979
-0.02787473289100652
0.0048631249627052705
0.016949559296002902
0.0012228342452353302
-0.0148321020229872
0.02597483976076138
0.01097217582696385
-0.015664703299523294
0.004169551183625399
0.024369627570283076
0.0035477945347358653
0.025976517857640057
0.04613177379035538
0.017567831969869347
0.025783900030632922
-0.01962164381786826
-0.0032962047422671254
0.019009332846216736
0.01647598204454312
0.012003564504800349
-0.021027610453601863
-0.016494310858380667
0.030002448124490932
0.006445951253265114
-0.12403669411302319
-0.009298150766391285
0.04645532473963056
-0.0037885963436369674
-0.004983581129756714
-0.0023410283816583314
0.0038416319980903195
-0.019502711405805135
-0.0029090497744873873
-0.0196117914073064
0.015277348190461185
0.005701064289546021
-0.026883244039120673
-0.02437312101742283
0.005606218801415846
0.039319344201519175
-0.013472104922778417
-0.0737243224159387
-0.007752842597333486
0.00011092383121661784
0.04230841116940205
0.029922269645908002
-0.001563747674582715
-0.031048433889178394
0.015830914426559102
-0.0027219011982616485
0.023423307934994864
0.042922034113669655
-0.026206945652933977
-0.02415777588526147
0.05445493091462893
-0.009843683650729485
-0.008120574751533952
-0.006589914906016994
-0.04348668652301528
0.031743789177964554
-0.00391460546355293
-0.028073046882045625
0.003633525340985177
-0.03769584154507934
0.006538370182917529
-0.004833830127070914
-0.01672480187277356
-0.03054376370144881
0.02978054465856801
0.0635934243614473
-0.011054790262092358
-0.029582497423808543
-0.005857452307022901
-0.018857164147884596
-0.021510311378652655
0.022504178857795945
0.03923432101902927
-0.02852201789043573
0.03158735093461503
0.07652814029233977
0.030223146434137642
0.02198704985447711
-0.009581878294457533
-0.014013092303631467
0.003469372620230578
-0.01569693651553722
0.019104773117132632
-0.00723874300256426
-0.0036135673316100916
-0.04841614074832895
-0.010815229505187733
0.05778309451590438
0.012565022973381065
-0.028932150024699583
-0.0546943217471663
-0.06536107025275949
-0.022593540563667608
0.008360139117369627
-0.012360888898107089
0.00034281683539888106
0.009596351182436689
0.010505926528576176
0.01910799021411472
0.00011057482298563193
0.07752755981419748
-0.010559576673254599
-0.022363204736299564
0.03350132977695564
0.023793249451810473
-0.025403317759660256
-0.01457565361415546
-0.033975042616287296
-0.01856935627632536
-0.011763523994340093
0.012682370178257204
-0.020206291663690517
-0.00830077831518526
-0.02298704514872017
0.09233911633093986
0.07999992622803427
-0.009907778741755831
-0.045370344025025836
-0.01738473196480126
0.09903828790344942
-0.03256143904749599
-0.04200413223194137
-0.06926586092866681
0.07576381915794433
-0.005539347085735034
-0.008491423670241123
0.02868070204200486
0.026017054216553752
-0.008237701043972473
-0.004572502138278428
0.0007798753650092127
-0.011124404648189704
0.0069035962690759765
-0.0005164376289422667
0.006020559049408941
-0.005359244549340285
0.020847168679172644
0.027296036924193814
-0.07324781398911691
-0.017992996636408572
-0.002165274630805494
-0.06594148314853704
-0.031350124152748314
0.004680189227494569
0.007493759133355246
0.03379900818657844
-0.001732458673776833
0.15554261666633262
-0.007016803588407201
-0.011347294004111138
0.011762462705828277
0.021631559318321843
-0.01452750031542712
-0.006830277874265073
-6.856297746298722e-05
0.03883259992090806
-0.06655916481263699
-0.1143047720891583
0.03741225473475875
-0.010171505906791492
-0.016329785198084992
0.02209808731290166
0.026964173859133283
0.03143963244276715
-0.07002808224901418
-0.0467193185342263
0.021257135005202196
0.00034868603683935753
-0.02017464412019373
-0.0018117059747983068
0.002727979762778049
0.005655025648348431
-0.01361565588592768
0.008034295608616631
0.010086432456975275
0.02368342816424212
0.01848772233913502
-0.014898769547221566
0.012612723361398355
0.03711426988622015
0.030672431589198655
0.016427322022204847
0.039418720917755876
0.01695621016471882
0.015272120069521763
-0.05157170812229548
-0.026823095063659107
-0.035610954290763566
-0.05755424241419093
-0.03912039335593832
0.0125991051470672
0.0012089629747648453
-0.03467078689941426
-0.003547138420970702
0.03472667119576666
0.014197826747358209
0.019587961396152376
0.02107961057431639
-0.008845364685678626
0.012015440627804632
-0.01983598082502956
0.017592640461379636
0.03070305591195449
-0.011747128377636673
-0.026352037867424412
0.010601864278774518
0.002626004647161997
-0.014628219353219417
-0.06974464446354213
-0.014550090901299636
-0.007006472546076768
0.02798983141587974
0.02464198283446163
-0.011529357719430755
0.017389988839293973
0.022166482154433058
-0.007588020523368968
0.009836854909533146
-0.003910093040256426
0.004042955849367781
0.009042460803131126
0.004768309662468644
0.030662289202147253
-0.0011253938083261787
0.008740344460640523
0.04004895705678561
0.022265247319066078
-0.04694218846836582
0.020473709837358803
0.020943357361541664
-0.009989827170884953
0.0023849885750544322
0.03751065089568907
-0.06849061778642289
-0.08401955001924404
0.031390943220299464
-0.0021956650360638774
0.0011500726598543483
-0.02085171043278179
0.03561552215671279
-0.00775452247623299
-0.021512700646817477
-0.03529547196915548
-0.02299707479393293
-0.02467264282402441
-0.012726779622060024
-0.0012417907971645228
-0.040242347301092996
0.01941667766721523
-0.02494931139829808
-0.005155523568647846
-0.0014541210207795802
0.015173518980542785
0.0256005392986705
0.020669112750649064
-0.029237400877516227
-0.007465031270828426
0.023330324394309227
0.058141882397112675
0.006894508870289365
0.0006739443228099179
0.02748944034445638
0.023772406518450178
0.0031978268774534367
0.01056389226858818
-0.0006754858708358793
-0.016278428538333244
0.02626868958272636
0.13453537193416723
0.0014119126578955592
-0.02986922167161293
-0.0010531852846247746
0.03359947264316607
-0.010983242729543359
-0.004247469565183881
-0.002983786701634378
-0.016340790519173736
0.0010103103378861
0.0089823884738358
-0.018065793141980455
-0.033949105922892485
-0.0312961313747066
-0.007247451616513979
-0.06436562145797495
-0.02167444294954711
0.011626726960576012
-0.007911296171514615
0.0019793160632119245
0.08315797837231362
0.042526518959990385
-0.038651315832906596
-0.012758567895684612
-0.031466468677009085
0.022421935544996708
-0.03399673405172993
-0.03133961551630558
0.016601031638374324
-0.009460895628307134
0.010658303831489423
-0.00699327358375886
-0.03756611685965039
-0.030132126890347184
-0.03721755627875745
-0.04516570199293875
0.11147827816777921
0.11901085353365932
-0.0773750696851991
0.02597644315248439
0.063181145580636
0.027682656156506374
-0.04525450003079014
-0.04590380910023993
-0.03502101965176635
-0.009342781816422124
-0.023937172753405546
0.046918772672566736
-0.019449838797554422
0.047410394944737394
0.0619141710076519
-0.026785871195392746
0.004048890658825158
0.0250756941717591
-0.011125355650765587
-0.01600830094626155
-0.015318862951712335
0.02234551815489938
-0.02423272299758903
-0.051797885677214675
0.021116268987896633
0.018267793451350673
0.011377786178370777
0.06139072244867122
0.01931208618239534
0.008641767422885936
0.015703070837551656
0.05570149153133045
-0.025495191579056338
0.010634889064471529
-0.18931277491058526
-0.09933378948793593
0.027478356573268768
-0.012962043384929015
0.014628325059649932
0.054793755527904206
0.056165576884869874
0.007787766287078755
0.013239380883320037
-0.010949743086204266
-0.00015694550131910634
-0.04436559018553164
-0.04793918274243394
-0.03752524314935145
-0.013464044989342672
0.001176733563522919
0.03680236309088721
0.03693843268188131
0.04186704568547914
-0.013371351574186546
0.004990261189291256
0.0014939040902533418
-0.013143752612870978
-0.013950487288659946
0.006246410292494508
-0.03630339548760784
-0.002389318590698379
-0.0019577082152942606
0.0034939688735761915
-0.04041317541123657
-0.03702409652903981
0.009605223402164841
-0.01961660860628267
-0.02800713756191041
-0.03566232972667806
0.02053017022191074
0.027682592234645413
-0.019142226396244015
0.025063799184082768
0.047566710224694976
-0.02245604433171317
-0.011814856070822801
0.0412451548192933
0.020660700587542585
-0.04398135060070229
0.016907236416320717
0.05170202747750588
-0.018256273108525685
0.0006336123879506597
0.04453265914446263
0.03254896329738747
-0.013434198371037142
-0.054091624727183214
0.11225526291247741
0.14196196161830582
-0.01041882219432649
0.0037887164324367294
-0.03417991387288708
-0.05513084546379638
-0.031154435457919908
-0.014451504607902173
0.028521083282368912
0.08784423432110741
0.0045654456725489345
0.05427848478793356
-0.03139119888528309
-0.03474284467648478
-0.013038324079863162
-0.06500106100810128
-0.02452818462685509
-0.011674637580869226
-0.011427421585502256
-0.025165237163157595
-0.019318300273728682
0.011498270425242634
0.004200714980708752
-0.0014951422871381122
-0.0017628261745055685
-0.01663676698494861
0.006022367843039726
0.0392533984525845
0.023900741926461373
-0.02554961406016036
0.026461327218927373
0.025154387627858432
0.012276736840062493
-0.013795068304170046
-0.012550170248845671
0.01006158524230334
-0.0012045156358801517
-0.03187426718642651
0.0015713235859161029
0.013134864031048788
-0.03530298900177396
0.006839310278131598
-0.01743321724210614
-0.021819994570168998
0.003901201286157807
-0.014989395102157696
-0.11504938367432106
0.011531864984383093
-0.017428838751487506
-0.003138842250986576
-0.051348315238818595
0.10511671507977813
0.10738458236159498
-0.04483680950781993
0.026941763092039047
-0.008362091623409664
-0.002721273574512783
-0.010619288433426449
0.014998268299008185
0.021764089444870693
0.007269548844111988
-0.0500745722684709
0.02148387100829756
0.014152454245548587
0.036023164961714114
0.031203121991211103
-0.0381378208158437
-0.029924414180891562
-0.022038945753001613
-0.004216805190531121
0.0209038264894911
0.01815133611039954
0.0681607570260592
-0.046320766611721347
0.0038489401786556254
0.015366303574770628
-0.006027895824260439
0.008845441362428107
-0.010471212902536473
-0.013524076837508421
0.028744713331317322
-0.0020014743356036643
-0.02265186418418558
-0.025776109503604462
-0.0030489478378638514
0.0025921752474565504
-0.09675895920950559
-0.07262759492544785
0.011415248005437969
-0.03228433899508927
-0.014048471353328401
-0.022268589651594974
-0.0014591039453557529
-0.008417333701156948
0.005745260656527095
0.0281102849489521
0.030768320830331153
-0.007975237350547209
-0.012642525647613595
-0.044324655400744616
0.0111329333671667
-0.013888962104489012
-0.015990530901636334
-0.031221486838559454
-0.007376759293768525
-0.04195197359404461
0.13029686202430962
0.00176473887872342
-0.03415255026434136
0.042475514082856235
0.037537995031625415
-0.01891111709369116
0.16948093706960188
0.11174159206696754
0.11931055917077014
0.06439841386111336
-0.04784987717362824
-0.025227208088284332
-0.03120323631335291
-0.021197280504356163
-0.07345757381805881
-0.028503308135128736
-0.013962880053115431
-0.0004527651732076531
-0.009640037475124484
0.010635025725411435
0.016696088735332276
0.046341169645455385
0.047957095590612106
-0.018413193941339463
0.04029674671454278
0.03251885966750603
0.012336348182809397
0.21356539444185343
-0.12923072609471908
-0.19244708816765163
0.0071590483132305755
-0.03720406992113143
-0.02493412137614881
-0.015426675438970123
-0.01690610852128153
-0.0016293156864280913
-0.01959208671274708
0.010884918566439122
0.047561392276506714
-0.021218066073339335
-0.0226487148832773
-0.05458944819673179
0.06262347730272204
0.006313471356145026
-0.022707568153838436
-0.009633951378859858
0.023819614716302832
-0.0003175147114883803
-0.015625916340379332
-0.027176812781184487
0.051485594501730465
0.05030269602222674
-0.030128356998085474
-0.04150161340360013
-0.022191754939983564
0.048061528535491616
-0.027051168525328257
-0.020804203715929632
0.02779997873667215
-0.016397064485530525
-0.09189307134532465
0.008583853984203181
-0.02737556803041776
-0.014755080714788493
0.006982967866333571
-0.003999311758775534
-0.022310949703525755
-0.044035821352304355
0.06321990941594877
0.028128355351468386
-0.00018289017417610307
-0.005059623281931085
0.0022206366570366692
0.012274035287430419
-0.016067306148218923
-0.01252358156583176
-0.013120098769369402
-0.033865688040207405
0.013241918798532346
-0.009152340839828297
0.06822929495635327
0.010771606652021235
-0.038558466081727964
0.006925941011334465
0.006598725223352863
0.00099113068359047
-0.01567565460159639
-0.008243331900458825
-0.005887723005425905
0.014163488922581697
0.016876565465337258
0.03328407126331782
-0.005747300066011626
0.020094855145520406
0.004235010734977485
-0.0021819917457638555
-0.030197212718172047
-0.0005034780074579341
-0.010048552840582968
-0.0023265986298175337
0.012076238777316442
-0.02385082583523848
-0.017441068915823386
-0.004582226492006938
-0.012018924408098822
0.19320097772909348
0.07837215753388903
0.029757666484984176
0.00794178219036723
0.006145453689172425
0.014940221476865169
0.014879691179325642
-0.022855486394659362
0.028030715308898183
0.025590132430733305
0.0009591792775414737
-0.15600612586782311
-0.05952015423104117
0.013287132627043573
-0.07273865045111239
-0.0034137332780295004
-0.011716970867955638
-0.00220577182306433
-0.016470236631753753
-0.028432740116586638
-0.007669085756075574
0.025916536396739135
0.06233445588269386
0.0862231403347438
-0.04430869381935914
-0.03665792242340904
0.004036791345493579
0.003499076669448215
-0.003319954597676611
-0.004492720456546422
0.03017887596916984
-0.008954729398158185
-0.06318380713213871
0.009336594530896455
-0.009175868244138297
-0.01780003130395038
0.009942641020453766
0.03509997963309041
0.06957130518753626
0.01376617505526854
-0.010432671785072649
0.029058435580110554
-0.022529765597504144
-0.018464829248842397
-0.011419149129765488
-0.010002680745179392
-0.04639851397282379
-0.0281275971468247
-0.02892216170888662
-0.02832716382906565
-0.01573901289377766
0.02119121313540999
-0.009283882087716067
0.017745722562007217
0.043308828979660444
0.018153014201214807
-0.0005340279456199272
0.0017268050150815572
0.009217369330778501
0.004379096682197442
-0.0006643039208885078
-0.030243549855278176
-0.02767744970363525
0.054950764131885495
-0.012779667025764361
-0.03735081204540841
-0.0036851935928277706
0.05165003970366093
0.031119934121885216
0.01960146247440484
-0.06078554261572879
-0.023398032684901256
-0.01094125113638065
-0.006163411073751269
-0.025469692178517637
-0.0071593081109694
-0.0021647241518591236
0.1440091883109387
0.18774989176869492
-0.02579789732441978
-0.04087374907051129
-0.02372073505261417
0.015410352950496496
-0.022073885787914558
-0.047928418551360326
-0.052521477417717205
-0.007722593804697058
-0.04216478699273319
-0.02414255986320893
-0.017684857836547038
0.003373419258805564
-0.0067916103005177106
-0.016335915634819956
-0.04424575869530347
-0.006604093319126832
-0.05783887143343545
-0.06947769118169426
0.0066857058937030665
0.004606706256763939
0.04736810701454673
0.12942286518874122
0.20619561399748168
-0.018933824995202308
-0.04307431300000447
-0.020169305173674764
-0.00584288604591237
-0.010472126660244592
-0.03443341869899779
-0.02920824366202734
-0.02258773918324714
0.008558115821127794
0.012803720971956575
-0.038150215544392685
-0.01731992067173054
-0.0034605191976780397
-0.024341792023222723
-0.025510229657380274
-0.0069663173158694995
-0.030303046523860035
0.18038869778002797
0.11730766153780205
-0.00494817552030116
-0.03598799102750908
-0.09489413928299306
-0.00268620064063234
-0.009490324651113638
0.11179822731655428
0.06806178665011306
0.0007021226849055231
-0.0061917660314762075
0.009898530097488444
-0.01995751316495919
-0.05205297538165583
0.004748769752495264
-0.064568063591958
-0.01304285938964279
0.07879787646560972
-0.015655651431374706
-0.0071005880989387805
0.016308714327912057
-0.017778780175245337
-0.030207967506801985
0.02929424534671646
0.0031214471585019566
0.0034909923698002504
0.023258146965636904
-0.04127554648846215
0.010973828922449202
0.03725927780473962
-0.03805120227540859
-0.005056418183891897
-0.0015842275197607012
0.03789838112722173
-0.0006867290471399073
-0.02509102546058837
0.016825035958623693
-0.07594991031154845
-0.024611735458738702
0.018837689956179633
-0.032253885240466185
-0.021800985565943863
-0.017907766006478885
-0.004669198170432589
-0.0018063637604804617
-0.016836009414093044
0.022010453591104293
0.014324249711859966
0.0198535953447245
-0.0016249816981323323
-0.00973920090997566
0.034565783063426794
-0.06770854145963501
-0.06274750061576108
0.011814934518411407
-0.02930801530383351
-0.061097200660129906
8.036010084784702e-05
0.0117020397241716
-0.022841520273344292
0.07254607086199628
0.04463393023375554
-0.03769416424109485
-0.0076640532831869085
-0.038800223888296084
0.059553555919026044
0.12673094098788473
0.01308464628393805
0.019119874786946413
-0.0011740582221562085
0.034104262889284157
-0.008761528293632748
-0.031330948895840635
0.035097303775861496
0.07647574956100907
0.003071011594748933
-0.05368885507737594
-0.00033815065030488655
0.007448789377037773
-0.010211378784177917
0.0014944728674745375
0.06036701861271044
0.03206600536529364
-0.028553235364369437
0.015096483281847284
0.19471818887643372
0.015030839211578035
-0.04729759126046884
-0.04098454920814529
0.00487620862236962
-0.13410874354396743
-0.0920668595681377
-0.07324899811874822
0.02643989713387524
-0.04512346823344139
-0.10879736181739509
-0.006870856187067073
-0.0011870067304227316
-0.008661805884794602
0.005784309215734716
0.04850223889653041
-0.035089183094315954
-0.029772759001090714
0.0057194066974107696
0.006893879779267346
0.004501179077091495
0.0025012124838211607
0.011288817793137021
0.01166172818222454
0.004331477556246789
-0.03513491025380001
0.03703757901152925
-0.006368380715857891
0.040658103914253604
0.1070400321657027
-0.007148156176198276
0.011267556795036967
-0.02114837595899113
-0.004809241897140926
0.007138773819794269
0.0028464706434406
0.04933560624102789
-0.03215995884117305
-0.11678490002153473
-0.03903245712057776
0.060266721731966746
0.0638259655473632
0.01064668150953574
-0.040224120976442894
-0.02616490554639453
0.022445100288726087
0.012433758975111394
-0.015430467364088072
-0.004933919227470741
0.0019269749944511967
-0.007475410239393333
0.002191538211972863
-0.009374587679859155
0.01921016928719343
0.00276640199647005
0.07107944048696127
0.08122445957057935
-0.003300721019762404
0.026498381727494014
0.06852690939971587
-0.02102941541612918
-0.05295263178436757
0.010564012996339175
0.014968687569021996
0.007282123175986946
0.029826676180747295
0.017020757553066427
0.0344707862356835
0.004251282101678471
0.01986265460921849
-0.028653551529606216
0.002629966425072496
-0.13278432453610023
-0.14653774992949664
0.028503996955064302
-0.0032440604137910435
-0.1705720760187857
-0.006980501306819069
-0.01200929790308816
0.021885939710673267
0.07086937410627574
-0.004078139344617064
0.03127190130355438
0.02806662482307133
0.007700508790496456
-0.010543065782940432
-0.022429217354141117
-0.0020185800269770906
-0.01109810345595999
0.01694565338575267
0.015699964187090066
-0.01235959319564572
-0.00685706068144713
0.03558626780315204
-0.0016532153100414166
-0.009790546813882826
-0.012321306920792488
-0.0028873821686074513
0.024376455317269778
0.012779326956675677
-0.02344767746280599
0.006166279219460895
0.020081818062877226
0.056280471937009864
0.13600767857090548
-0.01188084066934184
-0.01016878783894576
-0.006123374042210655
-0.04093287651280301
-0.01923494631381121
0.01603573153104114
-0.005945962529279371
0.015631052162791495
0.02764023566838519
0.0019416138274629716
0.015681343644863614
0.00804280142152816
-0.19972649053149363
-0.023736415371174442
-0.04867627806575685
-0.04858663564547858
0.033379857424935086
0.036174615296095336
0.004695625969789249
0.01903917102073592
-0.02731076056600976
0.009581510215522225
-0.01732367527218964
0.05958867698905996
0.029613436053667477
-0.0076697617020206315
0.012219615540089615
-0.005008535655079958
0.0077928198987141225
-0.008307180326224302
-0.034400436168749646
0.015158089092633392
0.008476563295491003
-0.0025797661692355707
0.047488909561106046
-0.020454418135571497
0.00895394853651818
-0.011314775497746114
-0.010178255464630413
0.002488252295891532
-0.034469598352357946
-0.003862838536831173
0.0089108944169259
0.012797705401827975
-0.006246894775196549
-0.003867765365170108
-0.05144717112540422
-0.014090138830844109
-0.009946092425776328
0.015283702098533592
0.008423886856892363
0.08553861316451877
0.15489162760347977
0.05362438726166022
-0.007315914119436241
0.01902724102462154
-0.005425042821730728
-0.018664955742294237
0.003150523304052965
-0.02128712284368736
-0.027898481566981874
-0.024840717312897758
-0.019270158202312166
0.03179208787424416
-0.021604599852394126
-0.0005595214957633661
-0.0749619611219422
-0.11257181746019973
-0.01996878780942275
0.09105586053092836
-0.003548141787550128
