0
0.03751065089568907
-0.06849061778642289
-0.08401955001924404
0.031390943220299464
-0.0021956650360638774
0.0011500726598543483
-0.02085171043278179
0.03561552215671279
-0.00775452247623299
-0.021512700646817477
-0.03529547196915548
-0.02299707479393293
-0.02467264282402441
-0.012726779622060024
-0.0012417907971645228
-0.040242347301092996
0.01941667766721523
-0.02494931139829808
-0.005155523568647846
-0.0014541210207795802
0.015173518980542785
0.0256005392986705
0.020669112750649064
-0.029237400877516227
-0.007465031270828426
0.023330324394309227
0.058141882397112675
0.006894508870289365
0.0006739443228099179
0.02748944034445638
0.023772406518450178
0.0031978268774534367
0.01056389226858818
-0.0006754858708358793
-0.016278428538333244
0.02626868958272636
0.13453537193416723
0.0014119126578955592
-0.02986922167161293
-0.0010531852846247746
0.03359947264316607
-0.010983242729543359
-0.004247469565183881
-0.002983786701634378
-0.016340790519173736
0.0010103103378861
0.0089823884738358
-0.018065793141980455
-0.033949105922892485
-0.0312961313747066
-0.007247451616513979
-0.06436562145797495
-0.02167444294954711
0.011626726960576012
-0.007911296171514615
0.0019793160632119245
0.08315797837231362
0.042526518959990385
-0.038651315832906596
-0.012758567895684612
-0.031466468677009085
0.022421935544996708
-0.03399673405172993
-0.03133961551630558
0.016601031638374324
-0.009460895628307134
0.010658303831489423
-0.00699327358375886
-0.03756611685965039
-0.030132126890347184
-0.03721755627875745
-0.04516570199293875
0.11147827816777921
0.11901085353365932
-0.0773750696851991
0.02597644315248439
0.063181145580636
0.027682656156506374
-0.04525450003079014
-0.04590380910023993
-0.03502101965176635
-0.009342781816422124
-0.023937172753405546
0.046918772672566736
-0.019449838797554422
0.047410394944737394
0.0619141710076519
-0.026785871195392746
0.004048890658825158
0.0250756941717591
-0.011125355650765587
-0.01600830094626155
-0.015318862951712335
0.02234551815489938
-0.02423272299758903
-0.051797885677214675
0.021116268987896633
0.018267793451350673
0.011377786178370777
0.06139072244867122
0.01931208618239534
0.008641767422885936
0.015703070837551656
0.05570149153133045
-0.025495191579056338
0.010634889064471529
-0.18931277491058526
-0.09933378948793593
0.027478356573268768
-0.012962043384929015
0.014628325059649932
0.054793755527904206
0.056165576884869874
0.007787766287078755
0.013239380883320037
-0.010949743086204266
-0.00015694550131910634
-0.04436559018553164
-0.04793918274243394
-0.03752524314935145
-0.013464044989342672
0.001176733563522919
0.03680236309088721
0.03693843268188131
0.04186704568547914
-0.013371351574186546
0.004990261189291256
0.0014939040902533418
-0.013143752612870978
-0.013950487288659946
0.006246410292494508
-0.03630339548760784
-0.002389318590698379
-0.0019577082152942606
0.0034939688735761915
-0.04041317541123657
-0.03702409652903981
0.009605223402164841
-0.01961660860628267
-0.02800713756191041
-0.03566232972667806
0.02053017022191074
0.027682592234645413
-0.019142226396244015
0.025063799184082768
0.047566710224694976
-0.02245604433171317
-0.011814856070822801
0.0412451548192933
0.020660700587542585
-0.04398135060070229
0.016907236416320717
0.05170202747750588
-0.018256273108525685
0.0006336123879506597
0.04453265914446263
0.03254896329738747
-0.013434198371037142
-0.054091624727183214
0.11225526291247741
0.14196196161830582
-0.01041882219432649
0.0037887164324367294
-0.03417991387288708
-0.05513084546379638
-0.031154435457919908
-0.014451504607902173
0.028521083282368912
0.08784423432110741
0.0045654456725489345
0.05427848478793356
-0.03139119888528309
-0.03474284467648478
-0.013038324079863162
-0.06500106100810128
-0.02452818462685509
-0.011674637580869226
-0.011427421585502256
-0.025165237163157595
-0.019318300273728682
0.011498270425242634
0.004200714980708752
-0.0014951422871381122
-0.0017628261745055685
-0.01663676698494861
0.006022367843039726
0.0392533984525845
0.023900741926461373
-0.02554961406016036
0.026461327218927373
0.025154387627858432
0.012276736840062493
-0.013795068304170046
-0.012550170248845671
0.01006158524230334
-0.0012045156358801517
-0.03187426718642651
0.0015713235859161029
0.013134864031048788
-0.03530298900177396
0.006839310278131598
-0.01743321724210614
-0.021819994570168998
0.003901201286157807
-0.014989395102157696
-0.11504938367432106
0.011531864984383093
-0.017428838751487506
-0.003138842250986576
-0.051348315238818595
0.10511671507977813
0.10738458236159498
-0.04483680950781993
0.026941763092039047
-0.008362091623409664
-0.002721273574512783
-0.010619288433426449
0.014998268299008185
0.021764089444870693
0.007269548844111988
-0.0500745722684709
0.02148387100829756
0.014152454245548587
0.036023164961714114
0.031203121991211103
-0.0381378208158437
-0.029924414180891562
-0.022038945753001613
-0.004216805190531121
0.0209038264894911
0.01815133611039954
0.0681607570260592
-0.046320766611721347
0.0038489401786556254
0.015366303574770628
-0.006027895824260439
0.008845441362428107
-0.010471212902536473
-0.013524076837508421
0.028744713331317322
-0.0020014743356036643
-0.02265186418418558
-0.025776109503604462
-0.0030489478378638514
0.0025921752474565504
-0.09675895920950559
-0.07262759492544785
0.011415248005437969
-0.03228433899508927
-0.014048471353328401
-0.022268589651594974
-0.0014591039453557529
-0.008417333701156948
0.005745260656527095
0.0281102849489521
0.030768320830331153
-0.007975237350547209
-0.012642525647613595
-0.044324655400744616
0.0111329333671667
-0.013888962104489012
-0.015990530901636334
-0.031221486838559454
-0.007376759293768525
-0.04195197359404461
0.13029686202430962
0.00176473887872342
-0.03415255026434136
0.042475514082856235
0.037537995031625415
-0.01891111709369116
0.16948093706960188
0.11174159206696754
0.11931055917077014
0.06439841386111336
-0.04784987717362824
-0.025227208088284332
-0.03120323631335291
-0.021197280504356163
-0.07345757381805881
-0.028503308135128736
-0.013962880053115431
-0.0004527651732076531
-0.009640037475124484
0.010635025725411435
0.016696088735332276
0.046341169645455385
0.047957095590612106
-0.018413193941339463
0.04029674671454278
0.03251885966750603
0.012336348182809397
0.21356539444185343
-0.12923072609471908
-0.19244708816765163
0.0071590483132305755
-0.03720406992113143
-0.02493412137614881
-0.015426675438970123
-0.01690610852128153
-0.0016293156864280913
-0.01959208671274708
0.010884918566439122
0.047561392276506714
-0.021218066073339335
-0.0226487148832773
-0.05458944819673179
0.06262347730272204
0.006313471356145026
-0.022707568153838436
-0.009633951378859858
0.023819614716302832
-0.0003175147114883803
-0.015625916340379332
-0.027176812781184487
0.051485594501730465
0.05030269602222674
-0.030128356998085474
-0.04150161340360013
-0.022191754939983564
0.048061528535491616
-0.027051168525328257
-0.020804203715929632
0.02779997873667215
-0.016397064485530525
-0.09189307134532465
0.008583853984203181
-0.02737556803041776
-0.014755080714788493
0.006982967866333571
-0.003999311758775534
-0.022310949703525755
-0.044035821352304355
0.06321990941594877
0.028128355351468386
-0.00018289017417610307
-0.005059623281931085
0.0022206366570366692
0.012274035287430419
-0.016067306148218923
-0.01252358156583176
-0.013120098769369402
-0.033865688040207405
0.013241918798532346
-0.009152340839828297
0.06822929495635327
0.010771606652021235
-0.038558466081727964
0.006925941011334465
0.006598725223352863
0.00099113068359047
-0.01567565460159639
-0.008243331900458825
-0.005887723005425905
0.014163488922581697
0.016876565465337258
0.03328407126331782
-0.005747300066011626
0.020094855145520406
0.004235010734977485
-0.0021819917457638555
-0.030197212718172047
-0.0005034780074579341
-0.010048552840582968
-0.0023265986298175337
0.012076238777316442
-0.02385082583523848
-0.017441068915823386
-0.004582226492006938
-0.012018924408098822
0.19320097772909348
0.07837215753388903
0.029757666484984176
0.00794178219036723
0.006145453689172425
0.014940221476865169
0.014879691179325642
-0.022855486394659362
0.028030715308898183
0.025590132430733305
0.0009591792775414737
-0.15600612586782311
-0.05952015423104117
0.013287132627043573
-0.07273865045111239
-0.0034137332780295004
-0.011716970867955638
-0.00220577182306433
-0.016470236631753753
-0.028432740116586638
-0.007669085756075574
0.025916536396739135
0.06233445588269386
0.0862231403347438
-0.04430869381935914
-0.03665792242340904
0.004036791345493579
0.003499076669448215
-0.003319954597676611
-0.004492720456546422
0.03017887596916984
-0.008954729398158185
-0.06318380713213871
0.009336594530896455
-0.009175868244138297
-0.01780003130395038
0.009942641020453766
0.03509997963309041
0.06957130518753626
0.01376617505526854
-0.010432671785072649
0.029058435580110554
-0.022529765597504144
-0.018464829248842397
-0.011419149129765488
-0.010002680745179392
-0.04639851397282379
-0.0281275971468247
-0.02892216170888662
-0.02832716382906565
-0.01573901289377766
0.02119121313540999
-0.009283882087716067
0.017745722562007217
0.043308828979660444
0.018153014201214807
-0.0005340279456199272
0.0017268050150815572
0.009217369330778501
0.004379096682197442
-0.0006643039208885078
-0.030243549855278176
-0.02767744970363525
0.054950764131885495
-0.012779667025764361
-0.03735081204540841
-0.0036851935928277706
0.05165003970366093
0.031119934121885216
0.01960146247440484
-0.06078554261572879
-0.023398032684901256
-0.01094125113638065
-0.006163411073751269
-0.025469692178517637
-0.0071593081109694
-0.0021647241518591236
0.1440091883109387
0.18774989176869492
-0.02579789732441978
-0.04087374907051129
-0.02372073505261417
0.015410352950496496
-0.022073885787914558
-0.047928418551360326
-0.052521477417717205
-0.007722593804697058
-0.04216478699273319
-0.02414255986320893
-0.017684857836547038
0.003373419258805564
-0.0067916103005177106
-0.016335915634819956
-0.04424575869530347
-0.006604093319126832
-0.05783887143343545
-0.06947769118169426
0.0066857058937030665
0.004606706256763939
0.04736810701454673
0.12942286518874122
0.20619561399748168
-0.018933824995202308
-0.04307431300000447
-0.020169305173674764
-0.00584288604591237
-0.010472126660244592
-0.03443341869899779
-0.02920824366202734
-0.02258773918324714
0.008558115821127794
0.012803720971956575
-0.038150215544392685
-0.01731992067173054
-0.0034605191976780397
-0.024341792023222723
-0.025510229657380274
-0.0069663173158694995
-0.030303046523860035
0.18038869778002797
0.11730766153780205
-0.00494817552030116
-0.03598799102750908
-0.09489413928299306
-0.00268620064063234
-0.009490324651113638
0.11179822731655428
0.06806178665011306
0.0007021226849055231
-0.0061917660314762075
0.009898530097488444
-0.01995751316495919
-0.05205297538165583
0.004748769752495264
-0.064568063591958
-0.01304285938964279
0.07879787646560972
-0.015655651431374706
-0.0071005880989387805
0.016308714327912057
-0.017778780175245337
-0.030207967506801985
0.02929424534671646
0.0031214471585019566
0.0034909923698002504
0.023258146965636904
-0.04127554648846215
0.010973828922449202
0.03725927780473962
-0.03805120227540859
-0.005056418183891897
-0.0015842275197607012
0.03789838112722173
-0.0006867290471399073
-0.02509102546058837
0.016825035958623693
-0.07594991031154845
-0.024611735458738702
0.018837689956179633
-0.032253885240466185
-0.021800985565943863
-0.017907766006478885
-0.004669198170432589
-0.0018063637604804617
-0.016836009414093044
0.022010453591104293
0.014324249711859966
0.0198535953447245
-0.0016249816981323323
-0.00973920090997566
0.034565783063426794
-0.06770854145963501
-0.06274750061576108
0.011814934518411407
-0.02930801530383351
-0.061097200660129906
8.036010084784702e-05
0.0117020397241716
-0.022841520273344292
0.07254607086199628
0.04463393023375554
-0.03769416424109485
-0.0076640532831869085
-0.038800223888296084
0.059553555919026044
0.12673094098788473
0.01308464628393805
0.019119874786946413
-0.0011740582221562085
0.034104262889284157
-0.008761528293632748
-0.031330948895840635
0.035097303775861496
0.07647574956100907
0.003071011594748933
-0.05368885507737594
-0.00033815065030488655
0.007448789377037773
-0.010211378784177917
0.0014944728674745375
0.06036701861271044
0.03206600536529364
-0.028553235364369437
0.015096483281847284
0.19471818887643372
0.015030839211578035
-0.04729759126046884
-0.04098454920814529
0.00487620862236962
-0.13410874354396743
-0.0920668595681377
-0.07324899811874822
0.02643989713387524
-0.04512346823344139
-0.10879736181739509
-0.006870856187067073
-0.0011870067304227316
-0.008661805884794602
0.005784309215734716
0.04850223889653041
-0.035089183094315954
-0.029772759001090714
0.0057194066974107696
0.006893879779267346
0.004501179077091495
0.0025012124838211607
0.011288817793137021
0.01166172818222454
0.004331477556246789
-0.03513491025380001
0.03703757901152925
-0.006368380715857891
0.040658103914253604
0.1070400321657027
-0.007148156176198276
0.011267556795036967
-0.02114837595899113
-0.004809241897140926
0.007138773819794269
0.0028464706434406
0.04933560624102789
-0.03215995884117305
-0.11678490002153473
-0.03903245712057776
0.060266721731966746
0.0638259655473632
0.01064668150953574
-0.040224120976442894
-0.02616490554639453
0.022445100288726087
0.012433758975111394
-0.015430467364088072
-0.004933919227470741
0.0019269749944511967
-0.007475410239393333
0.002191538211972863
-0.009374587679859155
0.01921016928719343
0.00276640199647005
0.07107944048696127
0.08122445957057935
-0.003300721019762404
0.026498381727494014
0.06852690939971587
-0.02102941541612918
-0.05295263178436757
0.010564012996339175
0.014968687569021996
0.007282123175986946
0.029826676180747295
0.017020757553066427
0.0344707862356835
0.004251282101678471
0.01986265460921849
-0.028653551529606216
0.002629966425072496
-0.13278432453610023
-0.14653774992949664
0.028503996955064302
-0.0032440604137910435
-0.1705720760187857
-0.006980501306819069
-0.01200929790308816
0.021885939710673267
0.07086937410627574
-0.004078139344617064
0.03127190130355438
0.02806662482307133
0.007700508790496456
-0.010543065782940432
-0.022429217354141117
-0.0020185800269770906
-0.01109810345595999
0.01694565338575267
0.015699964187090066
-0.01235959319564572
-0.00685706068144713
0.03558626780315204
-0.0016532153100414166
-0.009790546813882826
-0.012321306920792488
-0.0028873821686074513
0.024376455317269778
0.012779326956675677
-0.02344767746280599
0.006166279219460895
0.020081818062877226
0.056280471937009864
0.13600767857090548
-0.01188084066934184
-0.01016878783894576
-0.006123374042210655
-0.04093287651280301
-0.01923494631381121
0.01603573153104114
-0.005945962529279371
0.015631052162791495
0.02764023566838519
0.0019416138274629716
0.015681343644863614
0.00804280142152816
-0.19972649053149363
-0.023736415371174442
-0.04867627806575685
-0.04858663564547858
0.033379857424935086
0.036174615296095336
0.004695625969789249
0.01903917102073592
-0.02731076056600976
0.009581510215522225
-0.01732367527218964
0.05958867698905996
0.029613436053667477
-0.0076697617020206315
0.012219615540089615
-0.005008535655079958
0.0077928198987141225
-0.008307180326224302
-0.034400436168749646
0.015158089092633392
0.008476563295491003
-0.0025797661692355707
0.047488909561106046
-0.020454418135571497
0.00895394853651818
-0.011314775497746114
-0.010178255464630413
0.002488252295891532
-0.034469598352357946
-0.003862838536831173
0.0089108944169259
0.012797705401827975
-0.006246894775196549
-0.003867765365170108
-0.05144717112540422
-0.014090138830844109
-0.009946092425776328
0.015283702098533592
0.008423886856892363
0.08553861316451877
0.15489162760347977
0.05362438726166022
-0.007315914119436241
0.01902724102462154
-0.005425042821730728
-0.018664955742294237
0.003150523304052965
-0.02128712284368736
-0.027898481566981874
-0.024840717312897758
-0.019270158202312166
0.03179208787424416
-0.021604599852394126
-0.0005595214957633661
-0.0749619611219422
-0.11257181746019973
-0.01996878780942275
0.09105586053092836
-0.003548141787550128
-0.0030353099520400435
0.13535461826985978
-0.016838501282227213
-0.04682713829737158
-0.161638559432799
0.00484511075955913
-0.02376869544825851
0.04483610542003466
-0.012213888578720843
-0.030324279132602404
-0.11748239101683815
-0.020574927435349603
-0.03468630430213234
0.00244981574819912
-0.00419260080805417
0.03539040755744554
0.09761452382624823
-0.004441507844984079
-0.024053365670240672
-0.018069826293089813
0.14623946566423424
0.041079728942863006
-0.05675040322350181
-0.006357243857849689
-0.04056057359990513
0.007700973704163313
0.0671632744262576
-0.035454168398840295
-0.02119638527366044
-0.0036609607220163937
-0.0012673228000698272
0.0038575833504181914
0.034466084920062055
-0.06007509871093272
0.20768639565319721
0.15300791552802223
-0.040296727594089185
0.0018272683203721584
-0.05857569076158562
0.001952246706848111
-0.019248985649982942
-0.031044415357497836
0.009287448252325565
0.0014283217015017462
-0.018959212773137186
-0.0001008740251598738
0.021438637027848893
0.10357258443013097
-0.02350197637424943
-0.00141274992288597
-0.006703394972304514
0.038462488431587366
0.014136444703791952
0.02004863495428455
-0.0006472776808176021
-0.002290168477319202
-0.04153521612090982
-0.004425223576809116
-0.03382150918171289
0.017783146837894784
0.011214108218014027
-0.056387381144002595
-0.09377334279839512
-0.0068686905568780855
0.0038680668539684666
0.009661556227077832
-0.017924842827317565
0.03008100032558586
0.0017749908830531538
0.005218781076554403
0.009458620951730912
0.020398425682548703
-0.014924896892137263
-0.00397538187534586
-0.006185338497067871
-0.007707743245643523
-0.025051318543172447
-0.025393979435414667
-0.005558809059814218
-0.05522473100559065
-0.01854074255910134
-0.003461664924564366
-0.011145827649174033
-0.01423502386176539
-0.029783836556393738
0.003207077055077492
0.021697050143163647
0.029027649738380408
-0.08282335156907557
-0.02663850393105493
0.018141665290051186
-0.020249204274310918
0.0063570538924924945
0.008779731616502336
0.002616276089086244
0.0038900999135197153
-0.018299377644885793
0.020853835567087645
-0.012327115496873937
0.011439455121568414
0.05525629494034907
0.05104168741464648
0.12207179760851022
0.04328235996032668
-0.022751045902245397
-0.002272956361441883
-0.03277058341195377
-0.06559963585489317
-0.02463449193786816
0.015043180374454256
0.03160263282381442
0.018934064105175463
0.030384356859298585
0.020935802902161134
0.036970163641055605
0.05462858827288006
-0.01676291164666477
-0.014104711669965853
0.0059683914874351365
-0.052482091588812424
-0.0043175522853351215
-0.05406672989280896
-0.04316929251265551
-0.04985775285353491
-0.005123055803593194
0.0257236473473439
-0.03749657148616568
-0.0238665150004723
-0.004436899008776028
-0.022243490989156397
-0.04158010376607665
0.026098190275147627
-0.0125107250954233
-0.04195420987116282
0.007140171268858312
0.034172619915424356
0.032317300294742994
0.022398571375985894
0.05414888656900804
0.0836721045178585
0.011814890567818512
-0.014622186845208924
-0.0061756829425688295
-0.001855453747771522
-0.02158344085656444
-0.03238783985276486
0.002946349779133142
0.08855681761477753
0.031908689906024766
-0.002082649480201046
0.02649045906632493
-0.010227653562858563
0.029558817338099827
0.05870097025793965
-0.07143635069333581
0.03846920067176481
-0.09116541251151504
-0.15551762941155095
0.007374933306173606
-0.014053477020619752
0.008601637622055836
0.014922408816753852
-0.004996772284689115
0.07272159765858842
0.06562904838682487
0.02436484586733628
-0.026396216984356655
0.053266234649685267
0.069171872271109
0.02807859259536459
-0.05287480410535401
-0.02244048233549077
0.007812749731336006
-0.00322689741391705
-0.044343087052939344
0.0004834427048704222
-0.017222582299479736
-0.010643774471746208
-0.0010291722723578987
-0.007593833382709305
0.0034256145877404227
-0.039572350472177026
-0.01387639488536156
-0.02599683480438377
-0.03369892358559331
-0.019919118827021277
-0.051914885770100304
0.0063488876770675644
0.012768206761671348
0.007637162231614987
0.01632074686532494
0.029566869033498734
0.02483220971382678
-0.017006566818804966
-0.0022315399001617054
0.02658527684157066
-0.016130386845950945
-0.06759631041955023
0.030025400381496696
-0.009221566076614665
-0.01436334369968715
-0.023655589724252357
0.015056342777097812
-0.025923690558418637
-0.008344419705188188
0.148030925216649
-0.050944637689631575
-0.0012376161528946336
-0.05439783724987843
0.024337698489646703
0.14258952820063925
-0.030175682070677078
-0.005707528570977531
0.003685881706972144
0.0020238268469885724
0.0022556734192985812
-0.022804119644289772
-0.014069268085827955
0.0061593378476317
-0.04036701791158046
0.01260446373581364
-0.001281982516403648
-0.04820832578732453
-0.001951934739113671
-0.017139678875317955
0.020503123669775466
-0.0010060535433974271
-0.015598943537372963
0.024842702152788564
0.05975840843541788
-0.013070064653159958
0.005719129401006356
0.002391462171731922
0.009089372259956985
-0.004464858522209281
0.010998555826827227
0.09387392774726082
0.03293227243100061
-0.031003530603459083
-0.02071876214589
-0.06626033197431333
-0.026312674955439392
0.03485862536300659
0.035116625791552426
0.006498352426032609
-0.021535683624981792
-0.01212888969800117
-0.00401171004575931
-0.013611051347357668
-0.0015678152564784654
-0.004815619421249528
-0.007177729559369629
-0.002611977314286812
0.009502077568697328
0.010766545765844519
-0.012099470994938735
0.0034495218236917863
0.0026130597528903933
-0.020644666695459956
0.0071367213220563195
0.005614916872795511
-0.009833281791062675
-0.013439109231295338
-0.017462961244672986
0.0011479804612631464
-0.003332535591277848
-0.04642023212602113
-0.030556065844577103
0.01646790688090582
0.020372589697152596
-0.018969480780376746
-0.025713027492473933
0.027803631355712056
0.0408751146414004
0.002474005353381285
0.03132174958583063
0.03133390361385172
-0.0784959194408163
-0.047843729137762844
0.0855908148236027
-0.03557982165712962
0.06057955933426154
0.04493493635695899
0.008294987343375256
-0.02454311194390089
-0.01871339980785474
0.015036209709658393
0.01897014839155509
0.03402927697698323
0.01887935182051311
-0.10408097444430489
-0.05355442942176628
-0.01807718748285756
-0.021588702939471283
0.07998267113299205
0.024098389317367866
-0.03870075418548139
-0.03806302862448652
0.04190014083667035
0.030456607996751883
-0.031483768635652436
0.03744620954546871
-0.03676838545542959
0.022031163576658956
0.002703295909077458
-0.0016087324464229833
-0.00841637382004101
0.03064988270042583
0.01355753427680316
-0.04078177150201946
0.0030531349623859243
0.03507675319366415
0.009086931609831254
-0.0023089392595439023
-0.022058422710798116
0.015887043479723292
0.021093673998381968
-0.035592650867176646
-0.042878343195355856
-0.015024332506797362
-0.017827021556246332
0.012160966281084354
0.04909095077061481
0.043322966590951785
-0.02248510558390739
0.008399621499896653
0.027827141758683772
-0.004823949478935067
-0.02178429591756998
-0.04792605520022991
0.023799813529526693
-0.0159798828423443
-0.008754976648156743
0.03057462948332461
0.01313328007618346
0.009742841857995798
-0.00044319629755508206
0.0237531977420285
-0.022487766027544848
-0.031612922930490346
0.015253557877024251
0.03385572172415106
0.002057750664348487
0.05934366467555751
0.027059055160127615
-0.03637215139285985
-0.03426225028757525
-0.02522157673108524
-0.0015798146992953104
-0.05574455190117716
0.0185069743135073
0.03263740282731309
-0.007051237624947713
0.02189778129058556
0.015811008483516055
0.0011580285496280193
-0.0507433855675226
-0.026731127110720412
0.05445363744763148
0.03326130155560785
-0.06067169043825021
-0.17780598987217497
0.03383566330573079
0.025727681487689582
0.033263463016669825
0.038988546838027084
-0.03185714072676787
-0.025125299511734586
0.019570937940569653
0.01178297197838694
0.012327773515049998
-0.03293720464049016
-0.025586318547107516
0.011882784533814791
-0.016241822843553595
-0.014139405367207
0.010900712038220616
-0.01397323552051109
-0.04064620898230945
0.016085545528964577
0.01474413446287059
0.017917736752110402
0.02435683156422814
0.024228548400238022
-0.004992907903686308
-0.03354925749916025
0.02632177062265818
0.014631756042667615
0.03310259245881749
0.07378806731016443
0.01137724658927344
0.011816808015171253
0.05347931615988649
0.004738146371065574
-0.010857739039404256
-0.022401400314247318
-0.026754839748384263
-0.01027326386413902
-0.0005172797115362137
-0.01058731235323549
0.0401773042499889
0.014875067765686449
-0.003961356348207123
0.001102365083385628
-0.02173877792558552
-0.016100896485005928
-0.021664593239806337
0.006734353277914812
-0.024257531600368157
0.026628982343267733
0.0460618275936983
-0.004646464182833634
-0.013157089007088283
-0.007364597872890261
-0.08012419873721568
-0.03638788274245553
-0.02373265899617096
-0.013594779694078641
0.029656447743830767
-0.0023275385018004654
0.051100811590150036
0.05022295488204469
-0.0016381159774367822
-0.02884619407476086
-0.017100349806880338
-0.0030917363859660836
0.005630282589597379
0.01811825976835315
-0.036409362024906876
-0.02260692587203376
-0.012174668932847072
-0.012279233529674888
-0.10433491117667221
0.020913569571391673
0.0463325880477007
0.010125331508278657
-0.004924068955656348
0.0016811247261646826
0.005979814830992461
-0.013706457631804324
-0.03356630003213377
-0.023008561091719552
0.04431312135591474
-0.0033063090938853417
0.007394503116538355
-0.022544464912480473
0.006109095448145902
0.09511218309112039
0.09471203400574703
0.16855659916370389
-0.032083782373466735
-0.02213033171819883
-0.01504970739716095
0.0337094805932676
-0.0726660991278942
-0.15194517009650396
0.018127929697414124
-0.021109515343335477
0.013273738067378402
-0.06867775008110272
-0.05295694840014331
-0.028501342464667026
0.00034907331122012127
0.030987345535515784
-0.009916095130468903
-0.029134108591137346
0.013076449608647329
-0.014779411470693497
-0.00012129187402783333
-0.0008976120323040249
0.09913292941885474
0.210075324198013
0.00893457198315336
0.004300022522107912
-0.030985175328249487
-0.04772922024230154
0.03128592521046558
0.025439495746132332
-0.025548454382546576
0.003920639243093543
0.0022431818842307215
-0.028769703238663766
-0.06660536843655757
0.027345684246547104
-0.032140990100276295
-0.03291229311383288
0.049540208947713806
0.010070400284073584
0.003210126916217034
0.02663557389953801
-0.03833488914175436
-0.02681855298948809
0.06980509840310967
0.019763862434395953
0.033783490821506175
0.12995495629059448
-0.007347681034924112
-0.0045750541813118556
0.00731377336688708
0.04731388660074967
-0.06805008210472467
-0.1118662081285975
-0.08629102875333691
-0.04295714824652777
0.014680510375646586
0.0019439559096931156
0.024838616670602463
-0.04651342717564605
0.037202420881395803
0.027678377936949678
0.06234931090825444
-0.005624525497634625
0.00352826729966842
-0.06929804411513392
-0.030547795519414393
-0.04344416404086841
-0.1835365706474448
0.028052364927606863
-0.0007879503708988242
-0.010283849748334194
0.014139665791220165
0.05051602139107469
0.052732988994019396
-0.026094736504990397
0.052738627432555835
0.03777138788289449
-0.0016736808395685307
0.0076406161484224855
0.010413417986260507
-0.026001204471667254
-0.02188561192533233
0.01654606453778959
-0.005520659436368944
0.0272103146580304
0.004061544562161145
0.006527486797338983
0.02535346028184421
-0.009087188497203299
0.02709712106407276
0.034595609395352854
-0.12252281627705505
-0.009699382481367841
-0.019137864859380172
0.07304179478292594
0.03321278420224765
-0.03404399274975724
0.007376172168982524
0.017462446085543145
0.04526046381737756
-0.006705048640262634
-0.03250630906527055
-0.04014202182681068
-0.025481775942098304
0.01272617602773128
0.03168370174106773
-0.00923839344571461
-0.0405643651059264
0.03424118533999502
0.007306007039902334
0.021763486099747684
0.005672294939740301
-0.013706520401931783
-0.03607326177191616
-0.00032912843275768286
0.03415569771212697
-0.011388015857602825
-0.005951685688377939
0.03315658384633071
-0.02241200627560443
-0.01352524788969592
-0.015454864797636607
0.01307755884893044
0.0031067570098809835
-0.0471056989347763
-0.024408672525681414
0.023400735204301526
0.011823118772897188
-0.017536604059090948
-0.009743143762275749
0.03376540741636813
0.049426833722397936
-0.02398625963898424
-0.03326424513778193
-0.0029498416633831305
0.008576548597413908
0.022650291624579315
-0.0005195380869688749
-0.022944537955814984
-0.046513709709159766
0.04035662712393814
0.0978394604838943
-0.027264386111179373
-0.03875598037991774
-0.0011890721568099988
0.020284859261276423
-0.047979584082132584
0.013538486169874658
0.17103226837542063
0.07817245421768941
-0.03561224849054741
-0.004270198980166168
-0.024653357442745983
0.012750510429796712
-0.007803378766856474
-0.03766949697999941
-0.036395007063762454
0.02639900553663881
-0.07573680183742001
-0.03696667636935511
-0.030369942807841204
-0.07715729380837728
0.01653518131853663
0.009414316268407491
0.04148926863666401
0.0051863157795214625
0.0025196361341597233
-0.01343251101523155
0.0009499476732356902
-0.002669827385057176
-0.004836624631286509
0.08839340788585048
0.099677825160435
-0.022365296135261385
-0.034882975673449494
0.010932935139691347
0.005585393865965151
0.015663885455520856
-0.013332307506500751
-0.020275086932551364
0.014057093238608069
-0.061649030545374905
-0.010100767945054963
-0.019331909954222258
-0.02794066903405146
-0.006302805382967388
-0.012577366188943936
-0.019816672873397844
0.016600614870237375
0.0291360677352078
-0.04064276482486062
0.01867245616189671
0.05137546132464726
0.012036809929203994
-0.024374266095870265
-0.03191939430884181
-0.040132704521533495
0.013550406682089459
0.048156129905971665
-0.009143852242283293
-0.0022795375298148477
-0.004701636115387803
0.013657036779445877
-0.025250517430445766
-0.0013033108815008372
-0.023503678351711032
-0.014723015400603874
-0.022411971273229563
-0.00374650394575306
0.006320530866180908
0.005106810803157086
-0.02268847796176476
0.044259894161436004
0.18287083546441402
0.06477946744352399
-0.032171753691083965
-0.06761153728546568
-0.02056425232443824
0.0028769765086412895
-0.007528736138556496
0.010103919949340458
-0.0045950601634974575
-0.02258252180014422
0.01034438822117947
0.017718267603142535
-0.027023702339659242
-0.006499086078396863
-0.04133508085719773
-0.023082952888181164
-0.01842619940580879
-0.021903166250133953
0.07540542895214307
0.13221772764129916
0.028626037413794485
0.013907707771598207
-0.01691113608803781
0.01875715318266615
-0.017546603144000587
-0.18182241220972603
-0.03417157218388037
0.05291899724026954
0.009788786144974294
-0.03828975887469553
0.004840209291082613
-0.0017699856582291773
0.009816213593237508
-0.0012013556558186232
-0.020425389458329293
0.013644495367776226
-0.0002840561767869232
-0.018788066759702068
0.03072209915243932
0.004879122012918175
-0.00956502290390954
0.025913954345475974
0.013834443178213885
-0.024346580892553954
-0.025713904651211837
0.012258851417916975
0.005760856945871412
-0.0017167070212227413
-0.012510034654824179
0.045794240015843604
0.01924863043763238
0.00607759167832237
0.021703104554847183
0.010742464711629181
-0.0022273818343855846
-0.05634088494601509
-0.017199626043905306
0.02471059476683148
0.028052963178613517
0.04916166910028505
0.009492833851348732
0.019675950280252177
-0.012509859205564139
0.007865621320580923
-0.021780828296058558
0.008767305052631711
-0.06392206472356701
-0.04492665112399622
0.024402081835821224
0.002234088073700844
-0.02723528139519017
0.02659385700918198
0.003642670907938237
0.012032924147882219
0.0027122228342282
-0.04080166349059513
0.006234566941746408
0.02642330828045892
0.045904435307180566
0.00334761743984866
0.0003130576900353458
-0.028730433820924866
-0.023770918241231162
0.0024924022158527865
-0.010745674293534116
0.016053419582509273
-0.0163443677424083
-0.04607068342488016
