0
-0.003396382734621433
0.01311938245585377
-0.004678325290284772
-0.004345303161304884
0.02409406952244638
0.027775635129284555
0.004995388229836967
0.16534150539223672
0.032665147233277333
-0.06772650036955777
0.01669944706304554
-0.052906117679765934
0.026378978560215812
0.07184002890853682
-0.038454571543182825
0.16752102861051
-0.014358966151550542
-0.023671891209585436
-0.04480714692439374
0.02274724784267852
-0.02938863048274786
-0.04496251736762926
0.07365068705349374
0.009205710949108738
-0.00822350297009287
-0.001745994994410276
-0.018777956440956808
-0.0033508214174943272
-0.0252679245289597
0.020867579527748727
-0.07054004561902961
-0.04422605836093528
-0.04149572425277731
-0.02647063964212807
0.005607571315161348
-0.029366255620766512
0.024757294229004235
0.032241812767117295
0.014276938185535382
0.024759549312009608
-0.003762061798066707
0.01584386642981387
0.03985222884293548
-0.006166153333089765
-0.0923501854868322
0.02798849237943685
0.05843242506267642
-0.032008976540286976
0.001104404319522263
-0.0980880814762397
-0.04493234828668256
0.026657006492136717
-0.017421564614197513
0.05348977861893259
0.16377275724976528
0.03598652073232365
0.002319060692283354
-0.10813688089247567
-0.041639938898726025
-0.004129761213318053
0.0192900515023937
0.05025249139611199
0.011642850496346838
0.03138159907365426
-0.011839902853049675
-0.005122631848537082
0.004776130609447093
0.0053108035609587415
0.010716908531664848
-0.03422151489435586
-0.00208771239274791
0.042549053734057075
0.015832185585235067
-0.015044686524055804
-0.029638770172843918
-0.01716106798249408
-0.12794010775675752
-0.034246562074039325
0.0005630367795238841
-0.02697523918645144
-0.03364144742554016
-0.026404448200119876
0.01945366113173857
0.0625695600576381
-0.003377440208311274
0.06849895526057817
0.00827395280275953
-0.015286652551655042
-0.02970267085134037
-0.021896570150561262
0.007932374802639738
0.018414702511977955
-0.010252057668380153
-0.030471683575510455
-0.03970322479301035
-0.018897917842387337
-0.03793669375509475
0.12249770739344498
0.17038315988350075
0.04114478806996525
0.03232970654693589
-0.007984749189383883
0.0065790260839454565
-0.012700472456164985
-0.02042222116957967
-0.03488229919706516
-0.04801917161928965
0.077710730592272
0.03574183954844521
-0.0032829354986779824
0.04507773876346527
-0.04948908281625696
-0.06122421782403406
0.0032489823585512283
-0.056322499224437446
-0.05218940058017389
-0.01398865876614171
-0.06453624925815621
-0.01601173424867797
0.00032827388843250104
0.0030033567547777446
0.007955066412987327
0.014948562893035115
0.027514286339051078
0.03561744147911676
0.020118645482244738
-0.01458054746717128
0.05384913327222572
0.03165605419027304
0.014353466668893863
-0.021257235859845635
0.0024499590389347025
-0.01661594842821986
-0.02818930264099988
-0.007774338944626398
0.00829125842790545
0.07807604287097619
0.18108089639915234
-0.1465304113142684
-0.11333702292104798
0.03319897984011634
-0.03545644686292369
-0.0024678357350905898
0.004207474745911515
0.012753120889620278
0.049088441932197274
0.0154270098471165
-0.04363207729071907
0.00016289525466662877
-0.0004626117073913849
-0.009703265770608384
-0.0011546067001088826
0.03990978972648954
0.013670158753893494
-0.0009998455994307542
-0.02650563201451518
-0.022910343758756394
-0.007688935946507074
-0.02068076922320723
0.02497503285845646
-0.02417883833601971
-0.04260553552821773
0.0025731736423590524
-0.035229803159789415
-0.009056175459949922
0.009616052741740112
-0.03826802169255972
0.016537897628077176
0.020998851299484613
-0.0003664081687032788
0.05547055626456927
-0.04341124454403796
-0.04803435345404631
0.02712855873984542
0.026796967672275025
0.003561738870655929
0.051903509897935546
-0.029317322675181934
0.03844281865369656
-0.01743602670392143
-0.04795352808934284
0.024731050203124955
0.023709025522390365
0.023626895442238522
0.024080489820320163
-0.01928322646046443
-0.024996731574331195
0.01643713605284979
0.014767178202002003
-0.012287625893920174
0.013950004985935339
-0.04039460928313279
0.022376792281349204
-0.013912383853390982
0.004931292195796571
-0.03783824359019215
-0.0012932099211621984
0.11169056355793375
-0.02226457715493839
-0.03900808386605663
-0.10321028868726317
-0.05732230339640083
0.008543878580140269
-0.0280238148779533
-0.013433092811299528
0.11511276247965263
0.029448276303245955
0.010842451415090087
0.01158898906037042
-0.029188645017042426
-0.02236508740594909
0.0006061272363730475
0.012829458553800141
-0.02805448852906614
0.09609005130847652
0.1127423834352625
-0.00860187448837092
0.013251625178710083
-0.007295290517163125
-0.007044573984964243
-0.04381099784201965
-0.01855156729558846
-0.03711901921443416
-0.04899774746242796
0.006916479990424819
-0.0036970887912854524
-0.011711077598052502
-0.03250051173707061
-0.029212757095945435
0.1347027207374567
0.05154799802088564
-0.021827703553215654
0.044535925110277375
0.00821804540341846
-0.014941159994626182
-0.01021836998252242
0.006146983953111177
-0.007808206688726239
0.018955104754036008
-0.014868786828493285
0.003993080637859617
-0.013171210941554113
-0.02096857069679168
-0.028028091091373192
-0.03153937482167409
-0.017914666897521265
0.06624801899458731
-0.06295997771591802
-0.06618977953333266
0.012775585376667701
-0.046608098395572686
0.01038304748762786
-0.03546147983147666
-0.03729815846941607
-0.037220643020930214
-0.03338932318539338
-0.012907333569010838
-0.0037547421153970536
-0.032276664827973194
-0.02390161372307652
-0.056139944166927094
0.1259253543701963
0.10222411421948636
0.07119353339359633
0.18539916269395318
0.0009134721514947693
-0.001467720184400638
0.08739322821305058
0.0413503884008702
-0.09140463957858157
-0.009025264008064365
-0.02807373555402828
0.015426494288500021
0.00947229664925384
0.04054164741365684
-0.03101739295539555
-0.02375824173386075
-0.0657339844669342
0.0729652816859003
-0.02483049639695944
-0.023740241159031523
0.007987252333803242
-0.00670391074070874
-0.010695472928054726
0.03547757037774192
0.013738980494208946
-0.036096350358793876
-0.002788679365706689
-0.026805301624424984
0.08444318563501249
0.1011832781535368
-0.05478529794199528
-0.1777946024994609
-0.05915012077380736
-0.033672048112158834
-0.04908396441091678
0.01925106731509272
0.052871765069126664
-0.001844826870782457
-0.00959032686700027
-0.012577662921410665
-0.010025733924698839
0.007425456333396001
0.021061416655994047
-0.03854746051121621
-0.04433662570928917
0.10068792816616849
-0.0423865886186125
0.01691653396813884
0.015971612093009988
0.01470275879603933
0.007177751016930909
0.017708730301715873
0.02118164176199187
0.032872986973379474
-0.0028630749351657822
-1.4642359344614079e-05
-0.008990455832045233
-0.002512611785485666
-0.1136847486570483
-0.01778463689945114
0.010631584553948838
-0.010690643105544715
-0.008959223699879507
-0.0222991850086071
-0.0047206804499237
0.154449215761539
0.05189541269544385
-0.0334086622043288
-0.034132992483928815
0.014776074237808056
0.013264849430948637
-0.05962344958783943
-0.022070332883324804
-2.795999208439024e-05
0.05592709677261086
0.07507878821330524
-0.02446646337662844
0.013877439355518157
-0.019483267282610846
0.009468546670804346
-0.009839878814438477
-0.023906061280280708
-0.0003515761695569038
0.010599185958077623
-0.017886559884660504
0.006587846493988883
-0.025906919235213825
-0.019795209298562585
-0.03325640373423962
0.015888829323057498
0.018301511382405242
0.004469547508215628
-0.0030285011453584833
-0.003126663435918528
-0.012773808434005988
0.060542817034794166
-0.008224986923908361
0.05600875190954817
0.08784103516512261
-0.016253892624838687
0.013765649949480492
-0.030012366414038167
-0.024070389785419914
0.008824551767198988
-0.01536428877761407
0.007466784701325751
0.020648835425031035
-0.03927243790796838
-0.0021380311473601383
0.06460698823225983
0.019543658789865647
-0.020018562513396565
0.01736779008877291
-0.029415441474697355
-0.13517401150799369
-0.018848053958717442
0.01127491035389265
0.013816835844609082
0.02625158839757529
0.03420543751551872
-0.019770613849321914
0.007837574053989407
0.030391513792513754
-0.10018891156700295
-0.04734427475088925
0.035356772542612186
-0.06416102743725888
-0.02978231396261626
-0.002885556410448566
-0.03893446324832607
-0.056114601883819455
-0.0023487732095382754
0.04172111629314762
0.01162786632662446
-0.012089678465815174
0.03417271811871998
0.012070446587989062
0.042477123969806026
0.0003288755299680742
-0.0021096282533065347
-0.011430635346712927
0.023386182696737624
-0.033919554289392084
-0.04738800807463252
0.10321407835367931
0.1398863125334655
0.02926960288875934
0.012265418171950955
-0.012862570528347812
-0.0024768278488859047
0.17194941562169164
0.0907848398418263
-0.17377834958546803
-0.041590156365846655
0.004800344718138671
-0.0188311635004078
-0.03610160499769083
-0.008979137731350909
0.024472153083943814
0.005515697463731747
0.007956470249623536
-0.01354457660710049
-0.08231532685892078
-0.00862396742141034
0.01906758401200882
-0.0014071086873492715
-0.025132447686201202
0.035238126227389865
-0.13763373334743872
-0.1370739773592933
0.01048348735779919
-0.028380693386716654
-0.0016403353328129115
0.03442799469102029
0.006637161248407986
0.017885888289366554
0.06702495675436382
0.006754210847175655
0.07176937573612674
-0.012489231428052217
0.022996648892650667
-0.008953169557698586
-0.02675087059422078
-0.025538133098042926
0.04253441075348154
0.03475066148629404
0.03173506384467503
-0.0595034065033787
-0.04625272278918941
-0.0340750568441215
0.01692287142889568
0.04218641963282371
0.028602271953623106
-0.025541956606712667
0.09388925667633599
0.035695219592489676
-0.03093367409564996
0.0077154318696665445
0.026725816817637423
0.01093728977143495
0.027924273225453714
-0.03140249049902786
-0.03216032252040612
-0.002287841667003967
0.04847509410941183
0.00798210048462817
-0.00445799048980119
-0.001639076057752634
-0.03383375918095841
-0.004847440116280027
0.018987157142571584
-0.00964273348573144
-0.02273735521381462
0.020675922265740613
-0.015903116907999316
0.005687743822299165
0.03388545096906538
-0.03607689735031268
-0.0064231783760703536
0.04824090376879309
-0.010136969020326585
0.039181565420890505
-0.019115455343287645
-0.09911695334479372
0.06519776191216119
0.011684678451707581
-0.03075263531130996
-0.01429099661526866
-0.03078910142892909
-0.08267299246847344
-0.0043151273560816245
-0.011692620214675369
-0.02765668881614692
-0.01957810103482337
-0.0219710313903918
0.02027312781398884
0.027076542166830236
-0.007352743952581534
-0.014046581704150166
0.13568826942523401
0.045111380401286746
-0.05155134694029139
0.0022517286060999534
-0.011362325037715554
0.05572460628458367
0.02492912643671913
-0.015303778741477257
-0.010828389140499323
-0.04418663893523791
-0.0002194502351046837
0.018979902571251366
-0.01303039685770897
-0.02667906296979305
-0.03142979752405235
-0.015877589549698843
-0.029447083523197925
-0.006384086341210837
0.019510844576435822
-0.010080815847937933
0.030169556414206745
6.834788202085597e-05
-0.01686493407280468
-0.0476437313315218
1.5334992572657552e-05
0.02040709330999324
0.06665700253244648
-0.01993744066123894
-0.0070844894601106425
0.030039628672368025
-0.010940266265358344
-0.03771240786086002
0.015442313720904492
-0.014916057846446982
-0.029698787480742322
0.026694769428476667
0.057841125774150834
-0.027303763964792026
0.011356256190579278
-0.003878819245610964
0.03459006398029494
0.007794610266027124
0.017349488364007824
-0.0013340268881725807
-0.0028651099890900015
-0.017972758347917294
0.06875312385327395
0.03101563395691284
-0.018890213996265844
-0.012521210327323028
0.06528406575566945
0.10177867299687046
-0.05209186704849695
-0.008534965179252603
0.02014751481009546
0.02134327321216436
0.012754494057080089
0.011043828669012667
0.0002270758290136597
-0.03236101041738739
0.04052617484156915
-0.022089095045960617
-0.11752936005968607
0.029416779680787684
-0.018278406673142397
-0.003791017776852239
-0.025896387558242827
-0.02490787663572124
-0.04115998951888836
0.047314411434899215
0.015614988556190201
-0.01771686652034534
0.009025196478774831
-0.02289976956364859
-0.06531218058775573
-0.052660485860519766
0.027244139630425764
0.001829951263570895
-0.02896519357061834
0.06748225368767355
0.021912417169399085
0.019513568869604647
-0.0023482268889534817
-0.011734582525476024
0.013768925839566855
-0.020998294155967087
-0.007028203873790058
-0.01457082269546017
-0.003922260443849199
0.029796529522147765
-0.020207845172454043
-0.04438842468621102
-0.01949768883150578
0.0004303034575436042
0.003021158054378512
-0.019572361155141178
0.009271348108613924
0.027160506595668998
0.035194120750623226
0.03902997984680535
-0.014490132994124846
0.036186600083609424
0.02163644177799396
0.014880129629119923
-0.047699615399285265
-0.04815792516603383
-0.017843379460693296
-0.014124372572046746
0.011218237266523634
9.735525225455381e-05
0.0008061199978280278
-0.07525322215850469
-0.004907629083964794
-0.006248406756475104
-0.016088038501020897
0.028887878788259196
-0.014540798120363367
-0.012820762482949718
-0.01784802168313123
0.02930639038563738
0.0035124631350197714
-0.013085397549692753
-0.012242313501890742
0.1747962686058804
0.06857724252211556
-0.020570731221743098
0.0004252016999747307
-0.015413612802159084
-0.032123847218304996
-0.03732291057297826
0.03901473807471071
-0.012513242238165979
-0.022905844200743666
-0.030917136284752348
0.011581690292925086
-0.016927458863194324
0.02007547518993575
-0.00884985162870559
-0.0315703047641425
0.05766602689231018
0.0012236517591173008
-0.011294384130023887
0.05164639466213545
0.028568999165941043
0.017784910786351936
0.008243773528466574
-0.04186667204354139
-0.008504244241947317
-0.04277923342472931
-0.007734359620396647
-0.005124694081254134
0.07457853407935029
0.020575305935517346
-0.043397540323107026
-0.003363952077791375
-0.010639857332331961
0.013152208968107766
-0.06609722596446974
-0.020324696243168537
-0.020926924863461267
-0.02497826622950692
0.047225945894601766
-0.0038967093978278544
-0.01207080744410707
-0.023839639330384976
0.053380838189388845
0.06323624603367821
-0.0009275256461226603
-0.01627526133864184
-0.008885501913124995
0.10860267541429454
0.025550361976526825
0.006699364121821124
-0.005443739963465871
-0.027483956536803647
-0.04129674933084428
-0.024968677688531976
-0.041800140351651034
-0.018540181156189325
-0.009961741866683122
0.0351729865474914
-0.016450066659548276
0.010778648551370153
-0.012098377309555743
-0.008955047641748114
0.004399089481193329
-0.03108272026139814
-0.009202188997370396
-0.012336985649057575
0.014308092557448204
0.0182724603066967
-0.030190585049074264
0.017920854834282823
0.04566952675477166
0.09668817404984113
0.06774232078327345
-0.016676745137676086
0.018754115863150587
-0.0450007950935292
-0.008315898037679247
-0.01366876467630932
0.023917124990268164
-0.009614555223184352
-0.0429390210987072
0.016526885638480832
-0.03940945713188916
-0.07229552801810726
-0.031013679836233342
-0.006291195787508701
0.03859120947475732
0.02849642408640912
-0.009455110658514117
-0.04216705920048232
-0.03330128451602551
-0.0010455215899489462
0.00925934300915031
0.009950911270892539
-0.014988943987886852
-0.009313763438840442
-0.0018171374241428074
0.00122344257295598
-0.0004109074204372197
0.008123577127438133
-0.02213411695357745
0.016962701350119857
0.062169612417498694
9.206776344571497e-05
-0.006042501244313813
-0.0029542940682761813
-0.02105923099222181
-0.049932725982464204
0.012137689809490477
0.017358439045385265
0.05166860951104676
-0.006649003397930787
0.019490350130250536
0.07006066212968305
-0.009551558155033292
-0.051720822480703206
0.0018151810063530734
-0.024346179446692158
0.040107035553534176
0.029574726663352407
-0.03338004501664319
-0.018976956787186364
0.019529196449120392
0.08675844696274938
0.0013487962639242418
-0.026812236272750655
-0.01559544453601542
-0.023973265183551654
-0.04274931298193793
0.014836002527859157
-0.019314743216637554
0.026406267990084793
-0.045464281799780785
-0.09472519057580299
-0.04136951499076015
-0.0064695881754451776
0.03240616340052612
0.009976587939444354
0.012834809378460453
0.05941591923241334
0.018966874492709174
-0.028620237176693528
-0.023636223899826152
0.13108982487155124
0.043545151537221403
0.028320093305827302
-0.0017668626569585098
-0.0009050470816181741
-0.015362399958341742
-0.01320177156440214
0.005647590312884597
-0.03084471896437361
0.03799115042117639
0.006672378685018176
-0.027088161431455135
-0.00953257959577081
-0.013371530769865886
-0.019594575561177528
-0.017428343959191937
0.013725067123675395
-0.022658777528918903
0.003620318523272472
0.002740861136024324
-0.003605796001540945
0.0030843886136792927
0.0037511292503419075
-0.012622284304823778
-0.015371915160508542
-0.02908325338785519
-0.00035264137129957675
0.017284680488121647
0.022145509892024896
0.027920497378892194
-0.04482917814664564
0.002914964348781721
0.004931013484937305
0.005126954411951275
-0.003659646471552281
0.04513250908768136
-0.18613660504452656
-0.08819095594109558
0.08248227065968974
0.01641804788762126
0.06271051648536798
0.011344087872987048
0.0009748680412964602
-0.013965280170327428
-0.0007376478876285461
0.01705993916290868
0.02133010895247739
-0.020724620141131776
0.06081048438993633
0.08069232747798251
0.02958960061161907
-0.0024748461227226083
-0.023139427103429377
-0.031437193040220766
4.419430354600861e-05
0.13916870510560478
-0.035206766259471146
-0.0062745281924516646
-3.794215581711731e-06
-0.014734355588143407
-0.012623781550329437
0.00740828588092995
0.02524362288692698
0.01735849838428711
-0.0031658694328766516
0.002195569311389392
0.004446392330058218
-0.029278295127627196
-0.0028900118704167925
-0.15612400655005604
0.031326820919668416
-0.03997574835480255
-0.02420985985051951
-0.017207886363105707
-0.017979862054524374
0.009595398845925992
0.03428946604092602
-0.10414360926612119
-0.08335525924050852
-0.01418043931041926
0.0023325009109458343
0.1418749705244724
0.00667699235524671
0.026543573469349067
0.03459342450877546
0.010284317995854617
0.00327492933388723
-0.004588725540748301
0.022615701524688375
0.026703220660267157
-0.008904620311543095
0.017579154517557184
0.03455630117678827
-0.0021459006607632836
0.0010403788679909365
0.013075663256027369
-0.031694841996307864
-0.07472243660559999
-0.05056123423814561
-0.006264150532313716
0.011455879926434234
0.00513270865814776
-0.006637489594594444
-0.0295470143080086
0.01055164833249327
0.04980159160474087
0.010549256642808523
-0.007081167340789277
-0.010508769641398697
0.0527639781837271
0.020492441800470423
-0.0012571348642109782
-0.010634587695666203
-0.038035273882605664
-0.006924741044417121
0.01713908651350823
0.022204666743312163
0.023069697678161933
-0.024140498460724885
0.0018569867399078892
-0.015530106779659603
-0.019988920578556845
-0.0013805697791901
0.017744985423724227
-0.08379919761347221
0.1545403785234685
0.0662834194853945
-0.05345823119923248
0.02663292930873862
-0.0028900515312454797
0.03337287956542853
-0.03160745115852407
-0.15652115061803
-0.05217153554137355
0.04792605291799839
0.025925625867457638
-0.05897415655248331
-0.0217078963081372
0.007732540220360344
0.01920814738530669
0.04986472505496907
-0.015631861816475672
-0.053762383381527196
0.10404263789334413
0.03930264755513894
-0.003358716396842287
0.005739462424467491
0.010241380091308518
0.04376638339873831
0.03685729358579072
0.008895791835424379
0.030075548056489092
-0.0470506139493889
-0.05163891894235616
-0.04859003399112974
-0.14619484843222752
-0.07165042614696504
0.057394152331056957
0.03515310859257446
0.01683775342189904
0.01164227633553006
0.0401919086991529
-0.0025963094146898673
-0.006489215419616281
-0.014112908350531193
-0.00018579028778570506
0.04059606332185722
0.04999995789839341
0.004882084529295386
-0.03860717003235072
0.015293189922644316
-0.02845199089879728
-0.02508783403644954
0.0008065474180533185
-0.02225267775579824
-0.016848140889170995
0.0011153063322687845
0.023680675631945876
-0.023071000608296456
-0.004544633621847368
0.07855043645489909
-0.014757004010565128
0.022610215906761332
0.12267224970508925
-0.008151025000934477
0.03471532859135359
-0.002425248313104314
-0.034907804407807434
0.00996128188547987
0.03259064730223485
-0.0019791090679985783
-0.01992372649359232
-0.07567490880033872
-0.05385593070064233
-0.016491394211960914
-0.005457552792487576
-0.02336372056271268
-0.007179457354100394
0.023721430434629213
-0.0136425993309186
0.00967081195330977
0.006628515712466816
-0.020467803878208894
-0.008379478753942102
-0.02010678343894868
0.012430530316344342
-0.004772237403236034
0.031296349894411275
0.019421128630538707
0.04927465777511382
0.0626789574375495
0.007272625247676699
0.020286871479780824
-0.1711605759552268
-0.01660733978247584
-0.009137820196540577
0.03954985152906918
-0.004452613285112116
0.021715714822090535
-0.01765035293196813
0.012060995562583941
0.026468233243509123
0.006842845098842331
-0.010161196576537376
0.007124025212702099
0.01605028758742717
-0.036820631253826584
-0.007679135240430478
-0.032251737433845
0.012033731672717105
-0.018020389331876042
0.0030889270256455395
-0.026975315945569022
-0.016899624691872256
0.016487667528495464
-0.004664719390217116
0.01824020940797357
0.010794904107217113
-0.0011355826268337637
0.027021531709488195
0.011127578153116033
-0.008022020180528404
-0.017868063044639056
-0.013591002814562724
0.014324045581680173
0.052738029801685515
0.022055789683657456
-0.003029342523271436
-0.00977086600424283
0.011655576382924724
-0.02278306816365823
-0.034232131269151166
-0.005532788750363037
-0.0028297424357384424
-0.005170611765972094
-0.034837611472577155
0.05520477565781831
0.05726106740929434
-0.019206568718426284
-0.023697403670857653
0.008954405788248883
-0.005085772117500466
-0.030702821529177162
-0.0115225882961227
-0.0035068299796770157
0.022007166911040467
-0.033221998203266635
0.0881053613147114
0.12443202192408044
-0.05990232874165001
0.02159171730997378
-0.10133911448284234
0.013003215295264286
0.05901898613803982
-0.040222320966240385
-0.013756891956383806
-0.015919984461420653
-0.015293483829281473
0.00028101511233475436
0.010499853744440853
-0.012360571388205604
0.0075498441252351755
-0.04887943755500455
-0.021934945795752236
0.052641093491299876
0.038026152510171975
0.03722143714018228
0.00012648271772719772
-0.025630789103387085
-0.06995162281377527
0.007576921125352859
0.020324311833556857
0.01925470675118734
-0.003133682514676984
-0.014900330977354085
0.0008697743973743079
0.004621337532190295
-0.014708411819305508
-0.022072689209525275
-0.05519173017999006
-0.04276246636234654
0.04048388709668418
0.1411271707186742
0.024403918376456
0.02920294726028464
0.010648681079374342
0.015941999112505312
-0.015654776101575053
0.006152254625028149
0.02644104812376758
4.789533857686185e-06
-0.02568883402648132
-0.03102298241919532
-0.003199202564360409
-0.010204906705469747
-0.00640202600849372
-0.04003679876821929
-0.007358099526847554
-0.020963842835772142
-0.02920136381845473
0.026995437393767387
-0.008197213759038187
-0.02620906025431199
-0.1791680600913315
-0.001446387576970571
0.023393879126370098
0.02730604299364969
0.015653444639366604
0.020208945653340235
-0.04927331045924719
0.05351533401300287
0.07246810916204424
-0.03400664378043552
0.013119565785315316
0.0023108561221299164
-0.014569371548153914
-0.021040328123776902
0.009047202848799611
0.029231632757150964
0.037247629595978604
0.009994234319925509
0.009854312678018666
-0.023101052515638428
-0.004118593582199255
-0.0017233409296092679
-0.01655646618157052
-0.008951297431610253
-0.010716851452638454
-0.02051725393968001
-0.05274024136388236
0.03452853080485534
0.15636337864409533
0.013402774787818025
-0.0088747071568079
0.0074378830152559685
-0.01049412875022767
-0.012509160291288204
0.00894976342891316
-0.029266629588994755
-0.010682932346421573
0.024283583052835882
0.016251403270892525
-0.0035509540200504655
-0.021445140552025403
0.004035729073031455
0.026523875493687895
-0.0367659040160587
-0.02292896767317387
0.011276910169278837
0.015044708268931336
0.00312731129908312
-0.016488355784389497
-0.005583033885547603
-0.028027210918532986
0.057615388594872384
0.06610054690320954
0.004740987509936095
-0.004739126268572814
-0.012820738950852196
0.012471691578940045
0.01578766774060187
0.016660397506011986
0.0006649441226502365
-0.063183783297442
-0.06150597818205312
0.016551989323044962
-0.019056913016544826
-0.006042695456432256
-0.06120318202512129
-0.03814015540443092
-0.00878161771976876
0.011249189471618256
0.0376945242653683
-0.028550030246047662
-0.031448126756259596
-0.0029799945181925823
0.023755660733604154
-0.010396607128898491
0.07399162548921975
0.06684525138554664
0.019257220102534053
0.016768585320510884
-0.024583089666780803
-0.04220211618369849
-0.003595061434843341
0.006926217493265278
0.0031580864966021835
0.017934319141163755
-0.061609788831677566
-0.03829858918685093
0.03512708378736891
0.1458704300800506
0.02038106566233404
0.001658925712924328
0.0048499257086364695
-0.01534450321842028
0.010573854430166316
0.010790803925399176
-0.007846535343294669
-0.024773338429277186
-0.08553839318912071
-0.03130782234649287
-0.005663523797153019
-0.0007793286129664105
0.005143108534992725
0.0024185362538389253
-0.0012135578447195108
-0.014177666875464833
0.020884791310108446
0.0476136950923104
-0.004533803957679193
-0.00997087854722835
0.015214150485301505
0.008941143203764181
-0.027116058143177035
-0.052019717254724464
-0.007655263724013715
-0.015285064248792524
-0.024913462295592995
0.00020495291939675813
0.005424964667081758
0.008419152655651874
0.026127793690186828
0.0032290381639395785
0.016586183842245937
0.01850254007226641
-0.028407020210525616
-0.01712411661087637
0.006266200180427461
0.0011295415618817763
0.008304463084281722
0.008890689526746232
-0.0018049301783461442
-0.00537326761191156
0.04946692349355018
-0.008285181484735716
-0.04579240773011979
0.05297532721753551
0.02427587582179291
-0.03844524603056333
0.02432097936955193
0.04729921351951922
-0.026248764914874573
0.018317983595602837
-0.030554924213697116
0.0006345024700363856
0.02449732812640186
-0.08112934772892529
-0.01959374189969771
-0.007908961715932826
0.00697290961738117
-5.9008739258897094e-05
0.014124137875309679
0.005214246995374218
0.03083279597846276
0.009508073953417566
-0.03418803107757616
0.018053691083367043
0.0004508473375981604
-0.03189901749179431
-0.01989121346122695
0.0015231551843142722
0.0046127757184408
-0.0028759971406326183
0.014117486737599166
0.04131171556255879
0.06935907659034582
-0.010502455032728777
-0.017212082977991074
-0.03816543094523935
0.016548493918856946
0.03220598735686185
-0.01332259359170903
-0.018098038091656842
0.0383074294127845
-0.04043857303892239
0.01222611571831478
0.02209731115735195
-0.0839151258442795
-0.039038859382786346
-0.08591384573274106
0.05395399733763794
-0.008385069675765853
0.036012739451199774
0.046806821516915856
0.010514198997303674
0.011514657170450141
0.014802851883116504
-0.01818650393521396
-0.018297217262487623
-0.022043997018303056
-0.011123237700336488
-0.012163359382841937
0.03383340293131595
-0.06539048189480838
-0.21071187870876149
0.015082740620403389
-0.0167634262878041
0.06910673587169214
0.005693322369438479
0.08556365596091677
0.06695231282577219
0.03125118193164839
0.03515226461799573
0.022292638346120105
-0.00014959711471918653
0.024758263327596446
0.10641232032504704
0.04062589157177028
0.017585564111324743
-0.009355768777104215
-0.037631505482100674
-0.012990925944849567
0.0023071918737832403
0.07995434599175455
0.005841098793596473
0.0007749226653908745
-0.04198903385952018
-0.051976659209559434
-0.02971483590586054
-0.05211880312240636
-0.00641583497783792
-0.03021439638484672
0.004228966729651638
0.012493926896182126
-0.016580721401023714
-0.02276047083915911
-0.06812233184433415
-0.016410687821044313
-0.05278181467009758
0.011944420294807485
0.04831547783626506
0.003568782194887576
0.023636154624825385
0.06650049693632533
-0.02988065084993484
0.007921745528624173
0.001687593950308697
-0.035436208978358634
-0.027511324653325318
-0.033670022011223884
0.006719898876757211
0.0021859062017110316
-0.039511319152714226
-0.010816321415874297
0.0029033087765626396
-0.04977936712308634
0.14068250259883908
0.13185815870834394
-0.07466870637055179
-0.008556607826117418
-0.006546973544957374
0.017679205166318955
0.022436254508165453
0.04017248327760011
-0.031993583695664116
-0.01888607622676206
0.0016883597006451974
0.0024277019461794048
-0.008157222900341701
0.005967594288117762
-0.025245074044165948
-0.026676978437849844
-0.028835368624024946
-0.0024640438637868974
-0.031723332778537484
-0.03073881420274488
-0.02351769021754696
0.08046534179420094
0.0816779466147409
0.007226124184186839
0.09027371180057858
-0.005699316391471629
-0.07040603117262006
0.0015711089878707447
-0.011691661162438527
0.03240347138755223
0.03459731820408044
-0.028555276972794825
-0.02505322179731031
0.008648612951164923
0.0027357367238461544
0.004776153178912966
0.04964773279214832
0.03536887700085665
-0.0027499625061263105
-0.04476132781291287
-0.020408150191327728
-0.016703561042638947
0.0036523162354731974
0.012582902658166832
0.0006671602258350181
-0.023508810798575242
0.0009128595798970548
0.03651908062604628
-0.016481323483094883
-0.01621623639362278
-0.02977913764994013
0.022943074674354587
0.03500823568758208
0.010455763446480307
-0.060233654661807134
-0.01034292250532198
0.00030890880900550006
0.03629527494532725
-0.0436790434739608
-0.1248972839668978
0.02347142882269589
-0.02626445711697927
0.01726617913354702
0.012653594078075807
0.016730484414610988
0.05937463799705517
0.007964560965375364
0.018842208887823904
-0.028063381820776973
-0.027078683578302648
0.024321276311802812
-0.013688495469441312
0.004794905565995948
0.005547162558966049
0.002358449170523506
0.014335860691253836
0.01981168828933217
-0.05348208142674332
-0.047707364676462936
0.017038911225277644
-0.006891887883983686
-0.028913203974708552
0.047840778194602446
0.020689508807120043
0.05417788015869809
-0.04264499508269598
0.04146287994814887
0.006894811317725239
-0.0018508632012804553
-0.014229605111036627
0.02913798302924306
0.031583875733411336
-0.00719411382949981
-0.018816320479744658
-0.033090554333666006
0.0029647539267541622
0.023812974487931182
-0.05807172195368641
-0.009499255160196384
0.0005737204867852032
-0.008372117647877013
-0.17410628752132418
-0.07181483414408217
0.05058669418540436
0.03164183291408744
0.017424592087726374
-0.03263186317040273
-0.02218667956900869
0.04857748984578
0.00822124435907723
0.05851141593159501
-0.006939358816222618
-0.00019727509751958983
-0.03297112376894833
0.09780880899203347
0.15044731672836936
-0.007206177798280394
-0.03438579118155571
0.037608693008412845
0.06811527494622709
-0.04202632900486088
0.03116157563497788
0.006931773830099705
-0.0006339011100700638
0.006373292895314033
-0.012094853412434485
0.007556495318655471
0.021356485392052017
-0.0069616271524318915
0.017249126379015267
-0.04014222400872593
0.023142579503830626
0.037906675515558166
-0.012260984058077648
-0.019386363934397476
-0.04185133748501163
-0.015789048304177024
0.0006215189256481077
0.0066035193130571275
-0.03911588481873903
-0.03538857690804641
0.031935493130695165
0.0369387098577681
-0.12879999181307858
-0.12710431918031143
-0.021130639028663786
0.09339554865627275
0.08856407298167493
-0.17704538169470518
-0.09310657445434663
0.03894597712228382
0.028498295511127685
0.03840452955487309
0.03972897630364039
0.031359229433647995
0.013101365547490263
-0.008233472418317862
-0.044853821129801276
0.06236847333538953
-0.006107495525417953
-0.010153204072459104
0.022440726990286212
-0.0011031013541060444
0.0428721867353744
-0.021554503213840673
-0.006998434127653009
-0.009216997200443411
