0
-0.020995827789353255
0.01248192873297589
0.00320565150357024
-0.014630173726401621
-0.013600219144760825
-0.04928468410046179
0.004415535987461027
0.005360695652833687
-0.026614572359471338
-0.08231633632097289
-0.03927926098118746
0.04855256464911098
0.008783100111670893
0.009716907113547538
0.0007382249180309166
0.06584216336668577
0.02024810087490114
0.033668401744126344
-0.07658307992387292
-0.047982614700913716
0.02063434510089702
0.0016747801216134208
-0.017584981297839287
-0.007778391376882947
0.15069663166409994
-0.004317515897177546
-0.031602252829331934
0.013684836059810749
-0.004814751292152558
-0.007143940933248998
0.050286451031245905
0.0463136674022944
-0.027264256572460448
-0.030645915333349642
-0.0032693359053635354
0.0927218011510364
-0.011292164545985452
-0.0009508431102614573
0.012762269360320645
0.008467000047904624
0.04988869040991433
-0.018716943107092182
-0.010182792829627264
0.00591631288090402
0.03648801903409791
0.0034018743571013386
0.015300145364349831
-0.008860432092955528
0.05523758623633367
-0.0996363792763644
-0.11800730948564056
0.0664511035292014
-0.015645435794010985
0.06135781131257793
0.06262106431326663
-0.15809571043412673
-0.1537935999277638
0.032034498628413156
0.0053679240060979195
0.03098499974293402
-0.008456055884166017
0.012234109352830322
-0.031861823396635174
-0.021900005492313763
0.010958723614927534
-0.013316901912608226
-0.021663655022011265
0.017360032855241635
-0.017254851657446415
0.011790282065279047
0.0034781898906459043
-0.003449874347763818
-0.02466737847116527
0.008549175045874257
0.047678394042048905
-0.01883190623544088
0.027726328346987947
-0.0011281299989993603
0.011796247268464633
0.0870953262981274
0.015659031906815737
-0.03713215934576489
0.03767493820945901
-0.043880989840802284
-0.0076359395036407745
0.020184426762577208
-0.033858441652542315
-0.010911601162295392
-0.004100588794738888
-0.021634243326082738
0.04069488336520006
0.02701103051707058
-0.04249439427825172
-0.008935868638898605
-0.017083930866825595
0.025619562026046875
0.055249488839818124
0.035458667973318425
0.04669034626167747
0.00015766686863446236
-0.013127078636957938
0.003051147161499996
-0.006029364614138098
0.005171723776261358
-0.05646392219390278
-0.01010607828072023
0.02700703919882802
-0.0008165996405991734
-0.019460134366417012
-0.004839011481481638
-0.008292855209596443
-0.178380246456286
-0.035548821780690784
-0.00772532241699525
-0.023707749205669152
0.03655125580283193
0.022729914329647855
0.07901482342164698
0.01190432711056965
0.030710124998848856
0.09322862094000973
-0.1301286982820941
-0.03652490494579839
0.04212143315846585
0.026180344291870886
0.03728082382216728
0.017620585089489337
0.015393646899978908
0.03936387167815489
0.041613802080904774
-0.02926221156855319
-0.001953654181537506
0.0021936590598626926
-0.002746349431772645
-0.05679888856519061
-0.016317306104819313
-0.012717073383002098
0.05266247315041787
0.024253558385715725
0.007310493396696082
-0.004454378407838156
0.034575609761536646
0.024734706369464766
0.014338465883890827
-0.19260526045638215
-0.04113979714942679
0.041851401574348406
-0.007533826125923732
0.0372180322997982
0.010004234389236236
-0.08109827591116006
-0.05004306810430302
-0.02924113569914119
0.01439678349954125
0.019313723769146154
0.020765033337343877
0.004562537796114665
0.02518320759755616
0.021383488550790485
-0.011589374848772892
-0.00781732923272957
-0.005586345170908565
0.06337026252143922
0.05212690000112074
-0.0007125127874167179
0.0018642568629414753
-0.05518783598976157
0.03200689030966204
-0.019973097137739888
0.0068052727163061474
0.08892249849117874
0.010851394526249199
-0.010894299103766145
-0.003926527456971266
-0.022156196238496018
0.0054583811595934435
-0.032295639317919386
0.01791563412187087
0.04277451903391545
-0.019797124078529516
0.022237459903165037
0.10151712546578905
-0.04103469301095455
0.0011870314878605574
-0.11345891146258853
-0.20525838563768464
0.014339171410960153
0.009710656992703993
0.03811447488493033
0.010708109934368278
-0.05495340601312382
0.04727297403705674
0.014740779124515003
0.08108841961318208
-0.09702854360813498
-0.11088764720098895
0.0811872227324682
-0.001500932370930072
-0.003772606549361763
-0.01635256762050435
0.010965982250240876
-0.0194390870712368
0.049466783635596666
0.04228335179066703
0.024156980240781323
0.05828946238710605
0.03535598286870666
-0.02019261970904602
0.044162168186762905
0.03818908198664682
-0.04416861489443136
-0.022271405477624455
-0.032451110539781204
-0.03137063337044155
-0.023252238925260505
0.04369469599716582
-0.0002720550174819104
0.02914770714119045
-0.02448787528036458
0.001568001261809665
0.059351022986243285
-0.014827296029305154
0.007963385255569248
0.002987286725636874
0.003101275827969384
-0.008953004568971207
0.005062311445357632
0.008773504884791736
-0.03706481568105209
-0.002249316298572315
0.004106138124281869
-0.011586779138129832
0.012371440435850591
0.01915192838906805
-0.01122954210019766
-0.058579953830614755
-0.014442381705890154
-0.013543971583296264
-0.02438938344522702
0.04800251939228626
0.045917322928201415
-0.018011960323223077
-0.003143940255772456
-0.0018204480511793148
-0.013741362558795257
0.017501653744815646
-0.013843808295196562
0.007823118733424861
0.03903100922165609
0.02235376552721592
9.540170910563546e-05
-0.03844253840756016
-0.040091274783750276
-0.014778880176287059
-0.01257640285429494
-0.017334243561808346
-0.04283299455418081
-0.018745982014955254
-0.02109709320077725
0.003163575973164322
0.03869919004771124
0.06677759707793861
0.0625855565771905
0.02836513767935884
-0.025608543229502272
-0.017857690734809018
0.01604334389991219
-0.002813692218260437
0.009562202789600547
0.02084413760792612
-0.0005214239667874354
-0.01025378462281377
-0.016106488900276373
0.0160470624262284
0.007585267545454248
0.02500693270477825
-0.027067772224236536
0.010460611080977402
-0.026033425435110568
-0.014112504375388253
-0.08252032743320974
-0.06844025389641047
0.008864971640687377
0.002083495931653178
0.01321268096496075
0.03842073995831983
0.01595940422084989
0.015471024583536809
0.05474936109482956
0.026464972288013196
-0.03328173919022718
-0.16328306870393228
-0.008733633148993142
0.04734100149148849
-0.011586329885490174
0.08517015955539943
-0.01313526450177326
-0.0660095828879905
0.028961443234222298
0.037664720161943034
0.017528926928932587
0.027298425338364518
0.019284599008212205
0.015491333334477277
-0.030635926140458722
-0.02537695747043974
-0.014349655437920952
-0.02688912634646971
0.009996121215339394
0.028131263868650704
0.02501754691350987
0.10150164407942569
0.06452175003067813
0.018990986552277
-0.00739036934141168
0.011446248223416888
-0.015217764953765827
0.06653326765629448
-0.06032218050024436
0.003947246337583728
-0.14335140244559944
-0.0640506736935356
0.021992568840058298
0.0062072229745145915
0.0037679428987515266
-0.026333127099569597
-0.025819387637636495
-0.014299200756312667
-0.012988323636547046
-0.006661425047126766
0.0042837733035409695
-0.004423057546650844
0.02137238777561849
-0.03501919934685974
-0.0021165694045965715
-0.013687403279104749
0.005195218960153148
0.05352531204207232
0.0035975709922000778
-0.022213149612132922
-0.03980566426250585
-0.00744716210286099
-0.0005467966551916461
0.07620393505272038
-0.010427718948651592
0.030457311273566157
0.0018769272361437762
0.019433765723595325
0.03254452318262078
0.00830929882472359
-0.016548363045262273
-0.025651008697226096
0.00010009854070797692
0.060627216721550324
0.00024794630521291796
0.0015882784677294297
-0.0163148208173272
-0.02130009218726545
-0.006350293664766847
0.025019169398482484
-0.04112535863553838
-0.016056556715060014
0.034171243249169245
0.005159543043644082
-0.025743794348305572
-0.008427662439864215
0.11993576377507884
0.01603768103310559
0.008507380867807343
-0.00563279076986003
-0.016738333207537027
-0.07299988222696373
-0.029320708363537357
-0.025046767767026374
-0.015922840625691992
-0.04195512100330441
0.12091778751010372
0.02414138693020081
-0.033373666146869374
0.004559890174207678
-0.01189860034517707
0.0110005829284261
0.004716096675519365
0.01442927700481379
0.015399960268237744
-0.018564311832259244
0.014695863104961692
0.021282921178013562
-0.19617725732799085
-0.005916618768344193
0.011792776003442602
-0.02980477029847423
0.014225085214383197
0.00790612174353457
0.011420585625376652
0.05566343241727683
-0.03207917044502188
-0.03744010693288564
0.04820853930314523
0.008699199225026998
-0.010740769758021906
-0.015062539090692965
-0.0136933818492047
-0.04824348715664843
0.023851097996799443
0.021527266676442443
0.008424945389411095
-0.0048863624499010955
0.027482017763517795
0.03439371456846616
-0.01171122439668183
-0.05054436156929002
-0.00024249359399557382
0.0009632439040687993
-0.008370233769638335
0.05831091124695386
0.020055938820289835
-0.017427224364993128
0.0010988907029098648
0.01773966815879942
-0.02419263676780064
-0.012389893814615183
0.011841742512304293
0.0043990000400148666
-0.011753038004363777
0.000833952567826129
-0.0012316328671498522
0.06978875078229776
0.01683763850788979
-0.045428112605184326
-0.09260526575435835
0.004698690127841006
0.13832779681025295
0.027673328844305213
-0.011955500038827945
-0.00022663408015438305
-0.02376282454705754
0.001203948439138106
0.014974783282905661
-0.012997848368315287
-0.013315334509015056
0.022228867131975694
0.03737313336304278
0.0029523172775080177
0.012847199049629221
0.007639788753451693
-0.03878031804723877
-0.017209867415076407
-0.014988152712910891
-0.013687651935067028
-0.04703350655448694
-0.0035984421862593954
0.02153696866678398
0.04542803308396756
0.03204117641871543
-0.0087725125227656
0.01820557613564092
0.00829131303395205
-0.0023171074952299344
-0.048204893255808186
-0.022539483888013852
-0.01539628604826886
-0.0034618306808710704
0.01828903161873244
-0.012104737905072384
0.0028202198623265046
-0.010376340664376388
0.0420697721086944
0.04246180843802455
-0.051183685773786354
0.032226820264799394
-0.032645937239654164
-0.032109664804865407
-0.014764124974201511
0.01615042683479704
0.002400527517773184
0.004224329267575949
-0.024592838178152554
-0.07328873936114956
0.023499256946456104
0.025998031021147432
-0.026571812830500093
0.006645499931135397
0.02931847470399582
-0.015156643253982673
0.03673995577172531
0.011703419734890894
0.019734226301829163
-0.01759707483629435
0.0284926328775244
0.02244028517081238
-0.11571721905138813
-0.028188811347191305
-0.005635182902596893
0.017660376751302945
0.008869804110833815
0.024472684596353076
0.03436379387936754
-0.013719825891581345
-0.011253027767421505
0.0034644131847147864
0.0230050120624098
-0.037351568062939204
0.0659856725629234
0.04398537623159642
-0.018408530595941674
-0.004301302862600049
-0.005409221000520543
0.023883570655708078
0.005527806078103631
0.0014968300697921282
-0.004837269402398884
-0.0006031065838588668
0.0003339606676150121
-0.019049222645810725
0.009794908448547076
0.04223257790306916
-0.027341626782544388
0.012388652616015064
-0.006230129044051744
-0.006249519978822735
-0.03282380584895448
-0.03275343394593571
0.03468825514665378
0.011568889586392923
-0.008967969835150453
-0.0068295275547789035
-0.004669551231510422
0.04578098861594768
-0.021947272403688056
-0.054531070461175106
0.028954540185402784
-0.026263281506511374
-0.010526598144377413
-0.024173572042147116
-0.0026808475594394332
0.007273768086765072
0.006966774921074693
-0.021028776900523852
-0.08163483401115562
-0.02818716058233624
0.0021220481303606186
-0.007016668276126149
-0.06056090104645949
0.006494730155531025
-0.005923637812547411
0.004941332504230258
-0.026771549329338395
0.11670639246476719
0.022539071662775276
0.018875012280783157
0.010276447946783588
0.007615148485988031
-0.0033399176218601658
0.02025792205369859
0.020096130859559278
-0.042559709321068555
0.016184272194462935
0.024575976264625463
0.015514453396349302
-0.04252348365308524
0.01592206981485239
0.010536107165370784
0.04106392044043466
0.006100526231823856
0.0031559923788905433
0.03643419101180342
-0.02232928770603555
-0.011238640386089864
-0.02424885320786751
-0.019547560449706788
-0.017702021007469492
-0.00798825871435535
0.03080899423842744
0.010574436523938198
-0.012286611706663966
0.04249866305177148
0.033121751347838665
-0.01553981727527616
0.06258685767517161
0.02568777416459174
-0.026737515543839435
-0.009225162373350047
0.015538203410791339
-0.0016898285966757507
-0.030745301753134762
-0.000907348196928239
-0.027209365308372997
-0.055770213113549946
0.0277302456028762
0.030492547166150092
0.011534013405159402
-0.00502189042368035
0.003656610898851985
-0.005017656694801819
-0.02612478685878163
-0.0073275149381286505
-0.015592118722327292
-0.032986493754598376
0.0036564535390121882
0.014772922475575274
0.013431215107594754
-0.02462678868391819
-0.024604106898475503
-0.004420358465131819
0.02831967510646332
0.012657612760596711
0.013317920502301801
0.012213991513345613
1.0256690973014044e-05
-0.005437806780404556
-0.043013614032933356
0.02685397492792874
0.019816940330478403
-0.02377006240269944
0.0020213054425071435
-0.011528630823017614
0.0009086648619281467
-0.014415204272874444
-0.011997079092075886
0.01886184327897766
0.014981394486654682
-0.013116644220688187
-0.002300812239065448
-0.006796019869366545
0.02469653182442082
0.002184788096242576
-0.007795241877811252
-0.0052911455841968226
0.05761552054214734
-0.04376302374820086
-0.05284269010033848
0.0059957644153881655
0.005284836828488173
0.044928195561887846
-0.018535249634004908
0.023278862094508457
0.04157740563094218
-0.009642185211953301
0.007382918041854638
0.04044038562438265
-0.024969480720837278
-0.00524614338282047
-0.00198257050568178
-0.0035599668182425106
0.021360653945923815
0.0006681808475050222
-0.013465682084233094
0.003763631937937469
-0.016036360168415243
0.002735098292764254
-0.010391691282006218
0.0006509667694210047
-0.00860498504752129
0.009934584432173616
0.07848658796053198
-0.10821414148183847
-0.06181489205222848
0.024824569382866007
-0.04762730149954161
0.08775696583668145
0.11093908398635927
-0.034285213260688285
-0.0043966113390255
0.043091233687214285
0.011769808606034366
-0.03316627440953692
-0.04473057959548281
0.04811248751885132
-0.028034476384616962
-0.007515535174614426
-0.06294868176693143
-0.1414091574098964
0.03942094511263496
0.07987149042350196
-0.11239061925780315
-0.029525436174092735
0.005561344497796507
-0.01634472655818551
0.03080028840897094
-0.009054969128901318
-0.006570706993956684
0.03563880095998978
0.0020605053187612585
-0.058399397716802186
0.007887113194969993
-0.01125603170396834
0.001146034118690394
0.010722530795848208
0.015440005235812546
-0.027793366957908544
0.018706790673687447
-0.005363918422449711
0.025797043093596907
-0.0007457499816902475
-0.023616999224916363
-0.015940587351619358
-0.005458915008437351
0.010393693336662868
0.1773508238367819
0.013486047486372317
0.055610063810357595
-0.0030344873696215788
-0.014727989560884088
-0.015074611011628825
0.0035092266183054032
-0.036260283236291976
-0.04344778126044249
-0.004940796779058163
0.008293062071953869
0.01920433992080442
-0.027421140806791297
0.09047263604177384
0.11755592158177396
-0.06460613587557983
-0.006586744128924997
-0.04503265901542965
-0.01913794622626991
-0.00561065710549108
0.007694215026063517
-0.05238563652113228
-0.01185545157879476
-0.08315773666034672
0.1275818359285376
0.08008546025943544
-0.059954732771703385
0.04556304528288758
0.010221442280799395
-0.0005715624068589375
0.004814099858285897
0.016824645881624377
-0.008440085811311752
0.006500027036978191
-0.044552100948679896
-0.012696899397744198
-0.0792555168121906
-0.010897258799019103
-0.09636343691488898
-0.07842004957700706
0.011228795190145217
-0.030480028973180497
0.17020145558300512
0.05624414340746513
-0.0039603637249372645
0.08304272402227778
0.0034782058138537577
0.011326325574435223
-0.007645736517518202
0.002219262151701741
0.017596953371423224
-0.002747438117069505
-0.003166144082473719
0.00813554825286294
0.003234149232901756
-0.014052342809166143
-0.027914035015123618
-0.02490551889536965
-0.0270455441837392
-0.005262397806824352
-0.01879987704483835
-0.05126288403419961
-0.025428113933933752
0.01159613244006203
-0.03820909865660062
-0.015511666468578293
0.023095486910283014
0.009164432502305753
-0.0061937574810600245
-0.01663163125218846
0.00780483288059516
0.018659377585460424
-0.002128952879500524
0.006090589788461964
0.01472974279949683
0.06911013057039314
0.030226726551154864
0.06400199803760906
0.024155277527733447
-0.033131404529308295
0.02050741708064867
-0.0033553182937157795
-0.07014201968688706
-0.02253480003196354
-0.0715328902341912
0.05684530107916152
0.06402171353160344
-0.017602499156587664
0.047451843123682065
0.024622965167715585
0.061693148076006205
-0.030330441814112333
-0.02205391723224851
0.018225966896488824
0.02218292723883885
0.0024151749794323165
-0.017897857874827974
0.034450263404907304
0.011666234418755462
-0.20081074882786892
-0.08504936137365011
-0.028282753297290866
0.007952433011909498
0.021586797274050988
0.041346828425029195
0.0022897378035407825
0.03138428805878459
-0.01651159454271156
-0.004279642284461736
-0.016991864275430004
-0.010480208708416447
-0.03660498470566784
-0.009494627894387587
0.018535669416825294
0.06093815340398694
0.08304860799831466
0.015430218487612264
-0.0018775345721060257
0.009419603526820527
-0.009596244022729445
0.03925912393944799
-0.029632688778349934
-0.1674636820867628
0.01165458872247707
0.01439210968404345
0.03930345136500093
-0.019742595171137658
0.03172953550848612
-0.0015473653201466611
-0.005611207702235511
0.00014081190770662245
0.0019831954429672797
-0.003089644314656056
-0.06529974412828891
0.0012585611348447533
0.009168814251909968
-0.0072706889192614265
-0.021822098029956938
0.001925177880430563
-0.04999118125182505
-0.012400914881105585
-0.0023458493568474883
-0.023717270792161474
0.034194957162272395
0.03125114577628228
0.05660579047816631
0.015076599052568009
0.006897793335608368
0.011553368034572355
0.011684275291940131
-0.030412556429894336
-0.012267162027977133
0.03818271823040827
-0.010939636571126933
0.00046588090612063415
0.024994124855667755
-0.008683093251266046
-0.04200413206886324
-0.002015581046178249
0.030673084405460124
-0.057929254537135225
-0.004752592281751706
0.03744466217697255
0.06938034853584064
0.09057106731137148
0.009819948878254405
-0.0238221812889577
0.021397040251636173
0.0029786198081983525
0.028432543577167277
-0.001711118098491894
-0.026358209552768734
-0.0305035187516697
0.041368679740615935
0.010084551709604853
0.010087709662130519
-0.002600882797422536
-0.05434336005928373
0.012045970069514666
0.05876184205791152
-0.0610245240803174
-0.012123008588309172
-0.03757742724776237
-0.02193872307283119
0.010858412009128968
-0.02440409031565126
-0.007614102163658453
-0.004922932385631301
0.023560389533405855
0.020485960361668852
-0.07885756499498352
0.016985622030858693
0.023023596012037895
0.03903489643880162
0.03493148245467282
-0.011816808217016342
-0.014750923611203622
0.0179301629308144
-0.08622723392476157
0.02416667006703246
0.0018209306679838886
-0.006604909657958017
0.036862555689668355
0.01204192248377062
-0.03055632131795846
0.010346543256099992
0.018470365505770456
-0.02150719679439428
-0.007074901210373953
-0.14811621316816934
-0.015988165961177973
0.054447713524669636
-0.007128812927227158
0.0016122539764605415
0.024663698183038048
0.02971732574201448
2.512498469939973e-05
-0.027272715833751356
-0.011094654986267511
0.007306622877863474
-0.013295471149729423
0.03015759832800705
0.08082178474798464
0.0074765827573296025
0.0166059574252687
0.023161528558278605
-0.06296284474700714
-0.010089060948214086
-0.04758718217648749
-0.04175891352056855
-0.02586998620558013
0.02687892004382477
0.00451875956186546
0.13577880719828145
0.11077634889395582
0.016976811006172807
-0.029481802657673636
-0.03266781412374285
-0.039488885718388364
-0.029646400970728563
0.0050198964055752525
-0.03568364632062641
-0.02428211222006467
-0.021913894332522155
-0.012494325569758023
0.021094114459026547
-0.035768735649246375
-0.038635912733249615
0.013126473046351209
0.04094938298048875
0.0037280312225073434
-0.04765124242072692
-0.0035928725493806265
0.009391067582648318
-0.011873943451315823
0.0006795731671361159
-0.027082045138740345
-0.010059107067974535
-0.032943315039053234
-0.039534818058141616
0.04557097942625875
-0.03507124724055215
-0.02569269424306956
0.03705077759179632
-0.01657542770733642
0.03840956018164702
0.05463841035762548
0.04486731668878485
-0.0073531529692400744
0.029924228899402775
0.15035624273930698
0.007120946435995025
0.002521774890653251
-0.005026075910053322
-0.02160589587214537
0.014526632783579511
0.007290037170023992
0.041818754367055753
0.009493843777931107
-0.0068656950092301815
-0.0024490229203304914
-0.00863388170138656
-0.008328193561819129
0.0032132319301620225
0.015077533341991321
-0.004562631921515554
0.003795202077928386
-0.014405223171173423
-0.00711926303387314
0.013528259967547054
-0.0015729656099903043
-0.04235033209080403
0.005523948581719299
0.02513884996993709
-0.052930420578269376
-0.08763094760917062
0.01758434624932884
-0.01157883551351386
0.04645117647179035
0.039069609479730545
-0.025094812351563828
-0.024388774952411364
-0.01736205824609702
-0.03074846032119267
-0.00534868259437268
0.003877379770094312
0.007991966308788534
0.0059008408965694125
-0.03749074353671627
0.002189020762398896
-0.046947435051116766
0.01237683850641933
0.02019010584718017
0.014809700072274421
0.014109932053195478
0.007603333826242786
-0.0005032786532133233
-0.016403157021453837
-0.07048185033543904
-0.08045789708454981
-0.0013044785101427368
-0.021535399502489134
0.02637145078915989
0.04837851367210828
0.008812132751313989
-0.02019618407554986
-0.0021109861521566835
0.007354360912100958
0.017688629397196023
-0.07560606066386108
0.009186422370549662
-0.032773330958177145
0.11038286517859668
0.11874170416217236
-0.0278368376459318
0.009853223653485581
0.0489625388821271
-0.0036362550220040406
0.029103316119824106
-0.02003103388904573
0.005385188807090112
-0.015188832872213433
0.027350862650425366
0.015919445755067593
-0.022251242925320155
0.013223519412121769
-0.02523419642412421
-0.024677557422629896
-0.009918292615381323
0.01005130437356963
-0.044490202250489067
0.008695443731745443
-0.0174625223006411
-0.020014734947191918
0.010659136493732532
0.02001748636602757
-0.0020147575909792337
0.005278537825967895
0.010351249565073758
-0.021870323111629432
-0.033921824905850495
-0.0003419405846662594
-0.014796031657243981
0.0343415518489855
0.1077922586322248
-0.014758978891986177
-0.0038052424618988667
-0.008135305524660113
0.0076183526435355305
-0.024996475772250552
-0.08839842322890351
0.053115923182702356
-0.010266229973849116
0.022857299793879474
0.005165525680177749
0.009465158052352086
0.08553363355562284
-0.011828960333834163
-0.008797465438133811
-0.013279339190560844
0.0029523208748002292
0.01103562423680042
-0.0020060394443446278
-0.13499510967632622
-0.033856216337959245
-0.004215002836881281
-0.0037619517217426356
0.013120497734654658
0.05358483593572385
0.03849685451327183
-0.020100234717974234
0.023572256412894555
-0.003025222218108244
0.010365893304633769
0.004376075341457951
-0.02071553488627321
0.008225515710095894
0.012274970082993431
-0.010482043665732306
0.030567108100552035
0.03990161040956738
-0.03121387581509159
-0.061612736428124315
-0.0196621266211809
0.01330082823627796
0.008897463009020494
0.015262938811345394
0.025469864849727873
0.009965259580511192
-0.0022999247996415132
0.003726830860181445
0.04857085088203862
-0.016920167307876086
-0.07027393842145273
0.029653766444451345
0.01700542396109883
0.006513771119256753
0.01616822899892664
-0.02773266994592599
0.03423886302982318
-0.018465361714125255
-0.06190881723592078
0.04670506511445995
0.00017040544715916234
-0.005713126463919856
-0.05744065923327101
-0.04112436718227112
0.0021540183009494136
0.0098067615825953
-0.011012022114381046
0.013565622991635069
0.006519895949060584
0.06118527698325101
-0.02016185911249741
-0.09488966849475874
0.002192428359399729
0.02710701163906198
0.05077188154158239
-0.06081114465667151
-0.009188014796219812
0.030318838094343745
-0.06622121142059774
-0.020884621501113348
-0.03786056419592614
0.06264179977774362
-0.010110678718539292
0.09784301218264986
0.10969442572667913
-0.05843913544826638
-0.00017415022114591067
0.04477532316849807
0.06013492204982303
-0.019628016117925914
0.015316328140047136
0.028353619595252913
0.0018184840713959686
-0.0010306292823483792
-0.011167385826685442
-0.09135928866721296
-0.008633449206134975
-0.17726020549375737
-0.040692510465701645
0.017324471374372184
-0.021573503288413818
-0.0019673738479375814
0.008140524252610862
0.03581280775129456
0.012625405215416786
-0.0004951756526371625
0.014845656684812397
-0.010715727496898789
-0.024369793890930726
-0.009095639154505899
0.019509555626204045
0.019756961947681194
-0.019142524671913373
0.03618231008910887
-0.01305253856218367
0.012968577415079046
-0.02455482464757294
0.04525234608418079
0.0688784390022992
0.009931846769380507
0.0024194377427627285
0.001476818280291783
-0.0001556468118453783
-0.026223181984578917
0.00442789850347311
0.046239461489349966
0.032418148834007586
0.0216648748581365
-0.030611828888165757
0.013950305092327935
0.03464038338972078
-0.00047441451958491344
-0.052638548717300566
-0.015060993146560307
0.0031266986753246528
0.020674485090659514
0.010610420014232638
-0.015008074647221235
-0.013036748303860724
-0.023521924412087176
0.00993837288766808
0.10130318244502917
-0.038245246962058006
-0.018030605892548523
0.025617359132191753
0.028415564630970273
-0.029130273466030608
0.008112587571743357
-0.02382066349610008
-0.1157599282684932
-0.036807345194428256
-0.011665818787588413
0.011816257910916965
-0.01025322667379188
0.030661263507095537
-0.005644146394187186
-0.018116860439844465
0.010641574303835284
0.17611647122742974
0.01018478709216482
0.004501764871326467
-0.01485902821618075
0.030284750944084927
0.05642753841112737
0.08714690019077666
-0.0699320343309438
-0.16652013253651896
0.012868535345131996
-0.049458009648735216
-0.20624977272515346
-0.13952104182362157
0.023516057623192477
0.021303043502639472
0.039373107251170734
-0.036144720741210654
0.03350592734334319
0.011138418983732811
0.12300399152945121
0.04314418834373791
-0.02395502390841042
0.018232989847111147
0.04533637213967488
-0.01892754443629476
-0.03495812428943407
0.1274269194980327
0.15462413266591574
-0.04067038535005407
0.013068100037729395
-0.0555373766487486
-0.08804040733802761
-0.04660534086985336
-0.00610945881051807
-0.058890787731712246
0.008842914313246852
-0.015380678835381585
0.10870392209715811
0.05455166391082048
-0.051029469887227785
-0.006290023136031605
-0.017678893193663833
0.018459914479133192
0.014989264343209832
0.009560746949234164
-0.023098565882498867
-0.029935862647691207
-0.008436621770355469
0.05352549650686427
-0.012696282371980358
-0.012095034981015856
0.04402148472204358
0.002099625633126721
0.008789268856383578
-0.012990964247036085
-0.07102113699362432
-0.017426828525043205
0.06686725565178663
-0.02896057722895079
-0.016001006379309745
0.0159676707188484
0.02897942865170608
-0.0397114122072829
-0.018462543855382915
-0.019302512001041907
-0.04267610990355094
-0.010381325814837571
0.04090120380027845
-0.004277047763864794
-0.0041225759191788
0.05626562648777288
0.04198598779676609
-0.018848656912082356
-0.025976625193556837
-0.012117283480781834
-0.010177728111415674
0.024023946482251316
0.0030128086255732404
0.01356039633033421
0.023066321057364104
-0.029206266952973584
-0.0016478266388578206
-0.016822551941367836
0.07014781077312159
0.07454071872252398
-0.0009085439360636289
0.05344675369913965
-0.014441672844224571
-0.0033025969617915376
-0.00020437730962295228
-0.01334920363618959
-0.0815049184683312
0.03445928239539924
-0.0110569062210129
-0.06695905969713932
-0.05266120545520378
-0.034700656904133854
-0.022591181219155602
0.0036102469316812913
-0.0031160573425379878
0.004709354996025781
-0.007467771725159593
-0.004381202537004342
0.002260245891433523
-0.011760395377117676
-0.02092357068159594
-0.03808757786361291
0.012742737034329606
0.003372597843955328
0.05446232574444553
0.09107869889262035
-0.008633226520267975
-0.00584900587633926
-0.007177045497351
0.06809703422919787
0.026515146200614383
0.0009744228250194307
-0.009440793822230516
-0.00772988798988284
-0.031632191953158764
-0.017412167391736177
-0.0660078737638596
0.032695827467195564
0.051549211185063455
0.02786820521432507
0.10972002755548126
-0.002914520511390993
0.016448863523289028
-0.021647086852057434
0.014557032440046986
0.006731961203118958
-0.014304194435294461
-0.01200782756136402
0.017748253832037795
-0.036034294224431565
-0.06186887668271137
0.06520492031551807
0.009481041883284039
-0.033108056638813034
0.008005591062819853
-0.06479137400900448
-0.12411103516713258
0.027313086197697425
-0.03657903347646856
-0.07473538041616751
0.051818071478119405
-0.013594117797530154
0.001467762416066094
-0.08631540790906281
-0.03802571740173403
0.04017453129708263
0.0001498124839104704
0.04596899950293504
0.04317899864500255
-0.0316363815072281
-0.007407422166642614
-0.01371833912456751
0.045777746711296245
-0.0643975972940211
-0.07190278406846072
0.09623347518653212
0.01159083701383089
0.0115503879234391
0.02791702532411489
0.0019868312788474543
0.02979861669405797
-0.05001166885228064
0.07224467475726322
0.13735185946235343
-0.026859867264785522
-0.010168184206485485
0.010564588486247441
0.04603455020015118
-0.006432931353586882
0.03465713336030274
-0.0023409822632614254
-0.0218274291926663
-0.07602353416794748
-0.004536900135123969
0.017862825004329525
0.02275449141330422
0.07079301368145524
0.008082147549400249
0.005102318513775766
-0.035284144306348665
-0.028805678135869338
-0.025253441229257996
0.03556683245867703
0.009309778145910812
-0.010954066853648413
-0.03143921073826526
0.04451142961618278
0.01302879749364786
-0.03131420457675898
-0.003237059657781687
-0.009432370620471194
-0.07677642283881739
-0.04766402259227908
-0.008213517800338556
0.002876616643838799
-0.020972600715805072
0.04390409151345688
0.0956622645858723
-0.0022118805789642115
-0.013880069442371707
-0.02190530999442852
-0.017777137818078097
-0.03064957466626269
0.02924318874057691
0.006763141020400986
-0.03379316172541962
0.055254595228198485
-0.010531733206805777
-0.018165500038705335
-0.016221999859364476
-0.031496347627517796
-0.01431329321401228
-0.03515426735917995
-0.03720420305995009
0.028087185540103705
0.1190186816696086
-0.03694814328606572
-0.0012842733432379717
0.028188146858516918
-0.05248835748341078
-0.046157217578833086
0.026690093711296856
-0.04091359870349477
0.04667581778459395
0.03525868240263845
0.039715404193772154
0.053607033505582304
-0.011862392234905117
-0.018360093540162086
-0.050268251442932066
-0.04519673502103338
-0.010199396954332805
0.046442939379145044
0.005939134760108167
0.006121041463403325
0.06460277767412911
0.0026871481369497427
-0.024219820312890432
-0.020051743230380642
0.03132730982834122
-0.00811364632154822
-0.047871299691697115
-0.06268539881641695
-0.08641914140142891
0.0007229378509687063
0.042842112853909486
-0.004643233949430815
0.04138157058404611
-0.052572605213809256
0.053816396830848594
0.08089145961588627
0.0016384236385403848
0.013583496534688296
-6.424713744690458e-05
-0.017806710808512205
-0.009234261258360259
-0.005180079490581825
-0.004426102818767286
-0.03472425541612551
-0.06293034615665034
-0.025974182650116168
0.03484588495774788
0.013791797615817813
0.03969097965034271
0.011914637437152629
0.0024369340501876812
-0.004150720123664871
0.0003264867119217662
-0.017717505350383363
-0.03290061714184401
0.009011003098311132
0.01749243175524784
-0.008092666481088421
0.13427140814335795
0.04682697158044067
