0
-0.01773162933049737
-0.005884017230375873
0.008386009747026892
0.0031925646054489494
-0.016341577191348607
0.0017002972864971133
-0.027718451694375538
0.048682904686789985
0.026008553394686666
-0.03557916854872414
0.04262546970422305
0.014368475225733927
-0.028761053202460155
0.001501765904378997
-0.0036656882741330893
0.04186327966766231
-0.0011831216640719913
-0.006038705072930686
-0.02128546161536493
-0.0442616839814899
-0.07409227778395014
-0.02917612837557811
0.0039823658883844015
0.020654070032470037
0.018935020826883673
0.02374308985029801
-0.003850380769259067
-0.002529987942751895
-0.13357489864699018
-0.07338901352686186
0.02963756888185453
-0.00926374462660812
0.012641075719630825
0.02774428416970231
-0.006254691294511923
-0.007893760466093714
0.026684649547720755
0.04350733433801508
0.00034548866144460565
-0.002345541071702151
0.02497971490819225
-0.008728462039635447
-0.015481088555126995
-0.0014254075277870995
0.0172682303040007
0.01638049608949464
-0.0052123460087213965
0.012748761138694671
0.0013700556508301897
0.05423017926284713
0.0533363547412246
-0.020041724198901587
0.011014266164369685
0.022487818340734548
0.007583360085239921
-0.04531750066432334
-0.008693575450766261
-0.0114257607398896
-0.009378469354574016
-0.00991930129912945
-0.002892477408254792
0.042798711852275
0.04101137218481974
0.02816505434588825
-0.0013149796247408135
-0.06327679003734182
-0.006187047929381426
0.012407772948073785
0.0059390828953166715
-0.014181338109874618
0.006634167660808908
0.030599667527277545
-0.004724263307238167
-0.039448412383577845
-0.03129892159753111
0.0197774868216395
-0.026379964212235006
0.013394472236958716
0.036479449265822916
-0.011058207707976326
-0.013263867654747734
0.012095007172477875
-0.13245898409803453
-0.028200339605587564
0.058831385152880986
-0.01707846227449832
-0.000816629344812355
-0.021782900471111973
-0.019145435783361628
-0.010348005904224137
0.07781895576556006
0.08669743009586406
-0.14438843343232063
-0.01926717489830199
0.045640749282291185
0.007594775542236977
0.03461882762537464
0.022460373980778197
0.018080508769627777
-0.010117010099324418
0.0073055145644966325
-0.0008729482976857851
-0.016613598370075245
0.005016053809549035
0.0127150156133505
0.015009600196943286
-0.01430137218019725
0.004557136855429387
0.02322520905795359
0.005950155097701372
-0.0031731840703645817
-0.0027045045445783502
0.028173699224442763
0.008581381559495697
0.0007673345365193862
-0.02789602526968798
-0.014197143986389237
0.018866300460681606
-0.003035045291666348
0.024409419596154346
0.025753882388652397
0.04065178786024438
-0.05593205846013197
-0.09646791694759038
-0.00010776164418160953
0.006731054299388526
-0.011745308986113744
0.015652554063829583
0.07661023867043386
-0.025599046797768567
-0.032690366244982706
-0.047036323380273304
-0.024593096708583027
-0.006109635798415419
0.014224171198318106
-0.021480751675597043
-0.004629547655956274
-0.04485395289433358
-0.04074306135351675
0.011719920341665717
-0.010639582818908621
-0.00620049857637604
-0.024882357363473318
0.14703386128678061
0.048211799157746225
-0.013872988423048965
0.055536023837369185
0.02652644480666063
-0.026817389844833117
0.016125410800650584
-0.007357007467395513
-0.22066471821075861
0.0007334747758924485
0.050144554142333535
-0.012465775969562335
0.0040902242887955395
0.032992696800247204
0.02505643863650388
0.030040858041076562
0.012695064050045595
-0.026517897962972617
-0.022792240074688823
0.018293287960361792
-0.002503187585817572
-0.0077343880936250175
0.01722698080597261
-0.019969326934097992
0.04384107288081707
0.1574211384320089
0.0009355990916591433
-0.032434664144990216
-0.027721517876179057
-0.01788184588721775
0.034425559385836385
0.02123626910785481
0.0057213019185785195
0.022301522758404628
-0.004331820562076198
-0.01611779182719363
-0.0002925261879382869
0.04224394561256702
-0.013088418803873554
-0.013390280811342609
-0.019469754594910245
-0.08535141502457887
-0.005774758726078504
0.027467627643706496
-0.0375483285037887
-0.02953798412551112
-0.015726489998008426
-0.0049947275350559674
0.042526402155844925
0.020605801272355333
0.017276623930224777
-0.026953524559754513
0.009586721974344667
-0.0752110052481622
0.013283691254095157
0.030711081965325748
-0.04050333191177608
-0.006112781237227805
-0.0273665179414478
-0.013655756722322913
0.021247939678608104
0.023887440504390647
0.0016509787093100356
-0.008234511218362623
0.06439863750823688
0.13744863000180543
0.031377348678712585
-0.07204792483603704
-0.19527740449558328
0.017980888434291045
0.012036758299572698
0.00030575807777188143
-0.008738162126456095
0.015993411187780547
-0.01782607912326187
-0.00651532703614918
-0.028437807597320532
0.02616085014920305
0.04551773358527118
0.012349940881824022
-0.009210391041447595
-0.018968322250033025
-0.03263966853686623
-0.018499018762259782
-0.018121320294262597
-0.014196952833027198
0.001429932484529423
0.06480733589001982
0.060297416567819784
0.05603433168350264
0.019050000676539804
0.0006081565272712001
0.019727038517733247
0.01656656024543971
-0.026802172274274706
-0.03305729147750778
0.0004257083548469572
-0.02549651526185603
0.019310188155058233
-0.03151774793321824
-0.02866666860008978
0.014333996104956328
-0.023191069209605314
0.035727583959670045
0.037557919697133256
0.01892347819987823
-0.011314843263439562
0.0215924405666965
0.09616161849659705
-0.016189010830849802
-0.013530148866866477
0.003209242868495495
-0.014782787315608706
-0.04077046510417669
0.007212205142100853
-0.08313246095678012
-0.07503501097492098
0.010566610755145506
-0.013400563778654758
-0.0411664317121341
-0.01839116793788064
0.019674398115702398
-0.049754894885616165
-0.010878473542129594
0.013514101425206424
0.01671389320126835
0.016864874146560647
0.09770514489470844
0.004853487792550052
-0.10445107968264515
0.004786661177829449
-0.004342291805471849
0.00814073154766928
0.02058304864175147
-0.025634331287790607
0.02629383793543665
-0.00380638679939032
-0.023107137213778453
-0.0024223276220750006
0.040065308295813055
-0.0002535580314205198
0.004402631048528236
-0.024004572624711437
0.07631707267161834
0.09489897647698806
-0.039499838792511885
-0.05470300212291417
0.0056785367841287486
0.034619174532842696
-0.03587520568296714
0.0018313710061811678
0.16951332331527283
0.022199271862713435
-0.031380591790377374
-0.037635244527400295
0.07552597012487824
0.015328546615363871
-0.07432313245389258
-0.04478264616998761
-0.012351649403409885
-0.014522285115113153
-0.0030275517133736924
-0.01676858378494525
-0.00229410507907913
0.04132188366179781
0.027397506190774936
-0.041838447030585105
4.776119256350905e-05
-0.029016707136694093
0.002877629332432721
0.0394433499412774
0.018687057326130435
-0.0013605902038258519
0.02073193363594556
-0.0013214486437738543
-0.019737455692211667
-0.014187603708970993
-0.03640667067162465
-0.02486945115145204
-0.01154877821154481
-0.018614477054480574
-0.03728728208426649
-0.010817213049550701
-0.02120856455096367
-0.019297558551417127
-0.016594892664561454
0.01792652946662927
0.0009969728887060892
0.014260123976467656
-0.006499231720999572
0.0468426817598358
0.03762202831607482
-0.033567633119452454
-0.002651597967024968
-0.018689059627678556
-0.003975318666659488
-0.009052109238555641
-0.014388970878315489
0.020012041585284843
0.06376553674675349
-0.03211769670524933
0.020516375611521764
0.0011260179121445767
0.02063579929807681
0.003182799457748432
0.0139287139131415
-0.024692699613196048
0.002546264706645634
0.014025559256771424
-0.011872492643093356
-0.018445898322433374
-0.028114662464382444
0.0009824817397730858
-0.006840962515401891
-0.021020387084420954
0.024638340538617222
-0.002377166890056975
-0.004989829937802846
0.04959740172437208
-0.026044676056504887
-0.0023830579024852585
0.00736688627347908
0.055811834241490034
0.012102310367390337
0.008646742347056615
0.006502606382088158
-0.003244619790036001
0.03051729027767873
0.03187987072446524
0.09415843379850208
0.015200481593920578
-0.023443138991405755
-0.03757564191642388
-0.022282322847218886
0.007075353643291388
-0.03215770017841594
-0.041853472616815664
-0.031056224688258752
-0.011234680280808259
-0.026989352090656133
0.004390216011468277
-0.008641798281492911
-0.018155435232520695
0.003487524641773584
0.024850614065122345
-0.008164422108424503
-0.009751719580615862
0.024155817219311645
-0.035790648056537575
0.0824528615541555
-0.12508101030142776
-0.03270486662908403
0.010284936908728667
0.002872801408045581
-0.0015848478565653403
-0.0018557584820025768
0.014837834472252953
-0.00043388791189854364
-0.025101114084516967
-0.019591532933301473
0.014621829619819282
0.031946650645941994
-0.025858764952140057
0.014577715853495985
0.03766497060572707
-0.013350112830791542
-0.018978783517333203
-0.02688663159128765
-0.002593757676757515
0.09679127558599933
-0.036243476960757845
-0.035581278671213135
0.06542963622234373
-0.01425676118845744
0.01205003475343298
0.006074120937840127
0.04950250718281709
0.012520187053953823
0.017946776923383846
0.008986299185111091
-0.0021996883062316655
-0.022085663101479403
-0.00507088741682184
0.01588047354167698
0.031206377995769814
0.03223588365832655
-0.029198782574587027
0.002209663017056726
0.004928911506323834
-0.10026864951356952
-0.004406517519669146
0.030879255014473837
-0.020932297356590898
0.016084343459158965
0.018364787318096525
0.007045393660357886
-0.0007504666156187693
0.027949898138857773
-5.6900767024240896e-05
0.0030001868375706064
0.0356681785851651
-0.021010720571250602
-0.024519060259056695
0.028417301861086774
-0.03797930885644502
-0.00031712817918244727
0.00604169399520264
-0.013517654246344862
-0.020651764310303546
0.02183921175621069
0.0016507861439863203
-0.022587658763355715
0.0021847389838571094
-0.013374256549830894
0.02828497506036872
-0.13774739571429595
-0.13073767135392247
0.02841788956763395
0.0018042965232910595
-0.014048254221346883
-0.007212712706642241
-0.011180841881802916
0.017583468483077798
0.02166793689271842
-0.05572204068505625
-0.0004907537953412668
0.02826527379879857
0.08618951347958795
0.030053061459010627
0.03363564156729782
0.00732845489943904
0.015531550113629855
-0.047205075105425716
-0.04432134947436972
0.035506733140342334
0.10854671706502951
0.08312732829232489
-0.017462047377347176
-0.018928028056501935
-0.02942478174528046
0.00528403643149988
-0.01679895203062629
0.0130128888494435
0.010076574157340016
-0.021983673386874195
0.018179931974222366
-0.011836310197785405
-0.04239864632774703
0.02820295910167134
0.010116988895983343
-0.009622458822900835
0.008914565837091274
0.027950439847443054
-0.025254768493555724
0.05272220069045512
0.027914342315430725
0.021560362972439958
-0.009675642418246158
-0.004751854599073748
-0.0005877442343108193
0.04173098629943505
0.010484888609217029
0.018208430658683817
-0.034100388909655256
-0.09987803469349096
0.0067755559475063875
0.014666905606642798
0.011028350512562691
-0.035147037923665865
0.02921525911846878
0.07129631280169295
-0.16467506669721566
-0.04717196639704671
-0.004929486972998783
-0.006460146295490065
0.007337020403443746
-0.005659086110894158
-0.0024434975502818524
0.01717683698319574
-0.028840304336598028
-0.05132264390174585
0.0035450404057033483
0.022500692225307296
0.05307560729740206
-0.006806134477499097
-0.006603924146134817
0.01588339534934351
-0.023638008720460922
0.031185843772018995
0.05979980533671131
0.008359951603542772
0.050259684701744974
-0.009760162506514777
-0.024177552365834347
0.022478579510503492
0.041066208198671864
0.007576899217260258
-0.029930513448289276
-0.11109290987789484
-0.02117032606210623
0.0403346125680577
0.012734501155343428
0.008549121556539205
-0.05886999633312782
-0.02564532841693713
-0.056101128136872486
-0.000674369032104056
-0.03947878566598221
0.0077835660022135015
-0.022043210780473138
-0.006687137195299233
0.008435205586242198
0.035721589491413866
0.043054597393410804
0.14806243267878685
0.12003457747382235
-0.06462464715777724
-0.04875306638845529
-0.029196487510785407
0.030973474225502135
-0.031484484770341374
-0.012314442096545926
-0.02167636494281413
-0.027165589014185
-0.0005331596304776579
0.02774996543439852
0.01354503000251966
-0.02270972656347258
0.01193371549133412
0.010148270983258796
0.051674934631005545
0.03221260928066295
-0.026056363767847146
-0.027551965692806882
0.02434192378776682
0.0481099997803779
-0.012250940830189344
0.00979106550855655
-0.057187589507437665
-0.025261074269078677
0.008288923330736145
0.00652012157785898
0.03990783926694084
0.009915096925212464
-0.005635953831514712
0.004894730619102226
-0.13169768260731698
-0.10517605799158712
0.020633760637157137
0.039839223242958785
0.005044074745347749
0.03670042369689814
-0.00630346270409937
0.03699506221214058
0.03774505089316188
-0.04285233668363518
0.03505712629673011
0.005038846179698198
-0.010543329358177558
0.003514642364822299
-0.04541691180091565
-0.012545684291752828
0.012571919330129284
0.03421666217718886
-0.022068897945839237
-0.01336850388059029
0.061775647135959656
0.024350214108984112
-0.011998627120477818
0.01873907076727558
0.03457414318058811
-0.009740803997466923
-0.018095672270422056
-0.005205185557575045
0.0005670403803334995
-0.002372100831537896
-0.03382546960472312
0.013449157844633275
0.0346280652473093
0.031816223732797855
-0.007029766237689154
0.0352064715295311
0.0036593549775424104
-0.008728419963849994
-0.11509702633799322
-0.02548692290863378
0.014857467150195062
-0.0004110566321287672
-0.014474959701154928
0.001091817406643535
0.00552417379225656
-0.021470777620544446
-0.0007890819569071689
0.023438960963824328
7.308596538429748e-05
-0.06223423738239369
-0.011228995633441667
0.045665188994182385
0.014973942893506039
0.01865969530573291
-0.0079706905343651
0.031012358271591906
0.018016864034804497
0.007457230473926773
0.010859085180434174
0.06116550092261618
-0.03131640942946546
0.03040864493843769
0.05483943061026112
0.04188999691653703
0.057826348724915
-0.030498589073487892
-0.028267989274522468
-0.09308817492842043
-0.022316487736632105
-0.0012000774566454954
-0.0337291265735499
-0.01964292227458869
-0.05904097129664126
0.021270501915268903
-0.11195713644350949
-0.016526643682990283
-0.010497521617865527
-0.008144302253120583
0.005730790776929994
0.06038969430801015
0.026838353532112034
0.023366866594408432
-0.03294981509154357
-0.045630038558721935
-0.03280202201437339
-0.02099842701880911
0.023641043724995453
-0.011482234302573184
0.019898561780864087
0.046095844694109434
0.005949362427298746
-0.03412321138112041
-0.03159982175576257
-0.0330121686073425
0.014634212441977747
-0.012021839236128045
-0.004547651985869383
0.005577150223752904
0.021407990969754143
-0.006173186797020698
0.012763175459267792
0.045387172758445976
-0.03551792669542105
0.027469341597957917
0.14754203499777904
-0.0340214306277086
0.018650694383659645
-0.033640035611467604
0.025028445524719944
0.016499459017369333
-0.010441576407476448
0.050238994005954815
0.041219201081505244
-0.008671563466465733
0.006926628685399453
0.006505408067922037
-0.024730753949247588
0.023675977867450404
0.024850871274801515
-0.009845767875717741
0.026062178392114475
0.02147053278859448
0.046374921532130256
0.0030833663997709374
-0.0074718004597391025
-0.04252148608330299
0.056869468906938135
-0.005140061213953001
0.044753856173952694
0.0055947982845813825
0.04722669465933952
-0.23886054779673438
-0.14930591652762126
0.01304432734259184
-0.019549689180802472
0.012958860765496601
0.0017295167563010274
0.05052943309895366
0.01989181385855245
-0.006429173861615886
-0.022523042477096678
-0.10719981994664808
-0.12764036050990657
0.01562188776338272
-0.016455734134805028
0.03488999410367728
0.08395032631554382
0.004555511690691748
0.011996474360813584
0.00215037792776291
-0.03157423903011988
0.022879598120744898
0.057300748608300145
0.037844488868679485
0.018967707565648022
0.049521187265329024
-0.01742362648593823
-0.0020605558681622434
-0.025203807928738543
0.013048009219364628
-0.02478181208673398
0.02705498316386521
-0.02981915249887516
-0.027090943290439925
-0.1542472059430207
-0.11131850825685972
0.045961823033565205
-0.008089779568872022
0.03259829557156469
-0.0206319119689917
0.09706924028746054
0.09483237824097175
-0.00484953931610965
0.02424236664098056
-0.042499245700465156
0.02579547914609829
0.010769546144163717
-0.028939596149808452
0.01831633098519905
0.024833589143458238
0.04120008064406275
0.037827492789195144
9.153956394299043e-05
0.020415237988329817
-0.014031019760696898
0.0017431961783429416
-0.014439060084253635
0.08565056382581976
0.10275626575613904
0.0022235524578342906
0.020119745826444883
0.04171583216666463
0.0571596094784552
0.0168378068410638
-0.005341360858456821
0.03604863849105899
-0.003919744817877421
-0.07810074394497152
0.012019102075241084
0.0041514698322675896
0.022429676025248205
0.023050511204054276
0.0011605083211034307
0.05781866766600725
-0.07733955426175218
-0.05052230309185207
0.05914878593031081
-0.11775721410924417
-0.342270597831886
0.03753496690126894
0.013969352380056104
-0.02385643011899558
-0.017221863816344437
-0.09818770344212796
-0.05079007155124147
0.008676442458118832
0.04452220007927703
0.004404821298645755
-0.020335388414231496
-0.007415400591795194
-0.11951879284618092
-0.07990241026952571
0.001125145348499932
-0.006807251262084873
0.047370789735530494
0.022324009458414923
0.008264185662759356
-0.032210732237863283
0.046075960596992684
-0.0031625627233493265
0.002153067016787587
0.009537532662278718
0.07862102280696306
0.026451034554418773
0.038974938827715605
0.007675426656877662
0.08019248625881034
0.08747331079084023
-9.243978325879699e-05
0.0008798162028562517
-0.016164876522406536
0.10592952510966254
0.12447041741936106
-0.040481109494281485
-0.02571204153773772
-0.021039493585578762
-0.07624942181776634
-0.05340119624744705
0.006622147474112728
-0.004497992865656802
0.018670703539574687
0.04952962278804515
0.0064941380863670385
-0.02111274811543108
0.022583773510428257
0.006197441998610085
-0.008088184687645335
-0.035519111643702285
0.002651055223977454
-0.002210671731279347
-0.040751967180182674
-0.04597784104460544
-0.02388098096231263
-0.03189555275741256
0.024010440273645996
0.023466449753948664
-0.03258195238699665
0.007234993161938349
0.09175302700288479
-0.04027016399230018
0.0314196241935541
0.006241461286086743
0.01928264026637022
-0.007159418612399065
0.02626229222743282
-0.012359864577885425
0.08891610615643253
-0.007661671951427004
0.06604784403413973
-0.07051290338045559
-0.07050472793997796
0.03086722737917469
0.008491409254591518
0.04014715835057861
0.016228094106090364
-0.014430093022684595
-0.023892767200302877
0.0077303498699044125
0.009313263081175978
-0.018235288350147212
-0.012290759602122734
-0.018411203264498615
-0.0009494872462464294
-0.037525277247272885
0.012401681367246032
0.02418810385663184
0.024876079709394573
-0.013435460442866535
0.05474137378778136
-0.026940679285804896
0.04830997561437224
-0.016266077713324494
-0.2031681660058968
-0.04937013029097964
-0.04131824115648168
0.003530977882424264
-0.009131399752068562
0.006493073177314409
0.06608113944988539
-0.03837168764633285
0.05168759542473804
0.05546403363164103
-0.005251522956438309
-0.01626045150900944
-0.06208152451769429
0.02616994246414223
0.006022586427483413
0.0016660632103691496
0.006726578708012605
-0.010085800719118803
-0.040821378306652556
0.04296959693895432
-0.02713301296965866
-0.019507063321346434
-0.009347626735227266
-0.016042713375431648
0.06285018223051575
0.03695488655135999
-0.027317823146864713
-0.003168264781273756
0.05460481261654333
0.04325557317289766
0.030654982477065097
-0.010170577605805546
-0.002724407446869206
0.01327539743194666
0.0007089802208117553
-0.007752625295122103
-0.03440804790390715
-0.036825801338388905
0.08541176331335777
0.04795058325865144
-0.010770042055997022
-0.005162299456756587
-0.05906752676712995
0.009194289833402178
-0.0074605438121690916
0.010365531094036677
-0.03382809966787795
-0.015299351879077045
-0.04449679189155422
0.024100318569985
-0.010043557405319831
-0.04133550101839142
-0.020708639345224548
0.01638054711343396
-0.0339358088684246
-0.021124860825419204
0.06413071957467564
0.03993759766785124
0.04673927426380425
0.023775413528073913
-0.022874224189652
0.019429487036839912
-0.013963025522033885
0.02196573279677185
0.015030535536694803
-0.01861277999615383
-0.007880526600957215
0.004458006854627538
-0.010975107440372205
0.013686791297739538
0.0005746079849104065
-0.018640292398911476
-0.04244410892010399
-0.025030836177234124
-0.010811840625312904
0.02275721591509735
-0.07733116864221981
-0.028020044663736386
-0.012384329846548211
0.010043182445547957
-0.008711717714885886
-0.004955784559101838
-0.011555229039790086
0.0657492891823829
0.05407084350538845
-0.023887955022420686
-0.05732185971637816
-0.00669725778242741
-0.0024309161231011907
-0.01801184392993774
-0.04418897273176937
0.01311108334895881
0.010637087754496203
0.027490498854712133
0.027282079292952014
0.015100519155812052
0.03549432494875825
0.015406029562104866
0.05134901808733192
0.10976723764392811
0.060593972178203864
-0.039957957638028986
0.03163480131946894
0.021874781171532038
-0.020269640450000948
-0.024249029195934226
0.0034123227752842294
-0.016009255800152285
-0.01046418116252832
-0.01955208990454772
-0.001309498000525725
-0.03155384722106227
0.007021750152035878
-0.006568742070551719
0.004470617312872896
0.04448052611068765
0.02609464899275867
-0.02521472961954914
0.010889740590312419
0.01823915997689545
-0.0027649378621274717
-0.010514286830865863
0.02283118597378788
-0.03277249744752707
-0.012633933518031468
0.029030930895907768
0.01756738282375179
0.015412113764286535
0.03126682207789471
-0.052259242097792466
-0.023231072140423567
-0.038241367061648386
0.003377935571069357
0.025596239402582543
0.08873658109063337
-0.14559208735001491
-0.09877040592529379
0.01217629590033112
-0.050749621112587434
-0.026857122883502935
-0.0004033904021270399
0.004531491801989518
-0.004539582130065972
0.026945378531033348
0.018846710217499126
0.006985065143664888
-0.012511504160683888
0.020725678438936395
0.0036856477027443525
0.01359748895761885
0.012036171116207745
-0.027682727586599114
0.01897205216431146
-0.052874705571419496
-0.09663113253424652
-0.005004956136427748
0.022728949376938565
0.021853569354150438
-0.026090836567997166
0.03307170201165505
0.015500873876925286
-0.004697355578087054
-0.0096296342408674
-0.013549577705000716
-0.00460086079967071
-0.02744796180326949
-0.006648188195201265
0.028133132438927323
0.012200375981091846
-0.04686254472689543
0.009114504736255106
0.016048513239576085
0.018582239554799155
0.0561416373021768
0.027065310347963088
-0.009013126917297956
0.004524387358138707
-0.005708986170773523
-0.010451793171789778
0.009441841883005533
0.03927130566738862
-0.005893048803137544
-0.0028116136506633463
-0.007932334060933525
0.04251817204171962
0.043752471170110684
0.030382060927219037
0.03913633716111958
-0.06020656664712341
-0.043920351313671516
0.009009404796534065
-0.05508971453008853
0.00019108847767601754
-0.01674942670724261
0.09270896533329313
0.03157295999733783
0.01092885142748947
0.010340598138305245
0.022390074552371887
-0.035210739042194704
0.032053053724037606
0.04986092316804146
-0.007743074193927678
-0.04239681707565109
-0.07434609755346724
0.03858939423754564
-0.03504945463822963
-0.005262703905157604
-0.0044696876141056
0.06960043050548846
0.02822905556136275
0.005761039383731301
0.013532640550452113
-0.013362714462051778
0.017832115353703215
0.043691047144327685
0.03186357891255249
0.032819836041759774
-0.036913581746457286
-0.014266967266024446
-0.01334751622303062
-0.06831067275335519
-0.09232245254295393
-0.0035800175115014094
0.02200386597450947
-0.02230966319322074
-0.05946083053578566
0.03212404809768082
-0.006436574840685634
0.030346058703245873
-0.05999134359239287
-0.0338702407819811
-0.05101548091830095
-0.06980214626831499
0.01844290215901366
0.026637100313023097
0.0029267840399774675
0.02726406195124167
-0.01678280592477593
-0.011438082879034637
-0.002335063205181611
0.05093697020944438
-0.0045354818866359115
-0.011980670972891011
0.026405832248146275
0.022037723961817093
-0.010975355428693198
0.04103424826191685
0.11735646949854854
-0.16999422994319918
-0.010042775388733542
-0.000742560707832331
0.06067893923893106
0.033536772645683915
0.011043512562653523
-0.005763814264679748
-0.044832856817488595
0.02352748345851289
0.005371176363866042
0.03410173327753114
0.024937621066271152
-0.06364836376670943
-0.18810060005788515
-0.06672885025386298
0.17560568894968803
0.00404589145222281
0.00913660840888384
0.007398064362147638
0.12519520211602064
-0.002283782748184676
-0.020914659582385173
0.027338924599365665
0.03184803697796403
-0.07926083271685114
-0.07145781266253895
0.024563162290387373
0.008180962968181363
0.00025999950071715883
0.014069693289376605
-0.009611260947825554
-0.01849213590343535
0.03182215404354595
0.1201392743255992
0.02943150159939439
-0.02346077769477111
0.006683321276607665
-0.018985702185485464
-0.009314110027667171
0.021249817842414368
0.0015434843139387336
0.024294531083086827
-0.015834060949456132
0.000926744222115845
0.01755741820546408
0.015426577486365329
-0.06895611412605679
-0.016941715114367966
-0.08899374682884456
-0.03161267243281202
0.04374514082540653
-0.016980677609487016
-0.013892871557144313
-0.023295910309023816
-0.0013794365990090732
-0.033359086082451486
-0.0029433984076551486
0.025890039879290838
-0.017242378513509356
-0.012256501570464066
0.024687965782281055
0.009778470840624475
0.028887455796977348
-0.05733517497359917
-0.08205518523443614
0.012528876102775447
0.0641924602043973
0.038061108971747006
0.017977509251128784
-0.019784174571939418
0.023465983203739847
0.007110560363357211
0.009222107029113623
0.01495698896533703
-0.02737291040427633
-0.06889200383936935
0.00019666243153031868
-0.0282970593901367
0.19172708288540918
0.12636580618083332
-0.03518238359730417
-0.08681954340734338
0.004910191732360317
0.07663498882519482
-0.01302197943337866
0.024366391103920797
-0.0497830432717525
-0.026895930738406147
-0.013330431572705163
-0.019137826920283357
-0.02727582741916259
-0.021662172382190894
0.005683424654664575
-0.03146209924040826
-0.010821484506051894
0.006686179422735622
-0.04506827293872828
0.013161790675904643
-0.007899046906833424
0.0022024056265875273
-0.023731248007285557
0.001953731709456557
-0.04149059051360692
0.013080488504410659
0.08746701967565312
-0.015835549267391134
-0.004489086503703263
0.04846349209395118
-0.006155350785744653
-0.0011376983254057092
-0.017878884438676343
0.024594214518715216
-0.004720979565605277
0.00455634811040667
0.005781472635681123
-0.011100611799522207
-0.0037147564091680745
0.018676598923550766
0.004211287010254121
0.0022136872306928066
-0.030357031620103603
0.04795287613798819
0.09913796533965329
-0.020624468539664445
0.0032442668434932292
-0.057642745686728454
0.025783007435249986
-0.08171310785840691
-0.00796990458894292
-0.01792333580946476
-0.015671196831196787
0.008570218632905108
0.0031302412400043894
0.0019799818312320376
0.007132207802144279
-0.03138050102131801
0.0026014266724528425
0.011405435294165156
0.02407288350306461
0.028290592891044578
0.08613189880420857
0.05436339679843894
-0.02733559508099031
-0.0024005541635625416
0.021674127408271793
0.016983688621005404
-0.015099643000848864
0.020638009552551555
-0.01627959164844233
-0.0680583523802047
-0.03054281882216042
0.003865793037916414
-0.02424147366609432
-0.04033143437477077
-0.002448066554652149
-0.025469779405363133
-0.009445061913439709
-0.03696679792588211
0.00505304384973439
0.007190142179765481
0.03641123602183668
0.01742707908671968
0.019490206272557303
-0.046935896724118575
-0.035927365260711136
0.03430443002983231
-0.016869635020531973
0.01275934769712879
-0.016687750575111925
0.023136428748277996
0.021522561381676925
-0.006296331514112493
-0.004068633914058371
0.0016047142045011367
0.040664725006801405
0.005172044283494074
-0.00736270143622597
0.03444827049707569
0.015886657427058935
0.018680424370026812
0.06888150637825269
-0.010128141918547221
-0.10742590901377065
6.696153193739964e-06
0.013093301997588342
-0.013659560208840972
-0.027981330256274087
0.0033204232287244733
0.036183243268754876
0.05018041994549273
-0.0944189114269513
-0.08503960919400451
0.033498728527454835
0.0007003023605574292
0.002930172634450277
-0.019005746421233927
0.03266449967946934
0.00812804863539807
-0.0025505508323227875
-0.018218752963239545
-0.04239938574373925
0.008339193174425457
0.06147047780663265
0.02040313426778438
-0.0052628609423776
0.028620715115995895
0.0015881582260972049
-0.008537088554556562
0.0054245543963444874
0.012599275415511958
-0.06123953149260084
-0.03776560061582046
0.02549457261912423
0.006846341380348686
0.017691150450847522
0.003411704462208383
-0.012092643645543182
0.016691849247277634
-0.03203936351022469
-0.021302510211183522
-0.016948580105279165
-0.019528717866186585
-0.029037591499365172
-0.04855339411082197
-0.0029980372114583012
-0.0017553402502681142
0.02295587060919809
-0.005950655521697807
0.13050286049444293
0.07366978102424385
0.010420141964182969
-0.07227193327639848
-0.02079609058017868
0.037133827763219406
0.04953628406780133
-0.024091053456931938
0.034782975339948445
0.034245814402078315
-0.0032533106383893784
0.017706798882232738
-0.02572020828095461
-0.05423279031721013
-0.04509399729496329
-0.05496675267826428
0.010889345276635702
0.07253478422901342
0.04754704293009084
0.020634923854509265
-0.00797237232616767
-0.012085150437307613
-0.03193132118068032
0.0766751762328173
0.07608131661080084
-0.03607820838873095
0.042738760069903146
-0.1437303760835911
-0.0024891866612469105
-0.009573853255442999
-0.007151247467478083
0.04058291839170274
-0.0315878888901393
-0.026229044645818756
-0.02476603308887059
0.03441861669081613
0.00015156648460448616
0.05484670820644236
0.05857220144754443
0.0006166557814314094
0.003494057793198678
0.0010641282281054127
0.007822232044426898
-0.051953745383841496
0.04177192019315508
0.022279421126462255
0.014410378236964554
0.00027389055257056184
-0.02028149861085112
-0.06475373930268695
-0.001167365636932101
0.009224407211078244
0.031469600959580096
-0.13997286382243904
-0.1406024096099118
-0.015826837329124113
-0.026246776176659718
-0.011217169483116867
0.07329593326781032
0.03816529394322922
-0.0432951476571313
-0.027723912558676334
-0.03263137855539356
0.08985956449003733
0.038920587571025775
0.03782655755453878
0.023930850704625556
-0.015283178345174836
-0.05282616506190448
-0.013231220457171183
-0.01808276567276376
-0.005529309692961067
-0.023666662184318975
-0.019190718668084476
-0.006772116059208017
0.0364590745313408
-0.005393105418043311
-0.013696471794408041
0.03468478921613548
0.0029494053367442406
-0.0027211707448825963
0.01578325322718521
0.05625246874353217
0.0784428428244338
0.04542211504986084
0.017039048480121964
-0.0218028840416527
-0.07116327735111047
-0.0005349317585209929
0.0038165678193644876
-0.018847723402004364
0.0020954357511995527
0.032130219944286095
-0.023107816384545714
-0.0529864842567731
-0.035738109075104586
-0.043112764543080585
-0.024333495746090797
0.02589345941974276
0.20545975431223604
0.18896641759233446
-0.02538015888235518
-0.04205873467061282
-0.017191174289691642
-0.05097875565159999
-0.006428261293740103
-0.01042858800399083
0.010573373862127615
0.011535224375969539
-0.017518133790662083
0.012450365092687828
0.021853788690905682
-0.06464929378599608
-0.023807997539042166
-0.026242019794843488
-0.03718507931254479
0.002564345892591629
-0.0030882664380711706
-0.018007161565355312
0.07358263367787603
0.062216328441150534
0.04938266945801189
0.10098132785195181
-0.04779600733094474
-0.03915316501554762
-0.02032723270690651
-0.2065346320456942
-0.06764264020276554
-0.0014920942906042642
-0.007594727991104271
-0.01971028508674178
-0.0050562983719800265
