0
-0.0077153221299564876
0.028398136327755626
-0.0918286915389596
-0.07623143513410353
-0.026136603446174567
0.006762509918537322
0.04770890403128342
0.018848207578866637
0.007654105473085583
0.01589797206097502
-0.013440453254087886
0.020138506050497287
-0.030595781103287614
-0.019538847803763398
0.018621583710254675
-0.007775736114080414
-0.03224118978748126
-0.010049495052510885
-0.016736571353941927
0.030487005844362376
0.0019524681392384126
-0.033629333415036156
-0.04824723962087564
0.1068163541587918
0.08460590479912523
-0.01105340134553524
0.020752322392674615
-0.03099341295793029
-0.01879517890195228
-0.07327258215293785
-0.04896761171500263
0.008755235032703089
0.006932230248051127
-0.02628918057256879
0.06648064087659296
0.04187451198204733
0.03626942029002312
0.019638021703172845
0.005320761702603626
-0.008156856625724244
-0.05904397312993313
-0.013722877291211674
-0.011292554070169958
0.017811874881422055
0.019627485415839606
0.026210438584240877
0.01815572667010543
0.011829773190759217
-0.008394445739367947
0.02191977702470208
0.06676984645069049
0.0593439114005893
-0.08758449225545338
-0.07374795418234223
-0.012572017800257844
0.06250273855583645
0.054859815039510706
-0.007120391440914269
0.015822633985428998
0.05434253505594628
0.006904942843657883
-0.012441127529083457
-0.007544692269112246
0.0028981656560270906
-0.052617642779910885
-0.035471810628420614
-0.007461979118394709
-0.08988536739281902
-0.04217216586777568
0.0012192965016338563
0.03537382461875733
0.03277668224315985
0.02447410322942349
0.005560346593525873
0.003708427239242431
0.012675936386325977
0.025385283973028257
0.0088952977479008
-0.00828006322068584
-0.010710890012209751
0.0035752407336152965
-0.05701413600209335
-0.036772814172294076
0.012095717157189568
-0.04097858182451073
0.03234395063798275
0.010113689931366755
-0.01030288932796195
-0.010802564863464518
-0.007588039243148275
0.025212960252679186
-0.010764524599934926
-0.01126971379588367
-0.00351017464810984
0.004678184466622439
-0.04039601619773849
0.015005646281346423
-0.025334188228191543
0.0018658613582010005
0.0025308533955099625
0.03521320563276284
-0.004365120592587772
0.07252718944939965
-0.021585575086130886
-0.057191366426395454
-0.007717070931368331
-0.009213659913711121
-0.0043349487981844004
-0.03671351503319907
0.0785957911315408
-0.016129014038341195
-0.0004319193688570463
0.029618826330448444
0.009576783031492174
0.006633020207453797
0.008668942721850408
-0.015809212670080872
0.006754041398591904
-0.017721628415446916
0.0016462166571433307
-0.04013365284890112
0.03159573062480851
0.0320990237504556
0.011150648659914527
-0.014850670787148083
-0.030145641052861712
0.030741245139917422
0.008497240336479812
0.04629120587942418
0.0020249269260667366
0.04508275376017727
0.06004210199576352
0.010393479435232032
0.019163571710065
-0.03762878910451061
-0.0007506713093232532
0.00035614039580005843
-0.11282337455347542
-0.07377358904062624
0.032429982027843904
0.014209013160756189
-0.004877301953271076
-0.02779788365739581
0.0579168625060384
0.06479538737359855
0.05661726428611265
-0.08020284348632006
-0.11174163232759107
0.006769868651296982
0.05959853213982059
0.029655467518388583
0.008476622920060177
0.022342242972598656
-0.002308785784990697
0.0033696923943219896
-0.03742609124054608
0.008386215794561747
0.0010541422616827116
-0.004912636000851715
0.0016418711331508018
-0.02147063481305125
0.00043319570153897897
-0.028971031340435913
-0.04951957238531023
-0.033735717767688064
-0.01322627824395299
0.023541545194376765
-0.0077646997265260935
-0.03844699601926088
0.004883208014647076
0.03085456498781552
0.003205924603475257
0.0070908436307718335
0.009073001927431596
-0.01306548433180004
-0.012505704671772467
0.021125633615739662
0.020955211330145565
-0.046731801720205454
-0.029819218344227977
0.004729511985249028
0.0044401182492664485
0.024554956475999166
0.04705826867762713
0.02494065050392814
0.010802826464877464
-0.022125859921323845
-0.00907836633225358
0.06868710492615394
0.006927253155083613
0.012099404935191928
-0.01882779219109814
0.0047836342687743744
-0.008807453802247636
-0.005461086434784357
-0.052601962076883974
-0.010354960398019255
0.004190562123969466
0.05123681775897161
0.05907129558416456
0.0020488549255387382
-0.05493900156840445
0.003913245768560597
0.022170249287937836
0.017331039022210885
-0.022435187487589353
0.011365669980898357
-0.03644558315392791
0.005086691200951697
-0.019554584813980046
-0.00031653044596659995
-0.01732697582077477
-0.0030894155434953463
0.003652940228236011
0.0407282917653124
0.007098670268550923
-0.00941057710008584
-0.015848314098422002
-0.012722428565721398
0.026418423093300013
-0.00637251900268742
-0.01682226710967113
-0.015511080002742372
0.023405778959323564
0.022376323807641183
0.042295668140749205
-0.031161498065594043
-0.08636356616779697
0.0025765796597178718
0.06728174223101759
-0.009817263979741992
-0.009505731937476681
-0.037741400609616955
0.014116336247008476
-0.002646084042314679
-0.015702217662121896
-0.010098434557312918
0.025258286046467553
0.005606824195085325
0.01494039607378583
-0.009394754206251268
-0.0047102462936855485
-0.021298988400473826
-0.0004329117277034171
0.009247832932754281
-0.018137219346375254
0.05048749600130764
0.004702862149338508
-0.03027875530073065
-0.0098660480313377
-0.0019546921429735398
0.05021958583051092
0.0002766171963069908
-0.06148521179044482
0.05949775075442864
0.00639463091553041
-0.007357520185975128
-0.02544825856903456
-0.008825776152245897
-0.006832282988085987
0.006425421437177228
-0.014135041167897974
-0.0030374729743525395
-0.0015066556969163983
-0.00793844285095519
-0.050587659073872346
0.032113075279096195
0.02385230646645593
0.11021593341408534
-0.009351182389167472
-0.019865508025788986
0.007979614219824132
0.0015001778959058886
-0.02471924158223239
-0.02122450145611114
-0.03300387949076256
-0.0624764122693319
-0.0036939373888103064
-0.021881460724032978
-0.05097104730036441
0.09652249607373825
0.06300716476657675
-0.046014699901762886
0.01880763959065198
0.028561212285965594
0.008373863809663037
0.031031214630567457
0.0009431969280014427
0.04440682332490643
0.007382491711009184
0.007083171020204436
-0.021174834362029382
-0.01952174634604337
-0.055041704352847096
0.002795401929708186
-0.007199745003275499
0.038284760731117855
-0.009516613639831787
-0.022835511528382407
-0.004271749510762776
-0.030518252837113926
0.02661102219683473
0.02509964331538199
-0.02029228158716944
-0.009170691444964098
0.006977313563958843
-0.003891127788939707
0.011250604765407518
0.030741919413222192
-0.04427181590820768
-0.03761949329033606
-0.014663023387617501
0.07749304865931567
0.018101050460670644
0.09903899766137103
0.017698210949714004
-0.004713484186703013
-0.045217628963494925
0.04588031164184071
-0.013388254574751882
-0.020220295697480052
-0.01197410019975741
-0.08280837481907616
0.013591620812836082
-0.003587206729823129
0.01766974714861272
-0.036864784824682244
0.002880788301864905
0.010869563353496576
-0.006860895360522922
-0.010314064652674823
-0.0054332689313088016
-0.016928468888941
-0.033675612166897
-0.02215580397418336
0.03567994450710862
0.02442035858871914
0.01429567933720075
-0.01626869731072133
-0.04239993237732635
-0.04756000929293244
-0.016716663030203038
0.02074365211166806
-0.021524963432154046
0.052192418257786206
0.03816265920622417
0.028652565430582425
0.009039238881852703
0.015891778685129213
0.04410056514772785
-0.007454749348393098
-0.0029523592051618535
0.023457928110400896
0.03484932008957572
0.02011593192465659
-0.002787256325265683
0.021637990907729467
-0.031998170902504376
0.0217044114827322
0.03262551390444678
0.0032621959512281295
-0.08587430635646048
-0.10564360023789522
0.0013626141504313614
-0.040944269959379644
-0.06479985479388516
0.020026839648894023
-0.008781411904419759
-0.0018975126818829248
-0.007106549142182429
-0.0017656204822159645
0.027793516545623773
-0.013308901239707075
0.047870544748013534
0.028183207072265355
0.004662825912199511
0.0016051783049928741
0.05741324603039696
0.03037880390674164
-0.020789300523960216
0.0524193831133505
-0.05351132418716297
-0.0908608195308973
0.0009018434560053632
-0.011644020877139722
0.013676733681963347
-0.006365188727575282
0.017480800716634264
-0.02783547198696429
0.0023414759794371585
-0.003088703000717467
0.016505604849743696
0.013337542445269525
0.005951771181650575
0.07134722085668006
-0.0039061321265063498
-0.02384606775826044
0.010182887197962075
-0.02717726423381048
-0.012010951099884804
-0.0238371248982815
-0.01125887698902631
-0.016140850380315087
0.00882504355366721
-0.0038826480248277855
0.027318452474973123
0.09443039294801775
0.027592907500742166
-0.04216114633937635
0.009412212086926004
-0.00787526776220902
0.02239906878612743
-0.03415693144196193
0.11620302352116592
0.10136918064060829
-0.16289765746642132
-0.07013911126489117
0.00018086632863773162
-0.05747052230501311
0.021476005973871923
-0.016750302111489583
-0.03179162544781888
-0.01202288008075061
-0.057282274725943064
0.0007339497733384891
-0.026480786451910345
0.02912190564833024
-0.003048443181742483
0.0018941375106789721
0.11149600134337542
-0.0005934725618182261
-0.003938510326652923
-0.07123009934464096
-0.10093159469574739
0.0194261511206327
0.023597848578464937
0.0064077187908590984
-0.00012166524256354117
0.013616874731497378
-0.0017008921288953845
0.022255697201627175
0.0067598060673999755
0.015340824618952526
-0.07023685043892779
0.09458515494620105
0.07773609978284345
-0.00482406086339706
0.07902154911990039
0.07403414709345844
-0.019721322032063608
-0.004949915994072074
0.01592508431640722
-0.018179781290255232
-0.007875759415326027
0.019710337106809504
-0.02046700798783921
0.01548012585717847
0.009337120232417279
0.022956740889365723
-0.010381699300172471
-0.017134176739322743
-0.016992918458503314
-0.02241464343522675
-0.03145065268168783
-0.005081396993891885
0.015269801280626865
0.011093764404267816
0.032540308546212364
0.032949952318058785
-0.008203654459506323
-0.0980769779161201
-0.03287131692181335
-0.02885876963264774
-0.02256933256243548
-0.04491646818286603
-0.00453718197265375
0.0005664629347524515
0.004512413231804658
-0.006815670796744517
0.014861994672749282
0.048597116727251026
-0.007631457564244899
0.017359868072998753
-0.04206064228006453
-0.00895284886244768
-0.009753038459005865
0.04030498743826369
-0.0017305716748705756
0.05888752827497106
-0.07137003840214699
-0.04398544854981744
0.004399780471057973
-0.00795225025766688
0.04138498650928654
-0.024960520882931082
0.02124119928197661
0.07339118931309545
0.021096005691906717
0.022977807728118266
-0.04873020756066443
-0.0628233948206551
0.001907564427728514
0.013834550914719834
-0.013934362922055674
-0.037038076608455976
0.06667300290528273
0.02600067374384746
-0.00534191655223627
0.027889868056424072
-0.0038673156375403682
-0.07175358461941962
-0.012160863507035317
0.056314322575504616
0.036472396529435576
0.029104440674568136
0.028425222667970023
-0.010971043177478395
-0.003052549922149965
0.03236125512238998
-0.033120834495063686
-0.03060027354285383
-0.02418410575584685
-0.020224301121103072
0.02298248341047882
0.004084245249694232
0.008414290097518795
0.018435051986189645
-0.019006449609407106
-0.14211320124246002
-0.06787365422389799
0.038715306909705226
0.03227822366321006
0.04204217703520809
0.004107441860905848
0.024849348835350248
0.001626250795191254
-0.0004056357121863106
-0.012770391450964902
0.029354166933823
0.013006560385670423
0.0044141155516679185
-0.03325941670121658
0.0022183545185458656
0.026484347200196393
-0.030202393851788124
0.005083854323854383
0.032654159239349986
0.003004052049071985
-0.0075293883589020606
-0.1123072877572524
0.006400392161350001
-0.004546855760594246
-0.02116540908073623
0.037110618379897604
0.010823405468611397
0.03227356254070173
-0.024262173216661426
-0.04132427064387408
-0.03736965970986639
-0.020168822091003964
-0.04961736928126613
0.02911987043810708
0.007900008297165776
0.025701207107158505
0.0156400528309878
0.11120891893419856
0.07012733978540445
0.011898954374964323
-0.023428152804865737
0.054517563598581
0.08966681160454822
-0.039335596139037796
-0.014802468654466975
-0.06353764957046877
-0.031110514145214995
0.08148887543720724
0.01445961753843426
-0.0034213699535144216
-0.04609548761223778
-0.042983163956536403
-0.002410106860470391
0.03327054004857245
0.013009940235340706
-0.011802258065051516
-0.006090138532805157
0.009190146271738276
0.004315263828683814
0.013388518976646002
-0.02292477030785554
-0.003761334223282387
0.02801151391359963
0.02436331617046472
0.005598188772555609
0.037084517327231406
-0.013842027742571646
-0.007983234194070411
0.04077199298750573
-0.004149529524351866
-0.00797155980597121
0.0010403591063294336
-0.0277881419769943
0.00548411521231924
-0.04828533905933333
-0.03259772312865801
0.05383912458902263
-0.016318795090779933
0.03886808093113853
-0.16008850340906197
-0.0616493555982051
0.05069229315368924
0.0060705747045005825
0.015654977923125923
0.001484001472533921
-0.07596082580007577
0.017142487123124252
0.03761746151324063
-0.048032505839498196
-0.02811808099583502
0.02754613296212855
0.00759559170574582
0.01766418930366508
-0.0011004949842136913
0.015774080983775623
0.05342835557379791
0.010318831216575234
-0.016109529439450314
-0.005351851481265758
-0.01704006192240569
-0.018098538477270543
-0.072850073378754
-0.016383461864785693
0.017344810443474985
0.010511033599596554
-0.0030331289930998983
-0.03365659022714851
-0.008759992097357124
-0.15980918093495994
-0.05103491500328476
0.07745932154131543
0.04874984415310521
-0.01482721964327111
0.03337744826910395
0.08586103338441423
-0.0023973493236697434
-0.040375883456290014
0.05099961031185762
0.11132270921185601
0.03359645909613695
0.03148998217890342
-0.031469087138880164
-0.012924017313588975
-0.02305907659384273
-0.015393288146684014
0.004916785305710768
0.01477081895893018
-0.017189208837747973
-0.01668150795668504
-0.01658123782900269
0.015678569477308012
-0.018176869937543326
0.06888551053784685
0.07094424071862285
0.009052870839968535
-0.011794833966291886
0.03514328949369107
0.09957212925575032
0.0022491146119551914
-0.004608270574818043
-0.011679970650567178
-0.01752696881356907
-0.05898463996141835
0.0405437050279096
-0.009962143632456165
0.0013592738606078485
0.0039243645319204734
-0.03443112611292178
-0.005861047331523779
0.008126229141303723
0.030771262260591146
0.0006473722508543884
-0.04191959965269301
-0.003863449764952104
-0.03256340921212903
0.000730652769540149
0.008746103635588424
-0.010649826437184914
0.04238775814370246
-0.026051817195394466
-0.15861478856842884
0.0017031684542675785
0.03138876458628796
-0.007401496258913527
0.021025626649244986
-0.01929378640924301
-0.006912296593599306
0.0011835535928831776
-0.006333112239246774
0.026260252538502272
-0.01207873134779275
0.021936964487625502
0.02262210790404928
-0.0053650279024160625
0.029409881341752365
-0.01719269603125471
-0.017976427149829773
-0.0007227857825227306
0.03749042797594296
0.04861887833975567
0.008986626155190934
-0.16689349938849563
-0.051911044153175274
0.05153556274629729
-0.005852881242376822
0.005578067772254833
-0.04717268367807425
0.0743744969011612
0.018662647608855314
-0.030561920845203344
0.06715783695438803
-0.10090440308783767
-0.07675322004308172
0.014940877695698115
0.021005854230799478
0.02654758855551613
-0.05429699602302381
-0.010153510025851856
0.011525522707477316
0.04134053499351332
-0.07688426810662145
-0.053099356290885476
0.031142612997933482
0.043068606332692085
0.007794915835852224
0.005761482072025428
-0.013783205001759167
0.03643892913807433
0.01606797419023212
0.02035013917300135
-0.0011283582592859465
0.016908126012882888
-0.014399778228662794
-0.026209334219266082
0.005378843763471715
0.024170471081909076
-0.05563839771101557
0.01826319071913838
0.08748600278028681
-0.022502188713505858
-0.012517391782745614
0.029927182274661644
-0.01814296645815637
-0.012894668458305171
0.19595291246868982
0.03471277169203807
-0.01587467688383911
-0.029834611350835885
0.015964790762432922
0.10121018682053809
0.04561932191709224
0.003664660972738767
0.04259445126843825
0.0028943361040251613
-0.01704319969153427
-0.0032941794393211202
-0.01743459919215651
-0.04942288416931145
0.0077829510922036845
0.006724153821457572
0.00533669981180898
-0.039686212582401015
0.007962079645978977
0.011466362058621907
0.04265091869260046
-0.07806733038832207
-0.184139160020325
-0.0366687156356597
-0.050780619716003124
0.0359088625021056
0.012067751545424865
0.01980646563148861
-0.016018832773514284
-0.0401476815641338
0.005325255900887063
-0.02424565841140696
-0.04148694038895094
0.04767693099888151
0.017844582997183174
0.02521048928843227
-0.0004637224365460762
-0.007514586771521872
0.01961375021042031
-0.04932808626954642
-0.00870086714789755
-0.0037593784350091353
-0.07015803048113897
-0.026809235773623798
-0.034443323233565463
-0.004528599593043867
0.03148775710896155
0.02247481898075499
0.04748683445715937
0.04182129393970529
0.025058574547347702
0.0274038226753434
-0.027841262955738546
-0.056835351747734304
0.003489586706912283
-0.012811449013804472
0.009740517198353234
0.1997502221050795
0.06537179470267529
-0.04397078408796565
-0.0010996508278650363
-0.0049783270868267665
0.009763055844376617
0.02932379183253438
0.04651010414318297
0.0036500388485412984
0.010441863545124773
-0.008372813206025094
0.032960617123018725
-0.019631768726465645
-0.03821597562254899
-0.0388010582249218
-0.08112697637005294
0.03237288748789669
0.01749753286360157
-0.03227989457763083
-0.032104792232910066
-0.0007866550368751918
-0.05661203676968305
0.0024937757511266
-0.013951584426027775
0.01918187746088002
0.02116630314367088
0.054437844407338905
-0.03809024980935974
-0.018475600991616985
-0.006682574260004436
0.04355122854285449
-0.01212590369213623
-0.002880019103640103
-0.07921016920069951
-0.020811929261609376
-0.004305815896679931
-0.01173000752329639
-0.04111326076627175
-0.05628310035754571
-0.009806129828358517
-0.010606439148591853
0.025636219674774665
0.002266587908461385
0.017146096744486014
-0.005675358058290208
0.030165975181794633
0.022029542473883314
-0.009216008387475307
0.02215036837839116
0.021492904619977767
0.004592782242450031
-0.017643385912676956
0.0013982403517880564
-0.011465937140373134
0.003534068584943922
0.044048031974974436
0.019553206697575206
0.0012559520476748815
-0.027565610243492897
0.028405908453955093
0.0027254572025462586
-0.02223246826152477
0.008082941341384998
0.021342212059985738
0.07946283638901197
-0.06642586864182547
-0.0026941632983522147
0.0020412921324633143
0.006247618481349664
-0.03625592812554813
0.044587075070497986
0.00057592059267546
0.07623745211252252
-0.08993921383517191
-0.055140201453263434
-0.009996096272969799
0.05578690283222937
0.21987976667973577
-0.005179924574054791
-0.04101658849467768
-0.0609604262802171
0.013872951890119839
0.028979612519952534
-0.039190166053873224
-0.03199994697013154
-0.034730510516382485
-0.021874536727639674
0.01009007263233298
-0.009051409272914278
-0.018811016377582722
0.02669410614948801
0.001154917952380923
-0.01175381000310515
0.01468503997824747
-0.018123618240217364
-0.02553109427519104
-0.013850681863140648
-0.018216695166652516
-0.008183378688079656
0.026875849321628682
-0.0042788474148579055
-0.0055918532326325555
0.03383243180370284
0.06536464764800731
0.016272272670463172
0.004192998000761623
-0.014207526479141658
-0.004483737296554384
0.012868068228290256
0.009553762645900916
-0.02767798217010797
0.016327148977345746
-0.03711547040949904
-0.011953124748678079
2.468390419025474e-05
0.00626124510100842
0.0010463852964035553
-0.012773293235371706
0.027538453824672557
0.002348248546071911
-0.028048268740815056
0.008451217264769337
-0.0404086675897742
-0.007728772929055711
-0.0040574663346200236
0.009496567238944816
-0.03796594191361997
0.044869516443733035
0.05317081502588312
-0.008798799000235688
-0.01956807272486625
0.0055766974668833265
0.044783804861307785
0.006569915203401986
-0.006185105410167447
-0.025085665275337444
-0.02111116468817782
-0.0017843269076724601
0.055488676018122705
-0.0101928203912025
0.0019499180187621792
-0.01356494281516291
-0.016915986569606422
-0.04817430034639774
-0.00982597377497355
-0.014794602117842521
-0.0586670404644708
0.009444837869371298
0.03163306599137286
0.0528488632347416
0.0371952575983641
-0.026570762169571736
-0.004671467765364007
0.00565767073390545
-0.006259587086935981
-0.0026919092118796693
-0.030596743244670054
-0.016575795263559092
0.02815075333214897
0.028729511765159376
-0.00975135611826408
-0.0024564409473802986
-0.02650587095056983
0.013249930575537425
-0.00825856178226906
-0.00684383097158096
-0.013872374346754814
0.014487720147110597
0.0569190164992366
-0.012598700272913807
-0.00657183537527355
0.0118735198717993
0.008476995536232693
-0.036725186673133514
-0.007459914031547402
0.008025184761584628
-0.033154203755046935
-0.028126382470819965
-0.007925142024616801
-0.06866858609987866
0.022674572598462017
-0.02470665766913927
-0.16065841776340356
-0.006070914548816463
0.08982411548772197
0.0328204382099993
0.08281412856897234
0.07940605265141928
-0.05319008053943238
-0.006019639578891879
0.127147520818657
0.031889727937146096
-0.024909276456723507
0.019185495887904414
0.031722765625840865
0.007748651957889525
-0.008838672916458522
0.0016727990208362453
0.012949989922687153
0.016908852321929485
-0.03675895647565855
0.009661632343674032
-0.005446045949625067
-0.029017545949827295
-0.010725933859565277
0.02323074995896194
-0.008365192949199917
0.02066748238311314
0.0020905387944974325
0.05084795202087113
0.03706678123100378
-0.0016470104177284514
0.008727785252805407
-0.004822888434557783
-0.025614427883620717
0.009615310859365013
-0.023144234617500637
0.04158235510898698
-0.020891671736145048
0.02070345308873292
-0.02883968113308267
-0.020155105799384745
-0.030322680327870614
-0.041757933525309196
-0.07313533407313444
-0.006479153442487244
-0.018925340296542397
0.0016401251528802606
-0.03471594997436063
-0.011773582749881403
-0.06055131299058617
-0.061258657820427526
0.017309508175426862
0.0053933960069352214
-0.04791762423647169
0.0032092552593670485
0.015772853207987162
-0.001532144128828376
-0.03463036396210756
0.0051949518727857176
0.012534511675959844
-0.008447738968092006
0.025713695313989197
0.03815221885205787
0.008052692244599641
-0.005538663799921211
0.038240249116095776
0.011860797862559303
-0.009988269164880109
0.011822082973656532
0.013154561536761164
5.670022108819053e-05
0.1034917842569255
0.03604240850752772
-0.016028210586128862
0.035742247623010134
-0.01381468874935788
-0.05647707944607084
0.1611502747110718
0.13181415549974443
0.021464344046180597
-0.031995173544852894
0.006540258463324714
-0.07029826517307346
-0.03771295950113084
0.006164117405870623
-0.013180723699479353
0.012177064969137518
0.010302848196156981
0.022931757755804246
0.01290658462162566
-0.08195966677861344
-0.026361055387676264
-0.006099773625186961
-0.023708307485743256
0.021777273110306933
0.011780546298858385
0.002525248987158904
0.02912663652883565
0.02130596513253544
0.010098534456132846
-0.09249286302621172
-0.11078973122150229
0.008681629416254008
-0.032661079085609765
-0.02060249919124193
0.010734246017880643
0.0076207024518629
-0.041193115789613516
-0.05691149859697042
0.006825923503630704
0.045520608557870997
-0.024296057205791036
-0.0005441703201252166
0.06035911906104417
0.02136603334477702
0.007214203355042756
0.027767486767966875
0.04152610116695295
-0.04847494981804125
-0.01965026544096859
0.017788430192816628
-0.012200210415197432
-0.018627326489529205
0.021729640014306557
0.021389758792340088
0.01704507180482094
0.0008295049152769949
-0.05781343832007942
0.010568416710511246
0.02550522884296209
-0.011725452308386676
0.0068519363681538055
-0.019579481122557012
-0.024179681514057777
-0.019022477790535827
-0.052573038044729556
0.006735057253377695
0.029269759736715327
0.004058077663352083
-0.016861052588734386
-0.02805673362382075
0.04070464731097146
0.0011647752888539467
0.04443672858421849
-0.007536275889003787
-0.050792072380124294
-0.007166435123182371
0.0040282449365117
0.07019093217792229
-0.01677724151866685
-0.06207579929123952
0.039131467488461094
0.009858976983359363
-0.018889155703360465
0.005626435662941786
-0.0030697666606927954
0.018671028996777812
-0.05740863335870225
0.055456436602374704
0.05702663171057071
-0.015200391033082718
0.0924516070667237
0.11039040647814306
0.07256027463121201
-0.004176566692601942
0.015602750546859384
-0.028680268703024155
-0.011260419090670942
-0.014768861405433197
0.003063791703553382
0.026847165952610327
-0.015089468987228133
0.0007705880448498533
-0.016563479671031864
-0.05147479307124566
-0.02227587301147356
-0.016764534395522803
0.021329137362270902
-0.04019303869726576
-0.009879186574397417
0.01926037231326504
-0.01495529847611513
0.016365613574836357
-0.03365073516990316
-0.0471605858246373
-0.05329927079337535
-0.039389632017137674
0.007101538839671163
0.013980327457500512
0.01879782260926565
-0.03435272225064418
0.005031019623817516
-0.02380781829121093
0.056137519509406486
-0.07065850443082924
-0.04368813052753674
0.03397054513134414
-0.0032357165643654793
4.0820454161212454e-05
0.024769664181714352
-0.026631350912562718
-0.045627878259813494
-0.014352886028023884
0.004442964807692215
-0.005697291295482055
0.036554071860333416
0.06737058019496979
0.0070601211727876045
-0.020004792407265003
0.022454543855185416
0.05569859943672027
-0.06186933881330596
-0.01347048517659001
0.013303058521254641
-0.0021885650983942484
0.020034147148120084
0.03181051817090813
-0.04729987493200367
-0.042735282356979196
-0.0030721007446076988
0.0023962098642718987
0.11053953256164299
0.026141264786336802
-0.03621232498524507
-0.010366372552409192
0.000921956768243712
0.0063818805047351195
0.010202154663166698
0.007879234646480483
0.05424497614039468
0.015692132727743873
-0.005171038113005367
-0.0025464151029351975
-0.005953644968776534
0.03818120577375854
0.07759972722304306
-0.016453110232989978
-0.0001247788627825734
0.024503623354854072
-0.02121623367728174
0.005419920094291894
-0.0243403134109919
-0.03137060694218475
0.01217536450587424
-0.06678840102037682
-0.019009341119070933
0.03387506782355908
-0.018908132240246647
-0.01804625357820887
-0.0055537869574340745
-0.007137564305106123
-0.014532953949364298
0.0157036804811078
-0.007780856244168684
0.14193846625454792
0.11232687977258793
-0.002502932652324729
0.02374960660553193
-0.19554318616545435
-0.035700783035158286
0.035022003682533505
0.015841179250166988
-0.12302662046550553
-0.15578998199855612
-0.008958377420197816
-0.02212339152692338
0.044613962614558446
0.031591985409140086
-0.017466269489632
0.0104901902866378
-0.018767099718784992
-0.04866510220849985
-0.028747931778334856
0.05537212870095835
0.025899299889049498
0.017234806393904394
0.0023319802701339443
-0.010395904786816288
0.0059315564217182325
0.029080064773449366
0.01707131060891068
-0.0031918498471286885
0.030357497686785327
0.09743222608113643
0.020129296910040815
-0.05553643354142547
-0.02775302531590333
-0.02908983614729417
0.01538047365550038
-0.03280971279482595
-0.01890163196214981
0.011081555539093032
0.03325118138984549
0.02035896648251658
0.03329765214997068
0.047151221297289915
-0.010888849594228915
0.031077569620095787
8.491709609057282e-05
0.00194503829400337
0.008035371200208601
-0.037851818365756185
-0.013954560492522215
-0.03021482160878587
-0.018485246353215287
0.0016685087812536381
-0.034893238954397214
0.0026804578623087667
-0.011691572491383948
-0.0775687814844682
-0.01744317783151854
0.02214960826015612
0.022895032628715076
-0.005569789050678805
0.03980648902711747
0.013412024886019468
0.0050581814061074525
-0.0099055164621669
-0.033067362336212124
0.023198108343891223
0.031692128655621155
-0.02359520522250344
-0.01203800703105183
0.10940298109661245
0.14699038405346787
0.03545537950700621
-0.008049395712470332
0.016074800388011047
-0.015024920987505526
-0.056400144795337066
-0.06573531477090522
-0.08143071323098075
-0.021831917519256543
-0.00931495286675211
-0.0022512283506717903
-0.007138907885990856
-0.053159306007746085
0.011306625312912509
0.05204944620904412
0.04711695808992937
0.02159364283647189
-0.006207997498589973
-0.012057392651359687
0.0008399532557771115
0.01715347037184921
-0.0354859080768018
0.010249430957841268
-0.004092589382933162
0.029769327500405052
-0.018986249462435545
0.009451881726355818
-0.015194924164083393
-0.08511229175016803
0.02737288574796591
0.052750587252852775
-0.01260785436132647
-0.004605233050474846
-0.011115990746238294
-0.03444939153785214
-0.015096214202430966
0.0044256854521992905
0.045013071624694014
0.030926136566857925
0.015624989188598296
0.051934022785195155
-0.01972992797749497
0.04154701971255499
0.005680422167112305
-0.00637981807254835
-0.030386143877088736
-0.01830957989563742
-0.003042228715526013
0.027118179706334747
0.027051723911656514
-0.041483707251455816
-0.04578101565527232
-0.015547893613677059
0.00885484244431395
-0.0558472313622842
-0.03270941498417474
-0.015179632550250226
-0.0073483100720127155
0.04589557062769923
0.012787943511658602
0.01109641754429483
0.022105604035734847
-0.04343192334870251
-0.07701390266316897
0.03721021591531399
0.003812647915272704
-0.0014082797658296039
-0.0056533914436046355
0.0835442219250181
0.07703647949657029
-0.03295907161964904
-0.0019465199508310516
0.021549285907612875
-0.01970181661810639
0.00516470242316941
0.0252104675231845
0.0068715788345096555
0.008771385007886271
-0.03601818157227495
-0.05899117273207211
0.040646600646018126
-0.03194077940072682
-0.026378839824702828
-0.025364718410852166
-0.04164548754559655
-0.013649033426466516
-0.01108415954994504
0.015656615714345554
0.027673101564762867
-0.008405456471315194
0.00565880751290739
-0.0314761810370553
0.07143059702680989
0.060313003705284224
-0.008287625984936845
0.009642609557713842
-0.07590114394465991
-0.08790741767937164
-0.0029448388012209216
0.0012419426111650578
-0.010180874450977446
-0.018815074004910573
0.05914847592622517
0.14599611736870768
-0.009342087706234233
-0.020473108344927764
0.0051083913487533624
0.015851576180092992
0.024889305537561697
-0.009931901357158365
0.02227911966985035
0.0001896509961886661
-0.029494239704941652
0.0065375170476643495
0.04097082926530856
0.01909580613393872
0.012690995800550043
-0.006506877950142696
-0.0007420984442507328
0.020770396458425523
0.0029423899325367983
-0.009158546880465716
-0.008673757634691337
0.025701946122045884
-0.023147191007219202
-0.02200604583897858
-0.014227176015269
-0.02382285472501665
0.008940011146753512
-0.014485322514110638
-0.016087756582046826
-0.006743832710445054
-0.03646695322134954
0.018601167901390072
-0.009670806394646512
-0.01579690310060901
-0.0031334177683090174
-0.009630334600324633
-0.057417991898575285
0.036760478667491284
9.577943989816075e-05
-0.05803054671148052
0.023920496492409384
-0.017563068548909093
0.016084020619896954
-0.05622763598277846
-0.07430077972883053
0.1208355290198241
0.04216826455922556
0.010342172588515471
0.028949568172863375
0.002998949777062769
-0.07845269855768727
0.017397507888023887
0.001973020363028559
0.00024372530390414515
-0.03799821365042875
0.09405787138406656
0.061179126713838815
0.019648807649186275
0.05547228107653268
-0.009206106835442374
0.028274259760697446
0.006965441265183059
-0.012105778297521692
-0.011409489121935235
-0.014634831189813001
-0.07385518558967932
-0.048599996541200174
-0.05741654162419535
-0.011213487305127329
0.0003786317779995609
-0.016968398411853026
-0.030194765500806058
-0.006620982556821983
0.030245907040717404
0.016583889136688824
0.026479353635920102
-0.019849256567167843
-0.008426731904344472
-0.013119337511493929
-0.01950267222937813
-0.032809906561612964
0.03655743080683299
0.06026220171921902
0.00522064796561835
