0
0.019470957008271478
0.016571650112856072
-0.06540406758130975
-0.018943432324167234
0.08551289803535518
0.004929262030141516
-0.11443022174333285
0.015354562456125227
0.0006104956144820401
-0.01054816249831834
0.05382609230929395
0.08286251606841838
0.009569271320216595
7.538617159903038e-06
-0.01518824129886952
0.020457789847240514
0.06789636946531062
-0.0006740937197646989
-0.018299921746582692
-0.01621945271230603
0.022490769107802736
-0.004245774539435361
0.06539183594000661
-0.04307813436825853
-0.11782659661221803
0.03432879391984044
-0.14425106121415732
-0.11501004409162448
0.015056204793877878
0.009776334355108945
0.047842958043648694
-0.011024900852576725
-0.0008812311674411424
0.013328161081555894
0.011279843698679194
-0.02803425688871458
0.022114356287596643
0.011725514121812487
0.012372509160375841
-0.00603672337966579
0.003878940400170024
-0.005330006576867501
0.0005104531547582699
-0.003337731227814146
-0.0031050203908885485
0.0007609899881115463
0.01890846900506135
-0.005558202515195943
-0.0067359853757852865
-0.01624133197905521
-0.004272261624533788
0.016488933039457802
-0.0033386621103295667
-0.04773753186304022
-0.009751287081575525
0.026171428542016352
0.0647849484944374
0.022321049941621388
0.021008365867413083
0.021318663260096408
0.0011026205687512676
0.010907374340466723
0.02342301775434682
-0.002533962213561497
-0.03124245358741777
-0.040797069752455194
-0.019115853556046808
0.010021632820834478
-0.029094910159669914
-0.013374669389958781
0.01105323592448341
-0.016403272269008173
0.003181648632185103
0.011925356446131474
0.009661010651665072
-0.01754588179009124
-0.04802307937568327
-0.057035661111752296
0.0202548937493442
-0.021267591736320642
0.01749069795962534
0.01401129516525757
0.041139377954931035
-0.011110229916998404
0.08942958056623704
0.11985949119942815
0.05826752504567193
-0.04243122426655231
0.021125221859002542
0.0017836857614070662
0.005971225344446184
-0.062149098005655996
-0.04467668990893299
0.01849208160014423
0.023277727152876047
0.007065626002996423
0.004409348139968108
-0.028051034035131556
0.05836363999919262
0.029592031493019973
-0.009430992798559955
0.03550024496461818
-0.03455930558260734
-0.012075058229479683
-0.029947575260682993
0.032925084844047416
-0.031066094386473526
0.0026129985557295813
0.06499602566534876
0.03898636784307377
-0.024473100746774386
-0.04583242082836055
0.005672717994296533
-0.020580217310006213
-0.020064638672087475
-0.00026418181904955463
0.05381111480777576
-0.061375249339882636
-0.05497201816193846
-0.0035139549463549242
-0.02089736577498071
-0.016978919387304527
0.009840853755732189
-0.026645162742529253
-0.030132606649262712
-0.014038157487940225
0.0055536138382706
0.07138828280315235
0.028164039088468266
-0.06076422245141556
-0.031237909762700633
0.038472975316508354
-0.04756810883877677
0.02083739403099536
-0.007240724549328372
-0.01184569471915898
0.012025409570441015
0.04143020591449257
-0.035162599890932233
-0.08343417478421225
0.008458911112538983
-0.0008328919282465274
-0.050586155208568816
0.07491717249342461
0.061274721134650066
-0.03604592101713368
-0.02565457910887292
-0.03960018582659547
0.024964516374690694
-0.0013648020318682114
-0.007227983387597535
0.04196307553059465
0.022935484437441464
0.009823546080520431
0.0021889959743507585
-0.03656270071668063
0.019711742178642598
0.053281049916593506
-0.019443652504810224
-0.07815219414364655
0.024747526696981763
0.13305342330668574
-0.013809730742352942
-0.010431657295608923
-0.04799572624889126
-0.02024300269311294
-0.039525188212387145
0.08078740472295817
0.057218356039995616
-0.009976619367762412
-0.01635222580363301
-0.029560731949137338
0.04416467337238041
0.034707510714163725
0.0009983963080046696
-0.02058299555425469
-0.015757432303247134
-0.03761230479033517
0.005271379319923479
0.021984298552891274
0.0031840330575667237
-0.09358365773737791
-0.07449569590451585
0.08013474945361843
0.1277619867018481
-0.04510305303517267
0.017968597303966598
0.03926247221045397
-0.03797861524945638
-0.008578028551931936
-0.014621876461444513
0.013909751380723746
0.03800189011486897
-0.041818104938649174
0.02412206297888301
-0.003308515411726327
-0.03292009993486077
-0.0479169391397729
-0.027083141240237744
0.007995186848851895
-0.01835891368632983
-0.014657468961915632
0.14571373191506568
-0.004153390405849325
-0.04064410907594668
-0.020579056467641025
-0.009617141250315445
0.006033265613604097
-0.001429174964099464
0.012695897478425925
-0.013149333225013556
-0.021611342757721204
0.008357272757142918
-0.011664169231998395
-0.010901933538543278
0.032568468235442474
0.07279111333143672
0.046628765582295166
-0.05889557456085543
-0.03222913697158376
0.021395311041525065
-0.02028032780866403
0.08579592408502033
0.035697520515404875
-0.07782651932334517
-0.018537001370986798
-0.0627114671650058
-0.07315476256070143
0.024182653499180428
-0.016326190101808993
-0.02742820892433616
-0.04054214221150891
-0.04735908323839929
-0.0013049341650285963
-0.01167973135603728
0.016437902597569345
-0.012289263129166002
-0.018569199605811226
-0.010029221143780406
0.0767345722293816
0.1577340148394839
-0.00011256370921028201
-0.003206825226570986
-0.0348861950704756
-0.005462072976836921
0.055452597534294885
-0.03190656307171886
0.0023639842633573576
-0.04051916602430505
0.11319197942716089
0.05472786959159553
-0.033788485811249956
-0.047298923261243395
0.0364738629389316
0.07250231123747222
-0.02794598484689928
-0.0005642080810743291
0.026391438065807158
-0.009612761848610273
-0.022204562218583718
-0.036440028666169556
-0.007953597280213786
-0.09704095766483789
-0.14503701227602367
0.05618707799276815
-0.016773753841796885
-0.024893838020907517
-0.048685211983221566
-0.013175473834160064
-0.0075727241561110905
0.02568097360976653
0.1373021779792488
0.20196051420102462
0.011173404264964952
-0.047590954475198705
0.11310664331918764
0.011978806537211725
-0.027392093473011633
-0.05020210466287932
-0.06771363088018426
-0.05139185200956369
-0.010182179146974113
-0.016418541321836653
0.02285750547640501
0.031277394228261444
-0.030599790959976815
-0.025033448189695807
-0.004707563684342943
0.047875542117936626
-0.015183918832218176
-0.018121523029786445
-0.0015713571426622392
0.000905528403254141
-0.01763653549013051
-0.031726883942596006
0.12160227957044821
0.023982893206609564
0.0026019350547424836
0.0036159872612924657
-0.017680972351237913
-0.012899341930879722
0.02576538487866834
-0.038295348279512136
-0.048423848690063054
-0.02470019006999147
0.029501719664612732
-0.04274612153569412
0.06409307498018357
-0.004832603484232453
-0.01631797576741315
0.003131107708818467
-0.110613023690336
-5.011762490899543e-06
-0.016660554450957276
-0.025146610197591845
0.019622844463242403
-0.053284788923400044
-0.05750725219300824
-0.06391812792801516
0.08131628136955747
0.12185573295785754
-0.030421554091054542
-0.06345554145368236
0.029555271687734853
0.1251043302150837
0.01730716185286546
0.010784709870168196
-0.019841234030729814
0.026577147651195645
-0.015965460746167708
0.010425514230312056
-0.0006296208050553815
0.0016556757534228878
-0.025037244439458536
-0.011036106302589227
-0.010296656250793372
-0.009125965486415035
-0.04775118872067439
0.020911265107351022
-0.005431614558674755
0.07633833573792316
0.11558130705201637
-0.04558849906921042
-0.03198097533983872
0.002820993148714359
0.009091728410891682
-0.014666183271448028
0.003928085292473661
-0.014411944054625616
0.09181358392671032
0.1124044128278625
0.015391166742149659
-0.02173592600850682
0.029505613646850646
-0.06243741101500684
-0.20335993669630306
0.023951731860608894
-0.005602616265822521
0.02508202541563954
0.0008937229834484813
0.001492093526436826
-0.028389694984953463
-0.018314389270524423
0.01731150409692832
-0.002020357103956368
-0.022552258648771546
0.00676480621849131
-0.01477984959496924
-0.00017868759269439868
0.005099760023484109
0.024359959213832043
0.018125524708920995
0.006755221883227547
-0.006848613765266402
-0.008776258946212449
-0.017194446176260016
-0.04425257948659247
-0.0393755856985952
0.01773632172799459
-0.0028018398621580446
0.01900002835301649
-0.011977016910460977
0.00949177858840373
-0.006308242766181969
0.00017316401511304185
0.042825878223622035
-0.008208433973579453
-0.008307748534832985
-0.006887081064435391
-0.013929264873182943
-0.026890732350062774
-0.006857902810579219
-0.009281719774494216
-0.007718222913291678
0.01469708227338309
0.002152902228225129
-0.0036358664312925847
0.004155524605642438
-0.005961111862514984
-0.02061328623863551
0.03325823194336448
0.01688477495937924
0.02568466797016318
0.051327322879892695
0.021941137626523246
-0.05100870966649235
-0.026063868105197587
0.07520037687216066
0.042750228831196835
-0.021071038080388432
0.0278666833116153
-0.004459660584896468
-0.03614963370483151
0.02681717005950587
0.025606222639792516
-0.0694075010003856
-0.029935060225327135
-0.008543077642818345
0.014354412671343054
-0.016642248999433958
0.006725547682558249
-0.02040086687688139
0.00742625394783229
0.027740705999137624
0.045045403355091246
-0.06702604877185728
-0.007984930551937835
0.041242625267085886
0.031309961684402955
0.01805864771230766
-0.009850993235870607
0.008526033012839454
-0.010336213889668825
-0.036268707160885205
0.06699867671082663
0.008690442103142272
-0.021428307889065367
-0.040577680871908946
-0.03990327221176359
0.006199849060907268
0.01675851957587134
0.0038300941205415295
-0.01192717697847963
-0.011244500781078979
-0.029311483001887396
0.011511876829849457
-0.020835675555470706
-0.005106842197626327
0.011717837704324073
0.07503501918176225
-0.008448538501919546
-0.0017933644433319445
0.06662916806066502
0.06213976971675362
0.10936549657246078
-0.10296500797241848
-0.006988851820694231
0.009060664797470974
0.03371431726122831
-0.034308183483389536
-0.16237759243193764
0.000552227238068756
0.06765783148495258
-0.006697833635623075
-0.0032479281791740356
-0.17663654303588117
-0.010905298141296992
0.06825767029156898
0.030988778283985472
0.0451183309101162
0.0248381955459042
-0.023154646968594456
-0.0461841951112614
0.014481500275432243
-0.013258005006805795
-0.0009183260944569299
-0.06682083348414299
-0.01407253735258399
-0.006885070055305023
-0.03251516544570788
0.05011171993328964
0.014337345817064886
0.0012225704101988442
0.02093106199430122
0.011927955751913296
0.002795325276872122
0.03599238303948632
0.010330798326642823
0.022364508866368545
-0.06860023758030914
-0.0029473617756232565
0.011145668080944684
-0.010345549216769223
0.007860517118853657
-0.02965880047998041
-0.02596979084704786
-0.016208717570763625
-0.02630318278685533
0.03933914697640898
0.0077055523671554485
-0.01184900724493311
-0.008461923628097794
0.013786940252175245
0.0314588560699692
0.010206283881610623
0.011952255068044374
0.0030233389943719073
-0.041915972080081236
-0.015125827609217744
0.039078711598660665
0.03451005670319337
0.010470603672670411
-0.028702452271181133
0.07164637827868724
-0.0005197709228955661
0.019658734560928336
0.044824864465562206
-0.0017050878635535356
-0.004917577787968416
0.0038285957606510575
0.02396402036968125
0.030981297091905082
-0.041301091423903674
-0.12457206916744333
0.019215632674285027
-0.004346466925578854
-0.003233691192740873
-0.004618486054396897
0.03459077569783324
0.08276267147770382
-0.0006997621703192909
-0.014513304683609271
0.01055497540100343
-0.013221370478109005
-0.04676895334415654
0.015097948377016387
0.001176324174179597
-0.02863481931331011
-0.0012478749460372817
0.002402096312841686
0.0021135388945318673
-0.010190431829821227
0.03334566771989596
0.018280082707975407
-0.01230109479302473
0.012086294283923073
-0.0012839002214277452
-0.07122086512078045
-0.0861428268835732
0.04307643028584224
0.0132369957271518
-0.006992671344036532
-0.027019231467197816
0.03151102969251658
0.04082476686490078
0.01089139029320048
0.00763985774369652
0.007140941745690977
0.011460254980632186
-0.014632088434211987
0.005449191246949752
-0.013315883441535788
-0.0005916186112479788
0.033514085012149614
-0.023725084457223898
-0.007515371706929101
0.04708846140458558
0.04394683550668412
-0.0010805646217652643
-0.01985180953687246
-0.007864056965190434
-0.04582859113724545
-0.025395800267017248
0.0007614490446905113
0.01295413366919831
0.0207400979500397
0.005170108206947133
-0.016316188085961417
-0.02646970253643329
-0.001467825251713425
0.0348304571527295
-0.0504602612701627
-0.1064964805271536
-0.008782440465521091
0.003423964325508653
0.039276779388266604
0.009778485152303399
0.030134941760115438
-0.13855269806498655
-0.11241877770476255
0.14990419948650013
0.08493444518841567
-0.005829435742695443
-0.010814143661701723
0.007697316832664462
0.026434776315280316
0.025514428528898663
-0.009649376470399049
-0.012313267412954288
0.019738719377325912
0.007839159083955598
0.0192054878179595
0.016219680367094983
0.004069079335007889
0.008744913583417321
-0.01399395608158279
-0.012050156647225321
0.00450711321490413
-0.02459794501004679
0.007784959584570247
0.0912768807549835
0.12788075532396967
-0.0050462115921240105
-0.11565283502613077
-0.008649124868355609
0.027297301497848023
-0.025026312065944432
-0.03600231571484114
0.02218759863356458
-0.05548048334500327
0.0016577495815350031
0.018243130160928378
-0.024013944746372508
0.03219333277527326
0.013072853293492524
0.01804607140494193
-0.054501923116866705
-0.016330737100074662
0.029648246427470003
0.0008125175778743064
-0.03429281330282492
-0.050051751643131054
-0.007590438751058852
-0.04340215303801455
-0.13797205824403225
0.017921870615650152
-0.02087015783937921
0.14655914683883106
0.08193134028844191
0.0017459784140647784
0.035675845438645826
0.018168320751754112
-0.05252038165009124
-0.053544834153648246
0.0217628174717985
0.0015293725814550093
-0.04219137979308068
-0.012790817052602793
-0.0011863720721106703
-0.017045826640976
-0.00974447481689322
0.0697477542325598
-0.0034086671347542054
-0.013140851504780938
-0.014567043116009362
0.09106749702015628
0.0627547743517878
-0.05019616787966268
-0.0370399369769692
0.027734253025097914
-0.0215151465844945
-0.04097461530327865
-0.0016296551718944295
0.04933779125083671
0.03100951482526193
-0.0036761627004584987
0.01737203539014406
0.0032090200118400462
0.012701718875068754
-0.01794451927830542
-0.01988323524649356
-0.056963446424227245
-0.02100174829711815
-0.008309520789057973
0.01332454147786252
0.032094514960138966
-0.012567775446757006
-0.02539918275516273
-0.017910446218581746
0.02718452722657127
0.012602571770470614
-0.028334431835816996
-0.026145817961436744
0.01574151519568338
0.0073135205835903345
-0.009300356725705769
-0.011956444156360031
-0.011833049607516273
-0.06180653723499891
-0.011907941805959225
-0.00232869473767836
0.024593493007815416
-0.00601680226243289
-0.027361393017784008
0.07407625961978448
0.027278924323375
0.042949341593704046
0.06596605171770659
-0.03133642092848819
-0.0385364374621842
0.033440361378728654
0.07484136269054306
-0.0032556533550993595
-0.03216128830091468
-0.012144598071313982
-0.03907595148998579
0.028910927677942365
0.077452184702498
-0.04792398527531689
0.009644071364586703
-0.0261643221847925
0.018046290468245983
0.0384222623637568
-0.0016895886214944528
0.005081548581705406
-0.003315441129556927
-0.034318727229437844
0.1042392569974799
0.07640643448948271
-0.04682832169419559
-0.046441738377749224
-0.0036352795338609315
0.059111569493563755
0.010435654236429238
-0.010004299493109279
0.02445017842742291
0.028337076080531938
-0.15331833350792054
-0.005144514551635853
0.04193102055220972
-0.036710902111279003
-0.0368486017214698
0.018334872541564132
-0.017346481680106295
-0.013277932995362712
-0.055296812309270645
-0.027903041664076554
-0.016731593581070552
-0.028831253719217992
0.017166633452600083
0.05367407988546031
0.04856433777646157
0.023375253339299195
-0.042620298526589946
-0.023934836646145274
0.04215375217848507
0.0014097167070148636
0.0029642667861186434
0.006128837479021081
0.0055312618050107586
-0.0010632842451560017
-0.004298183879948213
-0.007004500726107843
0.016028241404377034
0.002529821470083398
-0.007860683986042385
-0.035542242990140506
-0.01615182711127219
-0.0003572522135520874
-0.009504977812934029
0.041618853463349904
-0.010939608939682004
-0.01681753774810686
0.005131458197709084
-0.016681906953821504
-0.006806983960929542
0.010263128458163058
0.03193343092136993
-0.0016786935962368249
-0.03501490107822703
-0.024826189512653606
0.039297597333065565
-0.048729950289769175
-0.14039194364834065
0.01796471490000063
0.02680495266768429
-0.01600262533710437
0.0023189060819328094
-0.005215014649835427
0.020745623601288895
-0.0038287456621718743
-0.011246943386158817
0.15438371205873494
-0.001441771910364838
-0.007917269609040588
-0.03574938876317608
-0.004727177809324583
0.00731419299307317
-0.005236538474619907
-0.058102683653222055
0.006576191181090491
0.04914689327883523
-0.02254496540898651
-0.020471934965536658
-0.008071454038871669
0.04568963968112691
-0.00033636451655253617
0.012657639258505974
-0.03962126812290322
-0.0283527105837304
0.0202379037043913
0.05069454704659555
0.1049831970249173
0.08923130749951556
0.05072255852270808
-0.03094738875510689
0.01014170677508442
-0.00797376534533698
-0.026418620233512956
-0.04436848551842041
0.022073872604173206
-0.01450870285245676
0.05062310077074052
-0.1188108090744141
-0.02135602866697381
0.02542864787138269
-0.0394333981870894
0.004851853516841742
0.018487781327841298
0.014955235036414008
0.020204112335856964
-0.01463255637984116
0.0029838853355987245
-0.006989028991903448
-0.009472531886832248
-0.010500265694448514
-0.05924369991807453
-0.06645740046156313
-0.009737389698859037
-0.007421785711161795
0.03439677498410049
0.007747410703850327
0.0032810943360969164
-0.01155946260267219
-0.011038561513632677
0.002265107494757348
0.013077938983571747
0.07000931573730838
-0.012304369933986039
-0.01565929767636112
0.011355568057470886
0.013983510524854394
0.019999505137373613
0.01431661084844761
-0.008079064538670582
-0.008169019534456227
-0.0020299793419086415
-0.00010891322084399025
-0.013894008215534869
0.008860074806881474
-0.020438558982828807
0.005732754229302824
0.026886699523696305
-0.02228824649747673
0.020808250962064248
0.006271628183717021
0.011536942918422782
0.011958712457456921
-0.010045145350813727
-0.003118525543011861
0.03936515877818724
0.06688485900358869
0.0595458930642102
0.03696975954102996
-0.007297301562901902
-0.05415151648870123
0.002327290876483654
-0.019525175088797583
-0.04365051437475533
-0.009844909984373755
0.0050803297085397145
0.030023885058084374
0.015036719776372937
-0.016952869411902615
-0.11520556069599225
-0.01918300155428032
0.029762385776354264
0.008963172812443344
-0.04552653236452335
0.004957663616112467
-0.006115891900549216
-0.03890236408611217
-0.09338939960087127
-0.09880694475689142
-0.004722447237361246
0.01582859258720815
0.14841700277187508
-0.011579238849071818
-0.01184145991370388
-0.023202042967970085
0.017327606268416285
0.011413095552916613
0.019082012527104907
0.01433472370265019
0.029432560142668297
-0.001947777053931536
0.030288685318874766
0.0016874543210146972
0.037418165536679066
0.01294373470418217
-0.003337315923113197
0.024320748173766452
-0.022621440217025106
-0.07494591762760405
0.04009815416752863
-0.020269046044683815
-0.0034943034411458935
-0.007372742226886345
0.02391718016738595
-0.022665403002685974
-0.04573829906127051
0.022143089551530798
0.09312048368530335
0.028957297131497455
-0.017106340519963386
-0.028129614814838055
0.005809873273096178
-0.005014372686232704
0.02754390337900176
-0.0004070466816185278
-0.05438909631308811
-0.03544370188507536
-0.0342980526553605
0.0033635702881507413
-0.009574785547495803
-0.005571695858971145
-0.016115431380674988
-0.019649411917336133
0.02949965296006209
0.04051577607281742
-0.019766516936383836
-0.025518095225269932
-0.003115758966362745
0.00797123336629095
-0.023312790259343207
0.10189735520887212
0.06644821165705801
-0.044755764862673686
-0.01520391677733732
-0.07629671453481725
-0.020791866480121143
-0.007162752792970396
0.016080751286516815
0.04939660016723226
-0.014924392279211872
-0.021804586008027493
0.03094169436128857
-0.024459673933005993
0.04037234777064359
0.0589659110413124
0.040930145562912114
0.02415316087430294
-0.025485842213644316
0.037174168671662546
-0.0031848477547933587
0.06139980361039682
0.014348849597895433
-0.07978293422711491
-0.007758119137165341
0.03984460089808316
-0.027210528361464335
0.032249675172022166
0.012494323285676855
0.027779292710983606
-0.10865124783159227
-0.05535166873021876
-0.0008496171192966669
0.006105799498768451
0.03288606643818887
0.020410986304488683
0.011339214631746246
-0.04296885450634318
0.019984100770400783
0.01832309215141298
-0.0018592936567710426
-0.024990111678742984
0.02442304692706449
0.02542053267879465
-0.04870047113950597
0.005405686523641414
0.042574052437611976
0.027367880398770094
-0.022971824446979046
-0.030298025852142516
-0.008854228421523988
-0.06904374631951195
0.0064765589460859235
-0.01823648963808827
0.007400936549020576
-0.037922256118316684
-0.058899245621268755
0.01992429642635646
0.030207270898257903
0.01720262786370444
0.021435522199383078
-0.00575818241463012
-0.0745858742002816
-0.010553445065541693
-0.029241206950319395
0.004526362648880364
0.003849112309601234
-0.003589865048859387
-0.027427798876956667
-0.006542134753632717
-0.0004239135851427234
-0.00531186681554955
0.0009364968923779882
0.05387588737943942
0.04975549911394686
-0.02094006631153112
0.04101055066290043
0.008336964163254405
-0.015541026400752821
0.0107793459110113
-0.004638549957562227
-0.007887802480219874
-0.018655558869129084
0.0509545965378938
-0.0023342558015552136
-0.019512129846195794
0.044047737702177556
0.008059869094445803
-0.0475739290251949
0.04934924094929341
0.0271382251518673
0.008698912229971009
0.01989130554742947
0.0023832871836794414
-0.020405419668154647
0.0330799744982038
0.033968464938051515
0.009875664970578072
0.009165373467160289
0.010813164359728645
-0.009591995161035248
0.01516187358993439
0.034975105021516094
-0.04741831002048922
-0.021156834000774238
0.012318985602554951
-0.01353791589887059
-0.0015080609957733987
0.03411512295440132
0.003501701638010252
0.009185262655850499
-0.0069380438082129485
0.010672354247492846
0.00044491430959272144
0.0351549887961247
-0.01712921118268906
-0.024101039671451514
-0.005943687173355003
0.0068363746343490205
0.011378176681654997
-0.0031519860020667503
-0.18196993834669417
-0.0210710732803254
-0.00558578689819189
-0.011465998212044307
-0.06450534216464876
-0.034049994656238626
0.008905724993141542
-0.01109661748711824
0.07769363161751147
-0.013307508406504241
-0.162968841343443
-0.050493271224015014
0.0002469151091029928
-0.004261402748522056
-0.02538425560864193
-0.00047592012283227545
0.020902478872520856
-0.011756615789735981
0.12059750101326315
0.10755288511477056
-0.04074472415914762
0.011258345499828765
0.015867063533436473
-0.011205540143220064
-0.025254387752713006
-0.01846040110017625
-0.04807304420448682
-0.052779091876220756
-0.015771042199878304
0.1827116771586046
0.12966854393618268
0.03469747393713898
0.0629070437526584
-0.012191627825634007
-0.0015487614813746956
-0.01469751414122077
0.0078580272244867
-0.0053957085597380865
0.006091792404274723
-0.02411331963254578
-0.027925581307650955
-0.0389947523618081
-0.009384301272644485
-0.009994675892130597
0.004130043050840468
-0.0702325468973014
0.04258553703366647
0.027714190483541092
0.016516973115721662
0.06595175248085908
0.010197903673300783
0.04217689756461834
-0.05689480898225483
-0.02011642050044895
0.026235774211886956
0.07718092367769962
0.051108487967103
-0.08214755248778902
-0.05871545296856036
0.01183667210581553
-0.00024951526794316203
0.04446227299878174
-0.005886304404797778
-0.009547992996672581
-0.009482595321707435
0.0009080730625733582
-0.02195190141608975
0.004542750652850768
-0.017178408782698346
0.011952596460898506
0.03264977263522069
0.028235549847141085
-0.005411475987327193
0.08474295204448942
0.011387192709711821
0.002103338139202825
-0.0014711177867448265
-0.027656018349236592
-0.05745273933119307
-0.008721707710000338
-0.021923840964996444
0.04878236852698974
0.013231792101262761
0.0244587096124264
-0.1622063495903979
-0.056487629820692414
0.0314290774217863
0.0219997917074484
-0.07034830096516699
-0.04396643294784804
0.010830176240014058
-0.026280883109555578
-0.00488970679147989
0.0030824207195956745
0.003357071653225259
-0.03062559042743653
-0.03405649511666063
-0.006124905369669086
-0.04006004514987745
-0.027484540640439464
-0.015294571316510052
-0.008642231149522684
0.012610157608366758
0.04899476061364554
0.004753231403470444
-0.021070155113821494
-0.003922261982049434
-0.016786684101380674
-0.017170412851607864
-0.02189888475983018
0.010032385536247674
-0.035380624008733395
0.006772983452101944
0.024330687575735834
-0.008439943525280118
0.029694669895261264
0.04436739534152779
-0.01527196753781028
0.018618832485838115
0.14847205729505586
0.006434058632025582
0.042349743664935505
0.019418702018017098
0.0005381866850121715
0.0910200872755785
-0.008367716459929096
-0.005457762783592457
0.0014860397664460921
0.024258401817905714
-0.012109349935489103
-0.03359141914281539
-0.0053161474850068466
-0.03384747945456795
-0.002965643507865072
0.010810337138400286
0.03305823571787754
0.004632308282007729
-0.01582477730134589
-0.019639935047136278
0.009809442993038453
0.02589022116514847
0.0454288594036581
-0.06023102319637579
-0.0021116870699290774
-0.020770947959113852
0.010365485825623256
0.012320256751644073
-0.0019640076687074876
0.029149686270969106
-0.013720379501514765
-0.045928947336190476
-0.01780608704014365
0.023777961561089734
0.030452584770803655
-0.07122459042830982
-1.3319948154447534e-05
0.05769093325809402
-0.006352601270808725
-0.00964437581569013
-0.015723964384381284
-0.01337430295865306
-0.021487231801288333
0.0325419904520484
0.055347214812547174
0.03396989612545883
-0.0723323795074499
-0.05150074033466717
-0.04461972676437153
0.07115761041150409
-0.008243976964027991
-0.02673035586317677
0.0234492210856595
-0.005850236002722604
-0.0017253998564831442
0.023816687967626617
0.08941912441298235
-0.042695824922184065
-0.09370802091064655
0.02722896356323124
0.07087097983468907
0.010585208631395178
-0.06017040717169257
-0.02709053178957346
0.0066334342618498375
0.014073254043357087
-0.021111360067080497
-0.010374950703836996
0.02535332305943341
0.031990394997400605
-0.029489549673051438
-0.0056277871441586125
0.02946308035647839
-0.024418127166531172
0.03144739108558493
-0.02731160878657044
-0.04058253689448625
-0.008563939271544087
-0.029522515588686057
0.010213322237476178
-0.004899565110964525
-0.05686592535662948
0.0009076576897242752
-0.0059815815306857095
0.05693619795441538
0.006814446665426333
-0.018548625247846246
-0.019444064038076993
0.07970238011399948
0.03248473065234165
-0.00952769517307585
0.008882952134850032
0.04180309768877731
0.03627951076288432
-0.0032666620555739214
-0.02689227917838556
-0.02624326546164364
-0.040911951384697214
0.0058503028578335975
0.020326975076094416
-0.007197711787307226
-0.038383912263788456
-0.024308812256018327
-0.008710488062514137
-0.018245886262076037
-0.012335005987277077
0.0008592397046568765
0.00420545996993074
-0.008807618104744376
0.0345877817232485
0.019848897306996873
-0.017128304856130892
0.03094527283338187
0.03383972738132955
-0.021028464283040563
0.00037050825263437785
0.0435283456847746
-0.0013015429661713915
-0.012906762663872064
0.03313314509556951
-0.012974612834621466
-0.0341635064584181
-0.047450519470932075
0.023798828632564075
0.0212514558916688
-0.020039303335506096
0.01017473531645695
-0.0025806785584113054
-0.009516910938740089
-0.03537658154987409
0.0059432207922464845
0.0030651197963693115
-0.002516220516134297
-0.016639236652209427
-0.07975129775929146
-0.012246578520521037
-0.0043919984774704445
0.0015227099439157935
-0.048911264425159036
0.03435458004557241
0.08490741484190577
-0.027969636937357024
0.13439877260765665
0.05296632545380356
-0.013289793775689781
-0.038982603914909215
-0.02172278365310111
0.0031979083906136805
-0.01318970232812513
-0.046346212194628755
0.009206138723073298
0.045544266259593076
0.0032390046289776705
-0.004736258094597614
-0.030372454907476046
-0.0156490774196063
0.021063048086402095
0.008843001186985815
0.005341142679752594
-0.002012687798169455
-0.003735733546677522
0.008378519205420319
0.003391469101028284
0.005719896009907403
-0.029530955358282835
-0.023400698456958944
-0.021482371449586857
0.04519103368492625
0.09659410216182496
-0.018907248676959285
0.003281121747673312
0.0032281121974805905
0.059141674864602437
0.048057181069576044
-0.0364883923755593
0.03215990298735231
0.055657257995366624
-0.01769326883134111
0.0030813295447664774
-0.02667059171984597
0.0018726723492255033
0.002475755236089604
-0.062029053354025254
-0.06302066193550926
-0.13919485370845255
-0.12585636299874778
0.007166895615922572
0.06287931374512905
0.017074766433927104
0.020894552645097743
0.10213561165338016
0.025682656996355236
-0.04957245838018166
-0.04237596676578527
0.055556319898207994
-0.013292603909186192
0.032404990564195296
0.0011108395570113587
0.0010457957654083688
-0.021003435867988432
0.01026462955102982
-0.041145496937753594
-0.034473668159125996
-0.02723049823198538
-0.003585664715294955
-0.026755672850265404
-0.008331233859282947
-0.04545238711366115
0.012319403868870123
-0.02742357618762625
0.1167791281220044
0.0885552948649178
0.021695988944332244
0.03922361166207723
0.017780295124380924
0.00905104597133247
-0.0202213470348942
-0.025559481261012634
-0.061573651765898955
-0.0499108321734937
0.0173794752900529
0.03513714270341206
0.02149846098252336
0.10128141337378133
-0.015002031829733482
-0.009195525820457769
0.011563462801077147
0.02452725297021066
0.013316199590769578
-0.0037994018581476766
-0.025543251679066865
-0.015951572027728487
-0.003640076353132623
0.01594090755432232
-0.0019415169136429706
-0.04620122732900743
0.05410037186677716
-0.020165406178796863
-0.06065798875536667
0.014598586133545333
-0.013972239039769074
-0.011140253646920372
-0.01747241919563214
-0.0118693042981001
-0.010362458164421775
-0.017411539917688512
-0.014244568993403567
0.022959018152363248
0.02919899777662746
0.045593624051143485
-0.041142220493146545
-0.03627013730714712
-0.016563117506320918
-0.020040329908534448
0.08837608785035608
-0.007963435493472157
-0.05969753838332049
-0.022584787811652716
0.01486647894262623
-0.020013995390975044
-0.009177160265496335
-0.004505761926917851
-0.022078769227609443
0.025228424593529454
0.027592394219525338
0.00805782360718818
-0.0065160186690924405
-0.007795556613986024
-0.036475994505674625
0.0004095094002317757
0.013872628176978857
0.05224639111620008
0.01905975776795281
-0.027872586759927334
0.013401635132796493
0.0012205737620509388
0.000863084205746474
0.028591038128183952
0.19177341037501355
0.02220594698449362
-0.05368794318129628
-0.05416094088959182
-0.06518418060127938
-0.07297096206045682
-0.015446497956642168
0.002361305236848407
0.00993051198649384
-0.045851650184319755
-0.03827417369707225
-0.05178440426457794
0.04908239976584301
0.1124354881858179
0.01566193150116431
0.020459077822987993
-0.01776207335361802
0.009611884152959403
-0.008655256063468496
-0.016668984282600455
-0.002161750191638437
-0.01604268061763608
0.010102536894363258
0.04793043292860404
0.004174386793251276
-0.010091753082074408
0.008314700472095506
-0.0038748678262951297
0.010964371861395643
0.003303748308636897
0.049762737639474905
-0.019308737886307485
0.02604070310486724
-0.002698427172571488
0.013230406238899473
-0.05143898270814155
-0.06497341009620247
0.01761547959760697
-0.004060907004642511
-0.0205584919797492
-0.0456545348094127
0.005366416656866544
0.027464407568149985
0.020133644551094523
-0.030749719524353052
-0.07016350786823984
0.07404638038386888
0.128950464170882
