0
-0.003058700028563018
-0.01530272684567239
-0.008297715676978866
0.040731162138808834
-0.0033778275470430805
-0.021519394768275725
-0.0655379440600819
0.06497116958490759
0.043677634276702654
0.06700679632390877
0.015217058781370241
-0.03858665872178867
-0.010833572632937079
-0.006709895825564617
0.02841063781118538
0.0014599330616565623
0.0321953321153739
-0.015176033496278102
0.03534860171515723
-0.061012609484433974
-0.0813030971317415
0.009425543637206595
-0.02655016158153507
0.015601283443072513
-0.004924942470939513
0.007127728585749269
0.04454853881393678
0.054411931637832395
0.023144470748033868
-0.04181544363293736
0.016592555190554817
0.012659831858406408
-0.007906279307983164
0.0031688725731723153
-0.007927772189514518
0.026027989947939794
0.005477056953223018
0.0005603563251449772
-0.04131405774285355
-0.055529682913540365
0.0038536715118275165
-0.00604983920671888
-0.01652411609365124
-0.012028934281848678
-0.0051803789483767975
-0.042517822294905014
0.030926376571240193
0.08821908743319178
-0.00019547068794689425
-0.06729328853723023
-0.03187578278545552
0.007086101081428754
0.01979875663882902
0.032787468688445134
0.02620422854151958
0.009201503276271918
-0.0052433266987257756
0.041063030314213614
-0.008518210729492947
0.030330906253672386
-0.035697779719779964
0.045841730693148265
-0.0389548750923226
-0.0695463956067312
-0.0005444004952208835
-0.020762595987597325
-0.007578402023503304
-0.00790959369910468
0.020190894626502195
0.00029766837368982226
0.009802785548862183
0.023708538364405417
-0.01597938172590515
-0.002094942477276557
-0.018734734949593348
0.024873295402585628
0.002478517781734967
0.007630631267266425
-0.01577561112059531
0.0023800785043044995
0.055064455210604164
0.004395510529807029
-0.0016994957657735798
0.05251825912805642
0.028727566190748333
-0.018331511436550728
-0.02113490904587731
0.0023710581749110554
-0.028076182277182976
-0.007101152841401388
-0.008683216207481382
-0.005532617496318135
0.04246098795616347
-0.001972288310978199
0.02678627723939701
-0.006198492565761502
-0.040393101574284836
-0.0032884568980436056
-0.0154402394600384
0.026135794470011707
0.07878879200180942
-0.003584260419439492
-0.016603218377074548
-0.007641154680098061
-0.028389574297782497
-0.047635911746529105
0.0035704592725057213
0.0012392008353313212
0.008805271633333842
-0.049168500713238826
0.0030669971670283843
0.010065176971206662
0.014114553937177041
0.05938383137845627
-0.011764483460715479
-0.13901638037687172
-0.016934146623276605
-0.0033358667279213823
0.005242573326423323
-0.0009484319943471961
-0.006921958466025309
-0.0060691747771615765
0.0015166282196131743
0.0629412056105365
-0.0068522667804199145
-0.07429978812777376
0.01424161990259729
0.00708497726630517
0.021568331608596898
0.020072144964092428
0.0395564966186104
-0.0023252500512922743
-0.00424683861657081
-0.0018110489381376188
-0.0023354162346217117
-0.011557615191928659
-0.006692547407016494
0.012982903558029
0.017306223498815863
0.017263772980654905
-0.005710288518266698
-0.022609578186354968
-0.028957115968717147
-0.015345703069417897
-0.005145814683998139
0.01333462317333507
0.0033912090576715247
0.035397939212878524
0.07143274512276514
0.03079884736050603
0.03583286827638071
0.028006469065866176
-0.01787161484732037
-0.030663189786001487
-0.013454011931132584
-0.01638296058963306
0.02404578297926476
-0.004974437082663862
0.020632728463071872
0.009926696563961623
-0.061172038185222946
-0.014772506070369645
0.020222901734496358
0.019302089100145886
0.048248089584666955
-0.04152502996569382
-0.07937076503585488
-0.05294880661418065
-0.029587623118850423
0.10119629697935838
0.05524962299350145
-0.036493028230556654
-0.003068015253552129
0.01861490534954034
0.020434019374733294
-0.0050602089684779385
-0.010753786288905158
-0.010414389812439227
0.0269229024515861
-0.029972200259137407
0.002535820560567476
-0.09166519391290255
-0.1426076123728237
-0.01977432699115151
-0.01648472947403883
0.03255587825657342
0.01524066063893665
0.05751761712476735
-0.0044502401691395585
-0.0459924739577396
0.000536109082749065
-0.021931183572444956
0.0017836180310638189
0.01729211954591973
-0.0024965510690674667
-0.0001946738529420216
0.05439191005949673
-0.003718854911363759
0.05826779588294301
0.10640996515626552
0.004959691565883449
0.005642223007288332
-0.03695346624374593
0.0031309850914076533
0.017608685057228315
0.026873717061825037
-0.018531352431324415
-0.0005489873604071726
-0.020481746704361103
-0.01172572122109512
-0.041801923171366245
0.10452826848186529
0.053969937228328164
0.00886119392558299
-0.02711890475160026
-0.02214587819539592
-0.005988918191593046
-0.03165402433151014
-0.008781028552901481
0.024734328763769443
0.03799366134619539
-0.012433911562991822
-0.0005115800604353424
-0.026300869305501483
0.008368865566157518
-0.008658669933102799
0.0027613906118253966
-0.011074107773822723
0.06423283810571133
-0.02781624119825525
-0.002123092757772619
-0.008913611819923109
0.00480281259336601
-0.039138503655040756
0.057409648692839044
-0.04962296035548334
-0.057098126072650426
-0.0029526866695980167
0.09260952245703709
0.07514979465998878
-0.04385359959832912
-0.1491236458403654
-0.037251665779856474
0.09206891145941958
-0.0044350273571315026
0.021674811006769896
-0.009123468823428415
0.001610615513354108
-0.0573929917674666
-0.02400054117574014
0.020967711914194567
0.06509333698083322
-0.13583075601440375
-0.011352982873981452
-0.04988395036316912
0.013333007704222724
0.024120439528452615
0.0048877047020715065
0.011351074669276246
0.05987813080514584
-0.0032509907915996648
-0.026002577067917657
0.018593475972199097
0.018337627942892988
0.0033831467558161892
-0.015297306543328781
0.0013139685771451583
-0.04548502007143084
-0.015260320974826021
0.005827355313573124
0.009276923620804489
-0.0035654012693729182
0.019676303579426367
0.06220684390555236
-0.00514995254862098
-0.010403402220265862
0.00024286371525477583
0.011728002655462514
0.0683550187687254
0.00627130414932913
0.02512479695680337
0.038576213323630155
-0.08392821445898055
0.00469039305992186
0.030462725513143902
0.06034763268433604
-0.04654484177319841
-0.03108016920881188
-0.015347275411713839
-0.016717330355613732
-0.01752701617888806
0.03672328378772352
-0.11500795149219885
-0.08072472959757067
0.007488682871428143
-0.05734660942484032
0.0019551882393822463
-0.012240369995306925
-0.04906710665235397
-0.01115731746581474
-0.046861500746492445
0.019749349491368952
-0.011754641152550175
0.12565095783332791
0.2621633425689386
0.05639666984117874
-0.014295782273982162
-0.026665666507329686
0.002460287933214341
-0.014452719863219382
-0.021218387727949685
0.0008060288948644005
-0.023501615451108692
0.012631047842090574
0.03861063771533118
-0.016474872191090693
0.009153537585699263
-0.0678136922438877
-0.019583443912032622
0.04169514116754045
-0.00890615203552582
-0.018967300603119398
0.03632783371242181
0.11540492538531091
-0.042205314152281584
0.009528046898892821
-0.006106174253390159
0.01810455390219349
0.016916507204023913
0.016874324039254235
0.028426364846435574
-0.015863922223307344
0.0022768756895125454
-0.05329946492727447
-0.03743014339688405
-0.017939561305846476
0.009666610879491798
0.006953309948454267
-0.019401603346675678
0.039265114669840326
0.0015141840522951517
-0.03741023893573673
-0.021932335827340946
-0.027913907419825818
-0.04184386463458566
-0.015749062943819756
0.0022597054196639194
0.005351301661584936
-0.06785493834102323
-0.0030411461014554038
-0.013111467931195815
-0.056326715569829204
-0.03347729021105669
0.01862534195123913
0.01908808301287892
0.009056234224577603
0.06918065163455413
0.01389214663403386
-0.025888613253457114
0.004776516960519507
0.04006926637922719
0.04134879742789141
-0.025793876221810775
0.0032131870722959667
-0.06803105167612856
-0.014354570671809789
-0.029327791145443295
0.002204520977456585
0.011624928210623045
0.05535004347907192
0.040165081304293325
0.029617482349192776
-0.03659434263938491
0.033194978970549564
0.016850412226611572
0.06843081747494144
0.0890440640764607
-0.03735285160986909
-0.01495186402849292
-0.02729598321456851
0.03666222458110655
0.00010397484213321664
-0.022316958342736004
-0.0723598524934695
-0.0064239724292091465
0.022829045755437382
0.009750960766913003
-0.023402602243249238
-0.10694149281920233
-0.02601026152319471
0.03321835689290372
-0.01780980182539317
-0.01050281997041257
-0.0277017799212558
0.033169079918138354
-0.030448988558772108
-0.023066753131760754
0.04305769418070115
0.00920903994776846
-0.014547494433517237
0.02579206998399823
0.09211613318800344
0.059415624762813486
0.014965712792295844
0.053426598220370165
0.01805967426519961
-0.0481848523118407
-0.054935225036142954
-0.020055766821651767
-0.0011612034579239299
-0.025264475826394135
0.037702896698905676
0.022952891380914536
-0.03933674816969402
-0.00022185232539883654
0.006643232566357881
0.010600302209914448
0.031334131907643836
0.03724354973853552
0.031735063097607284
0.010446373295972205
0.0071332763955177835
-0.029749434906368714
-0.015325439913781111
0.0074076893496491224
-0.023791947279782656
-0.017150045064089205
0.027064701854595346
0.009289849304364153
0.03683151122948661
-0.004021622602971697
0.002101691680602538
0.009158926549076253
-0.031746515441518394
-0.13858237835160958
-0.09472975288394796
0.03154518051628666
-0.018532258526281285
-0.02881329110066488
-0.029812470855876485
0.04776257815961065
-0.0002900301095998493
-0.1387921478272466
0.014376432983739272
0.0013322004961476225
0.007539509790911743
0.03097447911576592
0.021133098860223656
0.008697247138112006
-0.004993725813972786
0.0010531755247317808
0.03363594157172999
0.023182995252926723
0.03985862871494638
-0.003311070481006303
0.024016622511255567
0.05070779551315541
0.009212281165084421
-0.02652632728499569
0.008906720976800623
-0.05216768323649644
-0.0049795997830755995
0.017048169774986806
0.006969749382384996
0.012246348364840955
0.006258023558976451
-0.028290618072424747
-0.02077727997374614
-0.082083225740739
0.11832887121909254
0.06618752839708746
-0.006418288046020413
0.007225737619728181
-0.09373567157408938
-0.047661892381471276
-0.0540494853159069
0.01873906887014592
0.03303533449784923
-0.00024329148587305874
0.024553051887532845
0.04644533230711269
-0.014914750263115017
0.047443885821310344
0.03431087440298037
-0.010999984764585722
-0.005954993070557314
-0.016586385086005913
-0.02168899688347925
0.013582254368899382
-0.00801765050784954
-0.025681027330711762
0.09129185120697354
-0.009010061486026476
0.02640736476044021
-0.013822785556459145
-0.022919939578607787
0.04064354132751426
-0.004780622836909002
-0.017000261917253803
0.010813033352057064
0.045363206413293375
-0.002204283995977405
-0.03942213996306305
-0.01996754472867909
0.014233839117747046
0.0017314058525618645
0.0076664718383698946
0.017714644745179257
-0.012997536874778072
-0.034202065619404136
-0.035197487991564774
0.0006690855845057327
-0.04070948049635016
0.1185986857980557
0.10631725823672397
-0.042300307366044565
0.0019159024245562388
-0.048924017462775235
-0.05039004244502071
-0.0026202443302418507
-0.028514407362697253
-0.027702247428613703
0.0019197805838180998
0.003409039539106235
0.015460007579716727
-0.03372955429905576
0.002694909154432556
-0.01336630272502404
0.008685638515209952
0.030053357572383994
-0.018760107251432262
-0.001377825881406568
0.04933258805011389
0.04119532522825057
-0.035492895356597234
-0.013621977894032468
-0.022309922369784546
-0.06043637715733241
-0.00460567943404089
0.05256991727751605
0.049280004882939724
0.004037993369412196
0.050210076049052234
0.01148308680350897
0.04285694974885003
-0.05144384529196688
-0.07162541470926778
0.007707575753252844
0.002752294379165452
0.014979603395585002
-0.046335958360070324
-0.027611581435931853
-0.013682534576123982
-0.019372350406062878
-0.02175342303558591
-0.01903949946147033
0.011094455020634882
0.01855389380704722
-0.01409077625501488
-0.02885703495816134
-0.018522846557269594
0.014496412331741775
-0.019848163459710202
-0.003942174919108055
0.011300107647831768
-0.01588913948669459
0.012162329435282603
-0.012499373228550407
-0.005190665492623245
0.025046267328583432
0.014855442256549781
0.05571531850550176
-0.0027768561316491264
0.014887225722166298
-0.009030889699455523
-0.027146000199713312
-0.011628384268258598
0.006925947962773453
0.017033575957487692
-0.015985077181730725
-0.015638369604922424
-0.07682289432583671
0.010320924808157468
-0.018285790265022774
-0.0006804958509072512
-0.030114594331596994
0.017553032223777795
0.057320557828325215
0.16079551177800597
0.008625448554695459
-0.022895786722400252
0.0018319746168361192
0.0035371528624464346
-0.03330392630422019
-0.002501197372957777
0.07482244165538449
-0.004550795756686114
0.026365098439350584
0.012497400148454145
0.0002820278180028193
-0.02889674077255381
-0.017914928347388462
0.033139423080796995
-0.003255164378584534
0.036858563173999874
-0.0025442813012293234
-0.027660021685604462
-0.000671086096375935
-0.03470602298956745
-0.03865916183332011
0.015286490882495726
0.03599229790592655
0.01600615199507116
-0.0022830925231335677
0.18167239582070757
0.07180764924609817
0.00963502543900809
-0.0035943480178044496
-0.007418002186615123
-0.032445662362389695
-0.04012118976483702
-0.054138334428244575
-0.056592384290857015
-0.06605237722650557
-0.027296898747761204
-0.018570417656936223
-0.01651290656272872
-0.021560229774590642
-0.06069765215619465
0.004489032415083957
0.02308126005975558
-0.0021214979202667456
-0.044433609446406494
0.008202258241997815
0.034429596735530234
-0.006322171760571404
0.004077464375403671
0.004813859187544305
-0.05618849468190881
-0.041047216461685423
0.014044258235830045
0.04577433645792964
-0.005260513946097103
-0.04085348572469473
-0.001130191329036281
0.027840327956871632
0.08024342100963239
-0.0031955605050557516
-0.009239869575900023
-0.06738019727162806
0.05569856956536757
0.0437653796728115
0.004744537492071161
-0.054431940409135196
0.0006684897660626404
-0.01387473868569028
0.017351949061652897
-0.06338170184275932
-0.09499060758715931
0.04361684139115241
0.027223671222829652
-0.02493651000783464
0.029789896220778916
0.0314199874838919
0.01614110149738309
0.028539356123115537
-0.008193399248548085
-0.029842643595110335
0.02503149258888003
-0.053152149496006586
0.0484688025302242
0.10722596925208751
-0.03059570676168412
0.008559183159643371
-0.011581694818155418
-0.014502371792521897
-0.011173459026732837
-0.03480899566006667
-0.042131445001278967
-0.020125183261601173
0.0013163476195023121
0.020177597160325578
-0.007703848814358704
0.03169541040360786
0.013504626068477285
-0.0027950509705266515
-0.004646440079238983
0.12241867019356294
0.011632095399214327
0.09234651365189603
-0.11927179712633545
-0.07147526895251363
0.07690107686839469
-0.03596219895026094
0.05114369738902199
0.12760550993876402
0.004113036618162068
0.000665890870159491
0.024295359430632258
0.006305207225669087
0.0006556923621193038
-0.008718225529760641
-0.0043179109701324036
-0.03404502499816322
-0.011513037415258902
0.005516167339175104
-0.03628933271586849
0.030879147413201937
-0.11439138504222252
-0.14383567047697882
0.07729097840171917
0.10146744763474647
0.01804501450074498
-0.02868428476051373
-0.0014924366731529771
0.005641454431377488
-0.08791123402722434
-0.016888400259237345
0.023671889146569404
-0.03062358418655557
0.023592667630181727
-0.010338303469986852
0.015992379893198714
1.0546220382791083e-05
0.016212619328097064
-0.004921073557480797
0.021147068354641654
-0.08586515902525162
-0.02772031693116795
0.041101074666502126
0.021982528065365273
-0.008902931024602281
0.018069216241911643
-0.011318571047803252
-0.0021285484664815436
0.0693043980460964
-0.012854907559862544
-0.11075858060812116
-0.006229335144158951
0.030687265503923075
0.0268766172531922
0.035873080027778476
0.027506193332839327
-0.03264758464481441
-0.056647356992403385
-0.0025228680338157303
0.0005987608932928846
-0.00901633459757837
-0.00247816943821273
-0.01301174820466444
-0.01048647214223309
-0.015922038368671766
0.06720700130535201
0.015523400651730907
-0.014273031139032473
-0.003481242210850554
-0.0065436782935745855
0.017629171069706757
-0.003739071460945545
-0.0064951089644544255
0.020431797871241213
-0.10019352958396603
-0.05936161896887815
0.05675858411909397
-0.042800502237536904
0.023742888771965995
0.029288233069986184
0.004338608667009762
0.007888593179939837
0.07527780964761951
-0.030232631591753975
0.03652394843466282
0.04658607082310747
0.029527973019848643
-0.1507319028278472
-0.027783515287800844
0.06570843759065684
-0.032270018646403234
0.08182642371952771
0.03718126373655796
-0.012280256700227308
0.03501838604404606
0.04689054451500713
0.021211225490729544
0.015705573861217223
-0.035949749244776445
0.010456051972453992
0.01967468272459409
-0.003287420378858086
-0.0027588175985276573
0.008408273683513405
-0.011682917599977971
-0.009804996662740432
-0.04097959629152897
-0.0065370475526929945
-0.004165688888096049
0.0035312221140760486
-0.007920484216604531
-0.024997873049049307
-0.043484174722607696
-0.010940305008997515
0.04271754066016928
0.0019451020414104788
-0.08091737928634533
0.004848458663773898
0.008984739869097454
-0.039563841777290866
0.006031959281166614
0.02411842923290184
0.03653773657339924
-0.10106944196991915
0.01365349229260792
-0.012893878137273223
-0.012953958136133622
0.0879763842492298
0.05122878329448029
-5.959921352783639e-05
-0.014181773036683411
0.030239508453316973
-0.011951630035933858
0.0179601030999352
0.004784308342929628
0.01962378280877383
-0.13289306381894914
0.007946827237418215
0.13583531625583892
-0.003303261045153053
-0.026690301791226077
-0.026722133147925
-0.02653601328677585
-0.013206579499942772
-0.019315451537104775
-0.00446797862215181
0.02085110180013121
0.03651665439139807
0.06486308936882704
0.00533903388693503
-0.013503027320600281
-0.011547486283709215
0.0022232879912150246
0.03182476860116696
-0.009106780618213283
-0.03442834487102112
0.023980861333737016
0.05488032995418895
-0.017478987979205187
-0.08745198480018002
-0.03585018337947911
0.0618656849783212
0.027354183403968387
-0.022278062176972025
-0.014530444890143162
0.004391826216425405
-0.07391981978381246
0.015094723601193098
0.011802629418438076
-0.001551683635915606
-0.044888704395365055
-0.014716480571687786
0.003427777503637883
-0.009141643188431298
0.023736654404949174
-0.01540876875548938
0.02393396163618064
0.004232048494587951
-0.0034475145347551595
-0.004065249954643143
0.028590071561260182
-0.03904220229819935
-0.008896275388504219
0.017487332202786088
0.007552685814376575
-0.03651843544796735
-0.008184993432158835
-0.02699994907659156
-0.02149745507375358
0.0791401010608987
0.02010489982557922
-0.012778296781858158
0.046185164372592784
0.005576770924603623
-0.008596981519851131
0.02836906764140062
-0.0018224713346967002
-0.037841937782325044
-0.015692501632869376
-0.02151799792108992
-0.004879446964710993
-0.02661930039257751
0.015880890718103367
-0.020039795044022292
-0.0022640347662545653
-0.010798917247639213
0.021230813565973523
-0.02560660156702074
-0.02566067896565466
-0.007045536112224581
0.015923707114802028
-0.015795213284314408
0.0011919577279138355
0.17031148190554893
0.020440362978189307
-0.05364920059724674
-0.03637105213679845
0.049233259568499194
0.012835277096132839
0.07649957057474974
0.026764749354896054
-0.06547926590721712
-0.04302118257106167
0.05300283376303734
-0.014363743717188661
0.004195496341590518
0.006483502504560121
0.07166864206664067
0.013715458765414221
0.032752116331588574
0.003914451363766303
-0.013149349963140992
-0.045075630003186457
0.004185071740584053
0.03401914700495473
-0.02727341136677781
-0.02318681028505225
0.038197734820150736
0.043838515235332484
-0.02172302642100866
-0.003355126365326176
-0.02386129286349814
-0.005100887670758737
0.0083427699361417
0.0064442212579950515
-0.11342623044477773
0.008368910474184442
0.017304445882956525
0.0430536257487754
-0.029515625061056688
0.02070197318318677
-0.07033535184251075
-0.17528286467796336
0.009323312753618782
-0.008549414440549557
-0.01640648067718232
-0.00872790515443336
0.014848810387562621
0.07045244659221772
-0.028749847083845897
-0.01918200878334519
0.018962568621458543
0.047262394055495
0.0381458501963204
-0.015688691637952147
-0.04794678745938384
0.003296990013501034
0.011538145368166176
0.008721130603760872
-0.04683101833030388
0.01654648163754381
0.056226635167320065
-0.008094799222308687
0.02046001197256307
0.004555827201375488
0.014774466245066122
0.020427067530724395
0.024783778250626488
-0.019541429990898397
-0.006314339426676387
0.010441413253648507
0.024751702540954764
0.018003166539077485
0.033751665343065784
0.035150472555441986
0.00898431326496184
0.030699624542579663
-0.06066197864374176
-0.07759271223443527
0.015530531653919582
-0.004095202917037778
0.03029302393885499
-0.1440554392869225
-0.09053528518764387
0.05809319478884447
-0.00442009169568255
-0.04056935702956028
-0.0038364446091945672
-0.022085719857447027
-0.014933478743586158
0.013157176488060597
-0.00041344508757642265
-0.0410128801953462
0.03808784137273287
0.05251404722212414
0.027431421668891818
0.059318484978467444
-0.016881193503036906
0.05700899028741285
0.03138292459911603
0.014375119917519491
0.024137131544732883
-0.007310550651936611
-0.016048725296688156
0.0013980414446619772
0.004076205435476917
-0.040063511182765105
0.009875771844290487
0.008863570548205163
0.020000923433322923
0.009987180447637262
0.044871605169665846
-0.05316123595624711
-0.04387889300436018
0.015106877893596006
-0.029165316819084942
-0.005801384542690234
-0.020965046170452112
-0.014266525946032121
-0.023389696104321917
-0.005981229465065684
0.010481678172319044
0.0017652989526236859
0.09252629613368489
-0.011204295768409138
-0.04571798434020882
0.029982941186997455
0.043322370684420596
-0.004608911580343542
-0.008965813750560138
0.02758614471879264
-0.022257170104299215
0.0026466584933804637
-0.10357936857721499
-0.09073454314327946
0.018965254818536652
-0.009703116231685767
0.008781836450482009
0.008306435149337342
0.0564030751210719
-0.009285427880780652
0.00983772425113113
-0.01265469127503067
0.06293566326413565
0.025205586132250855
-0.00932011247245473
0.0021502195657095552
0.019181866599347477
0.011788283181098034
-0.06402819431339106
0.025122121125212768
-0.0036936367239247055
0.014493534390455979
0.012223751280078084
-0.03253558131794612
-0.008229771186802402
0.01861078288629593
0.04389412461448796
-0.00017323583718631318
0.09244368941052761
0.0449869034488504
0.005454598650382912
-0.003210367956955077
0.0519593779837726
0.047853560093522575
-0.0032326356124982754
-0.022180270203554595
-0.029039866461436782
-0.04650894300117016
-0.07044515296814605
0.01646020897411212
0.016117460719842863
-0.011435937588077537
-0.00836131483036368
-0.1871375475594351
-0.06459722368221348
0.01153961818832399
0.027097487926248515
0.029896261564324598
-0.11621782170721073
0.00947943086062473
-0.05141577944726953
0.06028324591696024
-0.0032929643036199918
0.05219722098759084
-0.010144582903179405
-0.05603140695387207
0.10543789880387101
0.02346711512438625
0.07709965587924937
0.020238009513258236
0.005954127560457948
-0.016980551083026985
-0.018884763740432364
-0.017349328949640214
0.003942538201720408
-0.018899478828036935
0.010642512051069492
0.03342035682082075
-0.006605609527808081
-0.032236924587355456
0.0040606140559311865
-0.019247869478284267
-0.03447868677191304
-0.006293808514352213
-0.016501924979268834
-0.005796463441614849
-0.008796163098611531
-0.018629192946989014
-0.022218037124725892
-0.014392525408907208
-0.03871947218326198
0.00742289628355075
0.0023635712971999496
-0.019224302764945175
0.005146796946992603
-0.012078666499901346
0.015100479376501181
0.06206513712689069
0.047845134902957664
-0.011092437691425577
0.025095166550233375
0.07923363857675575
-0.029419074590812968
-0.0004771665827347287
0.04896132265497168
0.008271980919513368
-0.013187538694726567
-0.0043119377074076455
0.1566954489518278
0.04129677067621544
-0.06627387841538004
0.012952103365530362
-0.010327361278421732
0.06990142425514487
0.011390138848333085
-0.01311991634976955
-0.020765913133154887
-0.016644097716311097
-0.002452509803790004
-0.06018351265292191
-0.01402160804546917
0.005954384173185264
-0.007037203643088556
0.0018821751655902818
-0.0253394297859885
-0.021201177333510703
-0.05968249877600978
-0.05426642452480126
0.047613128498323457
-0.004961434492291206
-0.024601514037709077
-0.02580606455388344
-5.582414559330122e-05
0.012468381086535418
0.0012726523212910062
0.01397474428446948
0.003435854039862982
0.03512135880365895
0.0011481386582624052
0.005739956648192033
0.009172260788788607
-0.03391322351381248
0.013601102654664073
0.01102184137859192
0.040580520762960495
-0.0022808288245911197
0.03802399357020277
-0.048524448526895796
-0.06092428261332747
-0.0013982041977666625
0.04577387366739986
-0.0005285340398056327
-0.06776527651767471
0.004874430951779905
-0.015113690866733667
-0.007024900819534513
-0.010579814849823801
0.047167740499611116
0.0025909063075484134
-0.019543504086579396
0.02284234146688872
0.006240507509534309
0.029113992628347782
0.001168806077486437
0.06437585287590554
-0.08862540437806275
-0.09253035707279114
-0.0099863355685683
7.28980555215826e-05
-0.0015752382567082721
-0.024626440289660913
0.02749250004110471
0.0034996400133963297
0.0024364196331792603
0.017360375011860534
-0.010552862272236117
-0.017779636148885225
0.014065207348084089
0.005395874857288927
0.026791588354961496
0.03561487263965399
-0.03844329533728032
-0.027303215859673567
0.005278831324789458
-0.000411805386325782
-0.027345971933577753
0.06927794354478907
0.1499383350258949
-0.06200866355529956
-0.15058112353501973
0.0061598334716128755
0.03844397351128944
-0.03820287418439134
0.03970058174753449
0.06405169647122606
0.004286643241316786
-0.026852594277046636
0.010339133604522776
-0.047218869057601386
-0.013912217542510838
0.015016400997973616
-0.017987720157406697
-0.006530607906255311
0.07979194752515206
0.020481556096675565
0.0677687997278746
0.0739052180169551
-0.05732096770435872
-0.030873676040535
-0.01378281624627354
-0.020376816099188195
0.00014607553405882458
0.0767487243761839
-0.019069036925319614
-0.041960370940471205
-0.0005216721767025191
-0.014750719912807827
0.017313189515872695
0.02098326488998343
-0.030406357638167895
-0.0052896184602289655
0.014584502577203735
0.025872942764550898
-0.023272615600192288
-0.012224984836279469
-0.010303618032141275
-0.08794943098929692
0.016294405084022644
-0.03908139495435683
-0.017143174906498568
0.013394207973768005
0.0018470294459541937
0.001238321842625999
-0.03761901272239065
0.11418117740798615
0.06928448324703376
-0.002824676681215449
0.021804646627820782
0.01257788609116595
-0.015121682891803606
0.001018051372182725
0.051879192179158325
0.0006594405488947977
-0.01104151310825444
-0.0190087151143998
0.023701764243247138
-0.031743189011063246
0.019693810184553014
-0.007341579452103559
-0.01052826567847648
0.01705914120436181
0.0067075030361560435
-0.02102279308413507
-0.029593458389315316
-0.05089100991670029
-0.037672222211032225
-0.0344938643004751
0.003647525769704512
0.015161245628104985
0.010249083767180582
-0.009392878307284228
-0.009830039502493209
0.02407361808690998
0.009326646444754998
-0.004091938858050813
-0.01237238204319342
0.00581763148634929
-0.06144401851655414
-0.028276597139799107
0.056151834507391155
0.009757693088628226
-0.010796388611972838
-0.02368166916391872
-0.022484641339586102
0.005708787448229022
0.000811316943314378
0.03091145955350616
0.04141790692129494
-0.018455514285703578
0.02995703575586034
0.03220363205593412
-0.0004841104796957333
-0.021247163129554898
0.028328617876165203
0.01717063348761527
-0.02611416168370617
-0.009685373119008358
-0.002482465212386619
0.018655947277719583
0.040765352557678325
0.0257785802789389
-0.002546542677172045
-0.044261234889145025
-0.10566258273736337
-0.03345576969173061
0.03001102698813425
-0.0006222741398808042
0.03238402181238662
-0.026360920272265845
0.01854084044848022
-0.044963330519695914
-0.07293175275378634
0.010605730532963471
0.01296453244962901
-0.029208237985099163
0.027484833210195035
0.013846415272404676
0.05663454399346526
-0.031729565471001475
-0.05460939372625705
0.010013753822368018
0.012876063396943624
0.03348513729291115
0.021054475977159346
0.002809159635772951
-0.03037288882873014
-0.01936321526367266
0.005354226081510286
-0.010499633908808844
0.05777481130978263
0.12093156366870739
0.006334140889468674
-0.021175773958934694
0.07353901975058634
0.004247488883811794
-0.020204928013925823
-0.04965174554288109
-0.00022828913358572707
0.044006889719473884
-0.0016011335234020403
-0.004624786124521819
-0.015466598392866463
0.0325029409817396
-0.015478548635105937
-0.0316155358275715
-0.009926968110823567
-0.050714831498611425
-0.004198341481770585
0.009001095616886922
-0.058708788124462036
-0.04486708567837977
0.0630208287798184
0.03823211692323414
-0.03822231847551663
-0.006014687842970687
0.11442559520237738
0.027238029844678834
-0.048763163952791434
-0.0027451945024688676
-0.007149716483259803
0.01708657846617473
-0.01483638323814231
1.2123605978301266e-05
-0.025062522422886552
-0.007797451744777528
-0.0009264659784696626
-0.012776971309474335
3.126818901955243e-05
0.008733060260341215
0.002315439670053498
0.02933260668952746
0.1733015262348265
-0.18032350817422296
-0.11655376800842522
-0.0018513566743051043
-0.02075362063801013
0.01799371836521046
-0.0382611078333581
-0.0073501277655199666
-0.0071102449900689035
-0.010067260831940499
-0.0016239413760980612
0.055984671865641565
0.00399155233045222
-0.018295587313888997
0.028498919609757024
-0.028770021130124657
0.14787274657781685
0.016210441055258026
-0.009609433822114941
0.034840854041190146
0.02011401780719227
0.01769712103395398
-0.016627421589583333
0.006929783318979672
0.0010832508487101293
0.008320533960010708
-0.036930736058756596
-0.01799200483321317
0.00013151834821238537
-0.010349574343609927
0.018858057487906983
0.00427122983581208
-0.039562467794095994
-0.07835853720583708
0.0211258889529704
-0.004038975455008041
-0.012726440467804547
-0.014968170574932592
0.01934621601194569
-0.007255850260399686
-0.019678927161245217
-0.0026208016064691634
-0.008002156273427893
-0.02604146911308716
0.024812566856752035
-0.001820718388594903
0.11272944469102285
0.13861302469402317
-0.07505025853007953
0.011400301838068625
-0.004028816302152122
-0.021558728872338985
-0.006283137771387628
0.012060713547044487
0.01035986538909872
-0.01643160228355016
0.0067923483797524544
0.01938345615540732
0.03910110099246721
0.05580183779255571
-0.17494103418662496
-0.09503273937592586
-0.020111991741687672
-0.028895676386823492
0.042261948844104634
0.014953464256033116
0.0038878795145686085
-0.025077306534188774
-0.0058564756353427175
7.440699147028833e-05
0.02186094933042667
0.005981688568937816
-0.008820405814734499
-0.009762966541751898
2.5302162396445656e-05
-0.02534259186950302
-0.004928942097875256
0.012040615400985796
0.043084080672551615
0.0032884160399694893
0.007743615668248065
-0.004146211853743835
-0.012502274400950851
0.011258647403590425
0.06597644979670705
0.02473347390095318
-0.03352036205823493
0.009441080959133003
-0.005283816882930632
0.0228770238966589
0.02349328554457936
0.010949615319079876
-0.02870816845422147
-0.0011038229578366327
0.021778666297229157
0.058209731514083915
-0.154630522414311
-0.008915855028443933
0.007908941761942461
0.04350953671375153
0.056268936137579544
-0.0059081495458795765
0.029411329161160602
0.011509498257462001
0.022633080377223027
-0.006626328258148127
-0.004186696301064707
0.012304164076100497
0.016640289382652433
0.008422714165972702
-0.06547472623045653
-0.047060930785177625
0.011952465787187613
-0.061960490641044426
-0.00781428378414697
0.008092212283830363
-0.13924272105630384
-0.04092264426828294
0.02032307309768691
0.02243225830189167
0.04167819038785949
