0
-0.0305115833044153
0.004329898039005306
-0.040989419459768944
0.08312514726406352
0.12216373497130903
-0.055045603546858085
0.011366124380843785
-0.008036027927350165
0.05579849762599084
0.026866846218461565
0.02468125556292833
0.02992979219790119
0.016192792437880004
0.005463142111506471
-0.06339090350025385
-0.05260891340329928
0.07381218328037929
-0.00419298248924941
0.08762338297314333
0.009396840027406065
-0.06715779554243093
-0.0010828487713666361
0.05636317605660183
-0.031221365832056047
-0.05996045586959097
-0.017873371551383778
0.03283712260512367
0.010964487586677242
-0.00019046150345580572
0.016512156025910236
-0.032823901035895296
-0.051094635569476445
0.023503386278526238
0.01550061866251518
0.04157139340322522
-0.13597252952363767
-0.0725461119504945
0.03818275886003636
-0.02827123504988792
0.019790188225826823
-0.000882814427926799
-0.017069361299199413
0.012568148543927148
-0.0247680363265453
0.028404274192068167
0.00783524748636224
0.018062458306472177
0.03073838784192632
-0.03086602328525559
-0.025540412566122727
-0.03931228307744307
0.005946616712670086
-0.0029197557998510504
-0.01945635041150265
-0.00011753109545425371
-0.009065303380982022
0.11275121256694838
0.0732992702773428
0.022612414450669534
-0.03655540952387517
-0.0015281439415648266
0.051925008174968514
-0.08020231446217208
-0.013071412916732356
0.0004590155375742983
0.011520655223242846
0.008899917932162792
-0.013715282588520753
0.020828181618191954
-0.020036974807369712
0.0070749849814451225
-0.046441496502796366
-0.048567815987085206
-0.04023476835822761
-0.04512326965749813
0.04346522036569005
0.020356933083930467
0.03567253060839563
0.020409162044720718
-0.037957009532144925
0.04977762268852013
0.14076158018544882
0.038480972202793055
0.022534181009499617
-0.012289298283322174
-0.05864817064127153
-0.026143567035230825
0.03680943119071145
0.015159260808567566
0.005319228205064317
0.020010867440903597
-0.029413947610075302
-0.06726111734764148
0.055793708042722545
0.013689312996898276
-0.031360273835025126
-0.08132345920285088
0.03301106643056712
0.06552367165344956
0.020970265633951324
-0.012657712626112714
-0.0461704577076383
0.007947166732650857
-0.021803732005996695
-0.007885469471642984
-0.06208138160483301
-0.1479122376889139
0.07056635447005269
0.0014137121946418566
0.04274479842647386
-0.008359022207405335
0.03286960679632761
-0.023916996019804623
-0.03213065361704858
-0.061577382122732345
0.007768348097282297
0.002130538857017857
0.06506022737822847
0.043821780232077806
0.005972889071220079
-0.027619505389970867
0.0386233496475861
0.02863842389955659
-0.0096544869995112
-0.03434547749625021
0.007002656139888912
0.02640888956876136
-0.03490697074996801
0.02050034291380773
0.01563072197132453
-0.013790160537582715
0.025484380019230257
-0.035750193240282925
-0.010884547825955403
-0.007344179246575753
0.012189796282752323
-0.04082205694062295
0.06576697640269087
0.04442980942283546
0.011477601949946683
0.00452024722540148
-0.015700881594502034
0.02467569460293073
0.04048090811539857
0.037110947221424904
-0.04091546429604183
-0.0311258218677308
-0.04009395825955329
0.018497996806322844
-0.02593453327152898
-0.03789998785916568
-0.051996661758585666
-0.03537597698542761
0.00785549078358621
0.01705917935562235
-0.03733545358684587
0.037723650141119905
0.04066232992651746
0.02262385518931805
-0.005316848536300214
0.024597737003396427
0.024583488253948054
0.01852368049403536
0.012742700328950817
0.03171463577151242
-0.007562055077138427
0.0033754387113470626
-0.012526415772737741
0.033753631307790306
-0.0072197095769167005
-0.1511303737271067
-0.007398298566277309
0.032702047897519744
0.006368334774662003
-0.010968836420286622
0.01930478110542836
-0.017957575270585818
-0.045017988249208385
0.007517953754898891
0.02114226290829698
-0.006204288356642726
0.022880338964345784
0.03222708813435165
-0.004736770773928442
-0.016061871209725517
-0.019597818908711068
-0.0525366797750863
0.03197356774911769
0.02653453459578055
0.011741814959072169
0.10294110415808158
0.039222183227099
0.06332676048417772
-0.11822331368397508
-0.13859248969434315
0.02812631525521854
0.04799885120777525
0.010262639133595678
0.02448603967934355
-0.06333057853151705
-0.07463120012127442
0.10816457417979718
-0.08154466339147781
0.005117378405932789
0.024066500613051038
-0.030565744372224635
0.1902324547812474
0.08021383803100429
-0.11506068302760489
-0.021835830928891187
-0.04119744491886765
0.0767132250817348
0.019533121047003613
0.018740118243297167
0.012979413468803751
-0.016632451236513423
-0.13620810206873332
-0.021548000407584922
-0.010555201988072332
0.0384314936148586
0.022474606106517202
0.04256914491720723
-0.015666107318510522
-0.057552766803216505
-0.06124183668627866
-0.013398164981035382
0.009746984933764698
0.012619128841697741
-0.00892026476946317
0.01629312480951843
0.005074433532212614
0.0341695314891974
0.0072425522263955934
0.07041438472489266
-0.011125472815429261
-0.06641470032358615
0.014971605240704788
-0.01872309662701157
-0.0009236561574213725
0.018085833934572648
0.007394663922236097
0.03658663256455502
0.015171805699215833
0.003553736969336842
0.008235957868214603
0.008993492670194517
0.005434065687312176
0.019996468946008872
-0.014081252907286276
-0.15807287745417328
-0.08483887376501598
0.023169214144279075
0.016871485822556563
0.015437507006032896
0.03000581094991025
-0.03964524510234441
-0.012753006272700146
0.057544368452277006
-0.01441365343967534
-0.03739401474241977
-0.0014992859861370502
0.02767060019976959
-0.009681644686753981
0.00852311604294706
-0.041232491800901376
-0.028839417608507667
0.01750515604732868
-0.004807429528476928
0.06889386278349109
0.029854527818762164
-0.013960545192576475
0.0022992448655542543
-0.029134002050858147
-0.026774840634345053
0.022988132697481897
0.04774725580310847
0.05637476424352018
-0.013282240715662625
0.01979892305672987
-0.0049323600684444925
0.011126261715258151
0.01048486390423362
-0.022429526377791196
0.01656274558367916
-0.04079125029346569
0.018874288775468748
-0.007830427798322288
0.005482348296148989
-0.014808193397554521
-0.019855611224800118
0.00595473749181912
-0.10117845869588776
-0.0722007222230332
0.04191151932255564
0.0887433595443937
0.006856434534649638
0.1465780807606159
0.018076929032532486
-0.034806257901079884
-0.010089788208520504
-0.046502026170976714
0.0390237488733286
0.034080634048267
-0.04550638370161819
0.008183155732624101
-0.022334500733521966
-0.015182504274700009
-0.015721833504200526
0.046536517803465384
-0.004696390076026041
-0.008498307948946042
0.07335191409229123
-0.017182107924316233
-0.025056858031882054
-0.011556304538213854
-0.021087702164009705
-0.0469588096520868
-0.06336322596798337
-0.016121157783498468
-0.000214796022627983
0.066486600793322
0.03312272764244537
0.03883084881552382
0.002584286448780582
-0.04819616246280353
-0.045202879466421424
0.04810622863812208
0.07807791681630098
-0.06202052775490306
0.033970445140988
-0.035317215766365984
-0.07981202093927256
0.011313059931000903
0.026445289531932505
0.03509450508643265
0.011371404730401904
0.009269362561697967
-0.011220372411369571
0.005382855757847679
-0.030836582706593108
-0.023736542150994862
-0.028932553341062515
-0.018097768086949767
-0.024823570311682603
-0.009160832492376151
-0.02773028932850168
-0.0032364579319102767
-0.0419267245437207
0.030344259990172155
-0.028007825440870687
-0.034604291515607795
0.03248050761943679
0.016014725011005912
-0.020180134393749972
0.020561185357213786
-0.04481846729513854
0.13044946128800966
0.15489738989397314
-0.06702289226153242
0.08811419999225809
-0.0019602274554799933
0.007306853064005553
-0.025598313568267864
-0.0015237077703249649
0.018201745558759544
0.02541403865799056
-0.0076758784840393135
0.002440251640696015
-0.01801269913344424
-0.025341594797468742
-0.015081256893669459
0.03791068476212835
0.03370004210834767
0.007277897658595048
0.026361642320078812
-0.01918003954269384
-0.016666327593619003
0.0037442917768992774
0.01666679441009118
0.041332474031895015
-0.016632620012007385
0.013624656184996174
0.061838368871702507
-0.07065637696976143
0.004035258997366209
0.02929424620397425
-0.19322676055140967
-0.03999685697692243
0.003636689816959713
-0.01176099633559661
0.03699638923048516
0.06230415790030145
-0.010835715031098446
-0.021154638642041434
-0.004287772148443904
0.01129330500017245
-0.0050054770092810294
-0.0136681135440116
0.007566699874510644
-0.02082711177688016
0.013544447385052434
-0.05582966109896678
-0.03293053622609463
0.005262198862938052
-0.012444012051369456
-0.0046398293578939435
0.03300857815169444
0.026586813829322542
0.020440580974295762
-0.0013189925303535603
0.07483026613825285
-0.04288705824832372
-0.040827141158825145
0.01987823967851965
-0.05988523802075779
-0.03703614704278913
0.04663502493247115
0.03726974233508634
0.019402976251833345
-0.017281820879548947
0.03035707912850853
-0.018784677107577873
0.00916456964121782
-0.01753105069635312
0.026644742175900304
-0.057228217540334136
-0.0334424381663393
0.10981630601520655
0.019303728891064072
0.03115316813811804
0.02503723275771224
-0.1296669985773096
-0.11747940803682502
0.04848470230125333
0.004552733749652236
0.023823242455406284
-0.007691072231444154
-0.04080004307872757
0.026374905006779862
-0.011807934036525329
-0.06561860742394122
0.08307575062156637
-0.004876823221575888
0.025329013875157444
0.030878014850861696
0.04233909871975907
0.001112709042410497
0.03426142414043642
-0.0348501823177408
-0.023576309615840427
-0.021307902309759177
0.04709005688975989
-0.021483822604499925
-0.011978111696093592
-0.005150386070583331
0.04177112956077501
-0.011381466003920001
-0.07136779495564285
-0.13537765903141313
-0.025028867418115996
0.06806558284076138
0.010960720364376455
0.005411353270548634
0.024942284090021024
0.03602142076383939
-0.009900281453946426
0.009414890187570038
-0.0333790196299885
-0.02545136554608865
-0.003358214781880649
0.0021023469394989675
0.042364807373478704
-0.001955666279800877
-0.033775177811010366
-0.027557502296660832
0.01708298622824186
-0.007334441615141898
0.028934437402107768
0.007251314986084246
0.034344652167313
0.0192884922151286
0.0076762476180931355
0.02626928802455514
0.02000920398902688
0.003186754699012941
-0.008575959669396675
-0.02334276355701041
-0.00015757603081815956
-0.018679365153611276
0.06477848934790141
0.069038240786314
0.03036854440307688
0.049656488349923894
-0.015004124214591203
0.018602314178173467
-0.017248241534048057
-0.0007111878059616238
-0.010492791199065704
-0.017522002348611728
-0.009557804790714377
0.014729977595546112
-0.0055991794112277326
0.01567941321097548
0.03996576290930494
0.09567056805304543
0.01028264275306101
-0.029806716983804504
0.0004287750327295262
-0.04825151671705055
-0.1622848153795526
-0.08843396082264401
-0.01653656026989214
-0.021637174444186124
-0.001849973673923217
-0.0024871105101014314
-0.027208406950116965
-0.010548025428481019
-0.008628453483040227
0.02314225033021463
0.010067522072281307
-0.02970910679279221
-0.016469329268221262
0.03971360753074713
0.01191130924899741
-0.039189001681894015
-0.00536080699830083
0.05075487666159964
-0.005957542364322055
-0.07516876147457727
-0.0339130731303251
-0.02452430360999003
0.02401746341304379
0.0021951670597044125
0.030923258617029718
0.04380098393408848
0.06505840780980736
0.000891796890932246
0.001561337463691029
-0.0046384052942548895
-0.015253080774983867
-0.008756200049800995
-0.001115532786512644
-0.020398789445703475
0.02203609332260392
0.03615289755998722
-0.026282021526231072
0.056181868078645066
0.024079512722273475
0.006044646396168349
-0.005663732731574224
0.036699162640812764
0.18651528639092935
0.01193820312975023
-0.02963532470969357
-0.029286582396380625
-0.021392243629916798
-0.028578674166852985
0.02519956840294559
0.043860169629670674
0.011623768584636783
-0.026510292685801396
-0.08301992282692541
-0.028956946730477925
-0.005604831757447486
-0.06486809514792755
-0.07682112031808841
-0.006797484957738414
0.05616743081135661
-0.0090677736986078
-0.07176590514257977
-0.013814601250417174
0.026420384129293442
0.024056543973348745
0.00942023797261432
0.0028195443572758233
0.011888266371005634
0.026899031985900546
0.0031859598592636615
-0.04609392033724021
-0.045372535862229266
0.01760444253836275
0.03827163652407992
-0.01833494873885245
-0.05969429461692223
0.02468533684633487
0.07173739153716312
-0.0144887517603537
0.0016861248053440911
-0.015296550978243615
0.01596880475945079
0.002011284285746589
-0.01789690495761564
-0.028681343479021446
0.043293629296760575
0.06926638685797938
0.04037619502069206
0.04389537846032611
-0.002104972148713667
-0.002001826367330299
0.005169857485599162
-0.013022541482950671
0.011690098004793646
0.010284563004635112
-0.02132989411029409
-0.03517357596739246
0.01884474476508778
0.01050981274028853
0.02017380413483519
0.00012647307144682062
-0.014531895502512063
-0.0014863111328381408
-0.004266601781311509
-0.06279465272961109
0.026481928845482953
0.013551187537205871
-0.012225860552136673
-0.0099702340488286
0.08219711007435843
-0.058306603016962305
-0.1739602309477895
-0.008173986578658952
-0.011659123123723953
-0.00377192977632226
-0.018739905307418685
0.0178234171329878
0.03157439479182524
0.014822878733061881
0.003809367740068485
-0.018499257217706323
-0.0016710013061957362
0.095573073042215
-0.036207344025538324
-0.034759897152204476
-0.009680907263538123
-0.017824010357364306
-0.03524661141165888
-0.0055853617249281146
0.014219181431036707
-0.0063242710132687865
-0.010860712616993149
0.012198380534825835
-0.03195856294077182
0.02251956515597787
0.012768297789178656
0.002589177362437833
0.006547167350371932
-0.0369080326379894
0.04103351120119294
0.06865944146592205
-0.0056770369086598955
-0.0244234977380179
0.03765177555621763
-0.020855603016447122
0.1138477476611829
0.08680216767080938
-0.07109359812673827
0.03894376835995059
0.0008094091422808046
-0.023132798805100437
-0.01823600721781279
0.030357183675355365
0.0018537620034736794
0.0007491079248434322
-0.03247934386004288
0.05784027881786236
0.06995951090410818
-0.05110358667398286
0.01970515490452971
-0.027140348159012298
-0.08733421677485602
-0.025425524680032917
-0.025030188768164454
-0.04363716859590776
0.003690676373073105
0.021877126649174492
0.0497737297886462
-0.025976057949853054
0.004872393479470107
0.009986644586177066
-0.033942332645540925
0.0025766794492159194
0.05245599530872488
-0.013294940177849796
0.02001715893648792
0.0173288898975061
0.005321834828727969
-0.03257101770696327
-0.09280792655991499
-0.0030462930303375973
-0.008670806544923955
-0.01912800138349385
-0.04547636956287469
0.018535608127159684
-0.08016546892023325
-0.01955222901918559
0.03844089787093129
0.013065913280589392
0.0018498621695230766
0.004929918665513368
0.03071579043627193
0.05405739360458794
-0.017967103564895677
0.016714828296805404
-0.025840217187954515
-0.044507523461744754
0.13796893113082517
0.03547471991897928
-0.0017064295237101364
0.04183442686662116
-0.013387825693883876
-0.010822237029041837
-0.05624598751176719
-0.02371428650061603
0.024199527638141226
-0.022037395509581916
-0.029852072017284483
0.01579134945200452
2.3130145457947723e-05
-0.025403291624900792
-0.029935279291592676
0.004192514296149815
0.030097545436424906
-0.013036430156117332
0.053390630286728344
0.010353389447287127
0.019947554270757468
0.04040303816192276
-0.01469052032061922
-0.0005757658816171598
0.03925234705912158
0.05528186486732757
-0.042281699988124886
0.045067098214342856
0.03560996322851824
-0.029554102623794397
0.009729864355196453
0.06365267481725204
-0.01347833648657304
-0.018276526570561214
-0.0322750166880032
-0.029905971115074537
-0.011708820567154084
-0.00022326800206042176
-0.0035812986163835992
-0.031474114473210586
-0.011781826062349328
0.01591485330514468
-0.028000019210995597
-0.013264792698651235
-0.05453781971552893
-0.026931658707750248
-0.015881623656837877
0.004030180697678054
-0.04101241352484979
-0.042743311070438154
-0.048068635256840755
0.010815383139129114
0.036219389820676705
-0.040429617132499596
0.020180253437290286
0.04300220366308092
0.04677558888253508
0.03933561169535315
0.005846182167070936
0.012633848451033195
-0.008341890628228108
-0.025036447683540186
0.008868925467447917
-0.03277660133018972
-0.028931302879923466
0.021112580739088806
-0.012572846764285602
0.01999906727938574
0.006209155245949633
0.0025198907881321666
0.024313772140366726
-0.013063498175974197
0.038299303627342844
-0.010171518886106339
-0.014805414927625087
0.050470840031904225
0.06056036619204726
-0.11976686522420016
0.0036507935531716216
0.016211182470129457
0.003551735396035327
0.00521400006044282
-0.00966278702448244
0.016260060814469457
0.015000872238865065
-0.02044429278892678
-0.011801060268097466
-0.06030413201159701
-0.01724312024483173
0.009241897233518493
0.05310685319882659
0.054869603346818695
-0.0018641519649407608
0.011152535621749145
-0.008225162523112468
-0.002165470246587145
0.06454300364347403
-0.010235735862422202
-0.012607672048300326
-0.02455581990470183
0.0019873784082130286
0.0026128804039525087
0.004378227351956367
0.013543514793335524
0.024196345597638898
0.05208145031689428
0.015534170838998947
0.0006682184926863668
0.025479712832459124
0.032617265717213836
-0.0035949371229504153
0.01480531261422941
0.0009185679338097826
-0.0028047381464725704
0.03973144428843112
-0.07613895365659762
-0.20045065766526424
-0.01039311225295655
0.015738252736608498
0.021049171273574276
-0.024075966445371473
0.006830232830700672
0.0021960700500368324
-0.023502336827920106
0.0261578105331323
-0.05781616401642945
0.027884840070258106
0.012579093449819835
0.020833919586763294
0.005535178117116655
-0.03748251952386512
-0.026578389671914202
-0.013850000677437885
0.00014070323002788983
0.010469622850164796
0.06187984800797125
0.02459343214970746
-0.010633182052728176
0.021505879092273295
0.021212616721323064
-0.015789819992713637
-0.05661835391821867
-0.012236746671761807
0.004416879025515392
0.018383691491438616
0.009975274422056334
0.05950295521931912
-0.005116278928044952
0.04130842093928627
-0.127308939274789
-0.1902268631155848
-0.03707449360488707
0.16457927293144906
0.06675432778724255
-0.026196995279492846
0.01858506785162073
0.03839993659791623
0.0030268829524796466
-0.01954069672015221
-0.006502637013189027
0.007086000016062975
-0.05082713480871633
-0.020246912748922964
-0.10628920089695147
-0.01599872031026704
-0.02425365201280024
-0.006414536726482248
0.005712444590748342
0.008327794873574957
0.02030357908204202
0.015891663337426525
-0.0012985339714748872
-0.005986261587205943
-0.0036413863224097486
-0.01012072281729645
0.15486626946079515
0.13884889234802272
0.03963157306754222
0.0353944359227308
-0.026580162645172
-0.01701492455161065
-0.013574889457924686
-0.012606414404111322
0.006468599754239021
-0.02422310713264807
-0.0712752220973492
6.427000100381963e-05
0.0767404285740421
0.012814805769983038
-0.03360338104780897
-0.062067672735819826
-0.019024884089620824
-0.006455646517455297
0.02249263064522714
0.0025451260896202648
-0.01583773209198404
-0.022128104085615274
0.022626439319892312
-0.07521421642617467
0.07984939862682465
0.11618147327627038
-0.00030010530579640334
0.024608599052093984
0.003696567584675975
0.046435459614221394
-0.04449362098409576
-0.07291035642399989
-0.01299275501660387
0.00873310065172271
0.03610800379214932
0.03018592012987988
0.019857758665549684
0.022331943573843684
-0.005151588431690691
-0.0005967371361269643
-0.024360094305438767
-0.011322725350875123
-0.04650887437810958
0.012414441133160085
-0.018961254327139895
0.005001991545366242
0.04599820165595534
-0.009503755896780002
-0.02630375331387739
-0.006927805770386843
0.016608821842176758
-0.044261165956706414
-0.005799305316153479
-0.02954150445092865
-0.014261235750719616
-0.01613532808122242
-0.02318111449137606
0.020375031707985186
0.025701359851780653
-0.006253787874186362
-0.016454759942637075
0.020254883326826553
-0.03193454263249274
-0.07790107899022024
0.039504405882914255
-0.010224557878913519
-0.027979464771313314
-0.011391286414336146
-0.03361022263537072
0.03955807634464782
0.012449990123020232
0.03073467906971967
-0.018160738134944513
0.04810803123298768
0.002457154771851926
-0.04355815707583345
-0.03441604501500284
-0.0004637380985788525
0.025210385598810663
0.0022302852752671626
0.023332450652949463
0.021492217843777507
-0.008759505219985848
-0.007026517224626527
0.049401758506978984
0.14441291012240437
-0.002519958379131354
-0.07591343389119112
-0.0907423841616032
0.04806864336713002
-0.0035968806070271744
-0.09231721630225981
-0.0017859452580195395
-0.03547614028145984
-0.0012610686526511267
0.00011632670641242027
0.09743919357231647
-0.005525352159558214
-0.0060475959127267165
-0.019799767008436695
-0.008138116749971619
-0.016002963197880585
-0.024697371519405792
0.01831401668522451
0.014555732523703853
-0.051262328412356624
-0.02827919310978452
0.028538130126031465
0.014294338103041274
-0.017055030045460634
0.025400095103259124
0.040643624416166646
-0.03667981971379023
0.049888149018618884
-0.0017715010887193196
0.060674743933683134
0.12280455762646705
-0.037518161387507215
-0.006256530215694291
-0.05117915575504227
0.04748655243129602
0.1736078477458239
-0.0306185863207165
-0.022266717987593995
0.043801679186799836
-0.028254111220915448
0.0030393955049666955
-0.044868256496618505
0.0410101559464451
-0.017273033991934465
-0.11339290978963164
-0.03570259059011335
-0.03547084161698386
-0.06100216833561642
0.018269694232903876
0.02486891036783617
0.04198968228921102
0.024438912919175357
0.0006975194118276804
-0.024882098279475757
-0.009233942417914571
-0.04597138602324104
0.0561516103883916
0.09505355765195642
-0.03329429529793719
0.012772942145205156
-0.030234002594624245
-0.020408384390473187
-0.059946389663826795
-0.005394554293010801
-0.0600182063523217
-0.08451525405711308
0.003759617070222131
0.005485973313340352
0.008273393597170655
-0.03589728669241375
-0.03006373097012013
0.014158734864161951
-0.004977010172691958
-0.011413388711522124
-0.013258487341435898
-0.006615379145575778
0.029672191957826517
0.023551754393141687
0.1932740919612596
0.00022353000853472829
0.05498372689888939
-0.010934269665930587
-0.031201547084206402
-0.015851260606632594
-0.034184385630077745
0.01570522628587556
0.02321600862738221
-0.009662349176742678
0.02471856153749058
0.017506101275913077
-0.022415353083264554
-0.018163877146772093
-0.04373840802737285
-0.03480291489680209
-0.03407604901012706
0.11374658130331723
0.05852079490027679
-0.0621013438442417
-0.08245485478333837
-0.008004375276700408
-0.003581107947557747
0.052836833478507525
-0.0005619785023826033
-0.0020302329643116764
-0.013669601670460154
0.019063340096287705
0.0533514924783976
0.01206567966794027
-0.027848407437649113
-0.010463508750332771
-0.04712416132236665
0.006380704153980951
0.01984518186907787
-0.004960973717976564
-0.01716660508139822
0.004797076066455383
-0.08479733989071163
-0.0389607016082307
-0.005032561254455983
0.028516589585589232
0.0544511197370363
0.011300784154360593
0.006200989228036991
0.007307603708987528
0.05985755853530068
0.03219118481018798
-0.0021328376353965057
-0.03877208944346224
-0.04421991557056522
0.025490000507237216
0.02268561015067003
-0.028974217387233617
-0.020991969025188108
-0.01999110694263537
-0.0001542233583151965
0.0024626005868945565
-0.032348362955637804
0.003854538487438407
0.02801108112457232
-0.008080421199028126
0.01884832451099257
0.001691709071868296
0.015109996819899758
-0.027048641185133032
0.03017084109108613
7.44799136882951e-05
-0.0130433843240988
0.013933483687847604
-0.016567264818904626
0.08107336590104085
0.04137479221755011
0.032993414453869864
0.0646641318387581
0.019009708592723048
0.015309163286935308
0.004307952469645475
-0.021702762298194872
-0.025561199463847165
0.0015654023883246418
-0.03055132847207434
-0.10853736066189346
-0.06222000668738447
0.0002207530584157611
0.042437553826566075
0.005452112138925904
0.05617582653233257
-0.010389741741768217
-0.01739951645412901
-0.0015713618176222165
0.0731298151531876
0.015513080213071387
-0.10252518029849812
0.008348968464488557
-0.012594353846383206
0.0017086603045549577
0.0024507406024317016
-0.011631126088939115
0.016575871369720132
0.03932104066962227
-0.012498071676089077
0.007937184850245459
-0.049418914951974285
-0.011121247105137344
-0.015976939822155294
0.016480330743147007
0.017604291656211496
-0.04640437494166198
0.01288053389280006
0.029745275356615797
-0.05105352108867549
-0.03400432928123131
0.03300202537840181
0.023469465927443638
0.05595453042944134
-0.038766565858306755
-0.02946224185689497
0.04807463461102481
-0.005668450368965261
-0.08823231133627711
-0.010103104098833117
-0.011597703527821896
-0.01972448800683853
-0.012781880487663495
-0.03106202628500695
-0.008160424445602499
0.003327838252117759
-0.011664854664529349
-0.04398985272189735
0.035963455608349106
0.014249397794406008
-0.007565273819955994
0.03314200743812995
0.0011648070622866246
-0.006219699436499852
0.08438576854724777
0.08276952588295619
-0.027856436074778498
-0.01219740925484738
0.011025615948128625
0.03451119379893747
-0.04263523947355878
0.03216987808934271
0.04784005797358871
0.05632900123953158
-0.04781780796728009
-0.149784657488685
-0.03972260393936565
0.03512374041704415
-0.00023615227141690146
0.024080952717000715
0.07411367246575117
0.01250360147181226
0.025136712527980398
-0.0015391218529231733
-0.020185648187899623
0.04082210556449551
0.02210646671345635
-0.03195713973841917
0.020432559486012518
0.012097780813461707
0.015131076848833263
-0.021738545396565678
0.018235246718967115
0.028350961493266498
-0.02090374704531382
-0.00012931924471272572
-0.031964785939519735
0.0037471537552853564
-0.09177679973596987
-0.039385967122957936
0.0019803953035107333
-0.02137922438252153
-0.06683656497746675
-0.01596389129419276
0.007752795837122208
-0.03101130843322627
-0.0037890204924843035
-0.005142441667186812
-0.03117570649560774
0.006318630824512808
0.0025725086335643614
-0.013005403669580438
-0.01721443336146215
-0.0033158307753027288
-0.03390408928536036
-0.046335597614377284
-0.041904800108303164
-0.03535581327354925
0.01940251398501443
0.23488074478534046
-0.018802614411769628
0.12074542256126004
0.1083555618694326
0.07184821032971798
0.0550225741345476
-0.058880515405862664
0.02799258364913586
0.00113530511802721
-0.039729736622320065
-0.045509586219376195
0.04104001502948386
-0.030876948049270547
0.03821915392634395
0.06844382957072759
-0.012372937725970866
0.10978201538092394
0.06668735715591002
-0.17583543497197957
-0.05150846828251026
0.039081198428906505
-0.04373056189911365
0.007504675275973079
-0.02052998771813067
-0.028040828332913957
-0.05017249231624071
0.023238553982941588
-0.0051535263420414215
0.042070494341009956
0.049073905082603266
-0.009333839304212882
-0.028788220162515414
-0.016849248757257844
0.04070775955947087
-0.07540045653949914
-0.052955255147686266
-0.09129189770640059
-0.1149965790532173
-0.010739379649310897
-0.030518547218977763
0.06644324497984341
0.020228696256789944
-0.005083748558116785
-0.00308733203647477
0.02435835624199095
-0.005358830957921354
0.04729414385878538
-0.1288908085766037
-0.03244726014971366
0.03502135375598034
-0.015772971573089132
0.0027292304084621977
0.08313092367878144
0.14326806995543695
0.015253973574796452
0.0170762231308718
-0.06679102667598151
0.06075995171159215
0.14772229465544282
-0.038248811342422175
-0.02676214067811915
-0.01976387263677679
0.012568897949117377
0.0002753826443178169
0.01038868666839919
-0.02387043829148412
0.034021417999067764
0.011066660652402041
-0.0912908430712999
0.028047670881219903
0.02484541390023249
-0.013474300473502933
0.013521100465460175
-0.038357888267234
-0.014469048139534162
0.02127972146260208
-0.023636165979476216
-0.0027642199075962803
-0.015782836421068532
0.012695775100562768
0.032726210748578434
0.03886524495327001
0.030196239865174612
-0.14419557419351106
-0.014252307461005254
-0.017566005822363045
-0.021587807641676213
0.007159222733928699
-0.00404041138844667
-0.006899604396302708
0.011270502585421772
0.022715989525047622
0.007175753000271446
0.011385321543790742
0.012594443699222944
-0.011536190417497637
-0.014458318883489179
-0.017953070569693242
-0.005417812204229809
-0.002078763972751378
-0.014445911786932162
-0.031819434927856556
0.02054781619835219
0.03198860653587955
0.020596385209810383
-0.005321670082146315
0.01189040844867399
-0.0388934492738671
0.05524429328097508
-5.2779821518556555e-05
-0.04558466225136372
-0.027309134228336637
-0.09435402846530613
-0.055661164439410514
-0.012396255716365732
0.024960393668924795
-0.01801600476505843
-0.036376279271370375
0.03566579797196297
0.09048461424984937
0.03361809151979644
0.0008318600683575419
0.021296916729392892
0.15206084916553284
0.008078320970946075
-0.04495878563730683
0.06636099402260419
0.0072050175417560204
0.012954956366136817
-0.027760208885586425
0.03173617220673678
0.016470929321370235
-0.011130168265727072
-0.0396540451331534
-0.03526493584916449
-0.08651027503200283
-0.02923878827667949
0.0023212666652425657
0.017934263560402595
-0.0027028116316553863
0.07914893105217734
0.02024626733663053
-0.025164645652791785
-0.03549479013669737
0.03245027898061701
0.04102163720137301
0.013005055900572986
0.00683571923610375
0.027557607371669464
-0.022171170410654455
-0.0231300013263123
-0.014507893078488836
-0.016692577126650537
-0.01535658866120234
-0.007561427901256385
-0.06760996184573588
-0.04160127299802942
-0.012981332360193444
-0.016081343741631168
-0.0008779290556641132
0.04374169800992167
0.09655434919763146
0.004302225866235573
0.03783694251016868
0.012069869003009921
0.0036445583363309375
0.03348710685959323
-0.013236378351349975
0.0046188774937979335
-0.02362955924960314
-0.03169022014930784
0.01600254299830459
0.03920649665860622
-0.0348966998373052
-0.01979662989634969
-0.020690725419722132
-0.0029268050707760623
0.08847737158501275
-0.029043536102968923
0.00034593829951964255
-0.13359796123292253
-0.12762507091472036
-0.01849672168342362
-0.017571619839456865
-0.004376092984284043
-0.029846165797129207
0.0012119532396992572
0.03355358756814341
0.036910304957489155
0.023226893520865457
-0.010412631235662969
0.08633139228682052
0.14360091165940342
0.017617172889569207
-0.05192226849962086
-0.03197395256003885
0.004156244242435323
0.0009685488037418573
-0.0178432534864235
0.028163597859627142
-0.03996006611865769
0.0020016786191020632
0.07762751394979317
0.08441198755761944
0.0361990083870551
-0.0014113653872089512
-0.022383222020647603
-0.026930734080365403
0.03542051143051991
0.02342417020227093
-0.01239470005472418
-0.04048353970013733
-0.009696126479204236
-0.03765115139493492
-0.04170566859210364
-0.0189825888424804
0.0009779800700528102
-0.033788417917562284
0.067997148089036
0.0020629086814479753
-0.014909668399688316
-0.021818575894921553
0.004572684508481159
0.013640969214744404
-0.014999074414352515
-0.03507712440408184
0.011512468023654472
-0.016953267469312312
-0.005373887941322968
0.006152002631371073
-0.004798330416793125
-0.028724102363091007
-0.04302429753912535
-0.037632386353399834
-0.020478498358612738
-0.03300257483459514
-0.00756488347130603
-0.03986293773199933
0.05153309200757053
0.06758939323441086
-0.0037132321848608297
-0.05479475497272883
-0.023701955116182158
0.06104224990086712
-0.00763389726863495
-0.04115914345035774
-0.007584527715042863
-0.058581964663087176
0.11678907138475365
0.12722255709569688
0.031215922442143686
-0.0057553119061335015
-0.055639335258264686
0.0025975807130825756
0.00603659923029784
0.04073659192824559
-0.038847471292634765
-0.0039965604946073565
0.11653380682536606
0.09608805523146448
0.002882165852081418
-0.00948337990136537
-0.06197181856278842
-0.05132565169421961
-0.009210204579379268
