0
0.015944104548988532
-0.008536072261461537
-0.09714677186995177
0.057104949103218144
0.023871624407467516
-0.006734649739584588
0.02250930250439078
-0.01561595395146209
-0.038336052835991716
0.005980333470431141
0.022231528908116152
0.04798427215784452
-0.021858584576037527
0.0053676753897884
-0.0038476922363825197
0.03704611379478585
-0.03997224557228378
0.003718384012538456
0.016502784978047115
0.007530270459085371
0.02094794889896747
-0.0049215020282211835
0.01683315118684227
-0.012141593313984369
0.004505824960798762
0.024125793323907047
0.008305766451524456
0.016324553225928372
0.007893444406630404
0.009784963088355166
-0.0483717003006904
-0.03782357717883785
0.009722542126441074
-0.012971368195320517
-0.004008189424941227
0.010408589624685901
-5.244439366344022e-05
-0.024193452336995956
0.08699943425472216
0.12883522284355164
-0.040216662074808354
0.002967126078427227
-0.010365235835975706
0.03225685198952617
-0.015486550701640862
0.012994094119467165
0.04687396255244478
-0.004516502265355767
0.00020375683179115137
-0.03259214248969407
-0.13145431480011224
-0.006764208824366786
0.011623895433630689
-0.01930197320777134
-0.08056220195200803
-0.03385806979404983
0.02253780847095103
0.035396466478275886
-0.015119454426358696
-0.020993646492606922
-0.013598774562922827
-0.02320865937261467
-0.02759222821345161
0.01375136898898814
0.001400291736563699
0.0063535959191698636
-0.029725844093272075
0.017905420947936117
0.024364676224683846
-0.014352403824359585
-0.03125572204923869
0.05350429083072978
0.021319501846032915
-0.008961285729434484
-0.005477531431458003
-0.004753884218978748
-0.011558752352008594
0.024689407621487153
0.017202609108939178
0.1560149972956015
0.12467914749885688
-0.009631921086381445
0.014751992093920158
-0.00670946753646582
0.0005852387628275989
-0.010297043866662367
0.0069454793967394434
-0.011683426978688578
-0.023567484369153697
-0.043021126661778306
0.014240287877333923
-0.0543598450324596
-0.04713056105853652
0.018427260990623483
0.0018460902152315215
-0.051075501065754356
0.01468713524704537
0.004496268471338009
0.012314244927980328
0.05282451146122761
-0.008300065983727284
-0.019244072174270075
0.010368375041695695
-0.016281400797900813
-0.004286490614660577
-0.010269827799713494
-0.0006656211176403504
-0.012518993413093538
0.018810057314069782
0.06532494606589666
-0.00019506963199876642
-0.10079586631626142
-0.0811884018030936
0.009847365084839809
0.04908867382072672
-0.0021483889095158253
-0.024693998388335706
-0.00993411941112683
-0.006658700234922081
-0.07232216360144611
-0.03669435547500867
-0.0011817405826835467
-0.02648940042206437
-0.005788821681275582
-0.005954891429197369
-0.009484461365314037
-0.003031221192515524
0.009373737062794728
0.003954363864629277
0.02734543510985112
-0.002667797588738257
-0.00390765421832159
0.01287290306418462
0.00924896328443892
0.16304294803915198
0.0348280587738004
-0.0699529127931748
0.014223712377192351
-0.001826356779400878
-0.004132792130576997
-0.020731149956694894
0.005766218131383742
-0.008429900386074829
0.010070507309794073
0.13854989518155147
0.015164800856191171
-0.0028132479712116086
0.04073057384835102
0.018405714699124248
-0.008917901991951646
-0.021821352509281317
-0.010765983637282176
-0.03089549279901643
0.004283034860482163
-0.019763534687932398
-0.013137887367604139
-0.022692849521831534
0.028548282059997702
-0.03387831412550748
0.0243365628739699
0.026373706389322047
-0.01689513975904089
-0.0006887876297246169
-0.01660110627024184
-0.02318511230959021
-0.015222464217256756
-0.03087435480381922
-0.0278377453550009
0.017232686653258132
-0.012977558792842554
-0.017285907650452167
0.03075373440765017
0.02261684845119461
-0.06550637812420221
-0.03801891543735255
0.0696145170989615
0.029639194988964872
-0.01452376158933302
-0.035185497018468195
0.05814293925762275
0.03851806172411782
-0.036967527280194326
0.08446209121957166
0.08238484845435504
-0.06851120703858778
0.02761176903563709
-0.1355571767453922
-0.08610382459459068
0.015191930063379556
-0.03232648801292691
-0.034799323415406765
-0.00681546826123161
-0.003916137042442401
0.008142454185276081
0.009817213263639567
-0.03658376717187974
-0.01899182609155508
0.15319470741484928
0.1854484463673374
-0.01799939205285935
0.011383260243501175
-0.05179253557824477
-0.000609659735676181
0.01068785265443305
-0.025574161206927615
-0.00043055895212811517
0.003104180678772601
-0.02671244862501952
-0.0051593203912348685
0.014878742375858147
0.006450548821184401
-0.06253152358939106
-0.008045840062234572
-0.0012871496667708792
0.0050419707248853425
-0.009391554461993754
-0.02453265765508872
-0.04120240554222854
0.017494119868988762
0.004610364250376394
-0.012347544275566006
0.03041764241445585
0.06888147299625862
0.009643220378823137
0.0021419811437001757
0.024919736824816022
-0.016370294679026374
-0.011860563678125971
-0.007260983907179343
-0.023781154566945472
0.03270132714663767
0.01816414980252273
-0.008529555079183277
-0.11903479670325051
-0.03296540378701353
0.016733563338844057
0.02259254905839207
0.007428911628403243
0.033708491280925075
0.03067397850017567
-0.03321623045543481
-0.004569697955736795
-0.011030884921083003
0.0005067405504372497
0.007749678430125247
0.0006255278740309657
0.04676930130208801
0.007720112703488926
-0.02357988532335044
-0.0005007430127457981
-0.0059680821870695495
-0.009134918099051589
-0.005767176980435522
0.00047944587576210444
-0.002812797806367196
-8.94163040608468e-05
-0.055217303629108164
-0.02385573139697399
0.005686979910381986
0.010054904897888805
0.0379424449205071
0.012134729029542927
0.007525632718287485
-0.0026485822158950015
0.016332050805349073
0.05312205352975018
-0.009549804402139173
-0.016856436585405133
0.0008717877052622318
0.016178672937886593
-0.007699524225989408
0.01297643670762677
-0.009160986190229392
0.04429094580223997
-0.01775835144746854
-0.03686272196824681
-0.008223683187506348
-0.013657129647599154
0.004552609890108694
0.019537127881547697
-0.015447416384797252
-0.02201901680256969
-0.03791565098826428
-0.016685077368568193
0.05116680202801193
9.735312328111512e-05
-0.01175726953070182
0.002491718186880847
0.022643554908201736
0.011465988772370612
-0.05093440847058121
-0.03040127932601455
0.014846590454119402
-0.012925743895965494
-0.01457491775587298
-0.008994123920107984
0.0393839255788645
-0.034648305943136205
0.05698910585005219
0.0568455774851426
0.010329641372638207
-0.027310798612409853
0.018830690665607667
0.052321822760852135
0.020202174616284478
-0.056963877426507895
-0.007494200830576505
-0.0013146594203635035
-0.02920411551530994
-0.039722387345197854
-0.02789240785590811
-0.002918736654864271
0.00906042947003624
0.009123405451385272
0.005954996147856608
0.05849075731733506
0.051973436332925685
0.019663585418035097
-0.019305594358486493
-0.05625763761880414
-0.0222631682059657
0.01818034053479406
0.05827543971140354
0.03440361181532164
0.007149075465719823
-0.02279740111200359
0.00015450172711472566
-0.005320859819693201
-0.0025455986643709394
-0.04387504373271503
0.019811485989477608
-0.04742918761790791
-0.053914440987238334
0.014629284831954886
-0.047800757289776674
-0.040915657424172865
0.04485332636012595
0.024472404822007215
-0.005039875686362819
0.04775613823014963
0.0016767487573257044
-0.08991640566550968
-0.007412767566718739
-0.03230641540569056
0.03849196461121107
-0.002312700060932634
0.03077357053258342
0.03961632726421058
0.09060101723118663
0.053539822922906474
-0.061086960306415625
0.021073301961555036
0.015097313792024804
0.009959713043355946
-0.016566465763795845
-0.02439775589554899
0.0003696772138592438
-0.010377228247169511
-0.028701835528923355
0.03200789884394509
0.019605865391675394
-0.0364612305649806
-0.04570616156613367
0.005295049892525383
0.01425726422435256
0.013522292560140219
-0.005665136685014283
-0.025521788439142542
0.004892616424675465
-0.007445723209646404
-1.4010768210102132e-05
0.030387304505212275
-0.008241695042876728
-0.008797009456886093
-0.011578921992220768
-0.025428069225198833
-0.016004972702014692
-0.02634292722444531
-0.011676013176257083
-0.007718894236681937
0.04940381040676261
0.041546717541888135
0.0691317506837213
0.009519566065820762
0.01955790377147423
0.03860418737717289
-0.005378289069287695
-0.022964180845910304
-0.025921494387324086
0.020375386334035198
-0.005942361327085505
0.01751811652835291
0.054795458299492936
-0.05068320962269687
-0.17335915750593603
-0.03466588223531307
0.03940134857122084
-0.020208667925592134
-0.012173865005103028
-0.007588595770538771
0.009161207802295235
0.01676470314993489
0.014128964025038703
-0.004338563111081136
-0.022383619734390126
0.03332002933240175
0.0007472954591038588
0.007893882156441942
0.018776629576793095
0.029768155330260598
0.010271997708573179
0.007107855370624782
0.01901035061296753
0.008509322832756443
0.0013281017019543492
-0.03577877074548416
0.014517312019769479
-0.03371426845061002
-0.03545221987006538
0.005929347304235389
0.001631429274851337
-0.0087301904520964
-0.010333877272439609
0.036911794979991024
0.029135372204950258
-0.006064314793608566
-0.006078224468185704
-0.000463972453283897
-0.03645595285016586
-0.014379842474708861
0.013487318867274783
0.011065725530258867
0.01716849093864034
0.007265415168389655
0.00598479313548887
-0.026304713505036614
0.053564590234224954
0.06262919451524779
0.013602136501688348
-0.016338380292267068
0.025741968495659753
0.11105701956399422
0.037357587572406675
0.012009004049805781
0.003706916153234127
-0.1939959833560185
-0.2234401225382194
0.029977948815170095
-0.0036644074106314747
0.11923438478988488
0.0010969834437659937
0.0026189962135189245
0.01622788429279757
0.01902109910848667
-0.016985031042507353
0.05664576690141586
0.010054156144700238
-0.09651633842951572
0.011917032530450797
0.009206965926206467
0.009596632566049213
-0.003680046057028775
-0.03428094325797649
-0.20427089737943804
-0.08930189240089458
-0.029595204744496402
0.0396988769366053
0.12887935828940755
0.01707517327543019
0.0163451038984767
0.020324210225338563
-0.013221189612521465
0.01133111505803784
-0.016122635480420568
-0.017821273316695804
0.02700692269679078
0.031029623593500175
-0.026502318282662474
0.1445414903333471
0.03609486850475345
0.006236927771468587
-0.026585267022984676
-0.025484818553154688
0.011427036668742343
0.010682967339088361
0.01978535918406807
-0.05236110993946378
0.017656046740306963
0.008636703909596633
-0.01581949289987384
-0.017997536152915824
0.04870219348628405
-0.01814912865304346
-0.012399083099239913
-0.046646173144747546
-0.03697157085208076
0.04544516426173471
0.05447200947089482
-0.015358174130898211
-0.007820424620598976
0.014630942496618825
0.009926801316297468
0.018380399167743977
-0.06542688760253237
0.004776134127782305
-0.026453418364560662
-0.06516603861587675
0.017635886961346006
0.021891936329678167
0.019687141151934148
0.015982003041869728
0.02185114700524373
-0.0016211428741925867
0.03806140012583786
0.005516904477047786
-0.0001386246413997839
0.0007550888978923798
-0.013042885025379317
-0.00821652350880594
-0.03536057726036599
0.01149365763171511
0.017180758466621066
-0.030548805317564865
-0.005709602969569919
0.0002967362156682207
-0.04901029310060319
-0.07336276723653518
0.030400046719058445
0.00543425802833513
-0.0179181930458548
0.05134650598690906
0.05430605891733201
-0.04998902546557463
0.021332034691206574
-0.03461780657467775
0.019601258539840252
0.04834467794664634
-0.01167310896062708
-0.00046073057031605227
0.009021544348947504
0.0486407197718785
0.013653435273264979
0.031020303159780167
0.07577196547933944
0.0024500392331953183
0.0492174876048787
0.09087309498381131
-0.03222689182321797
-0.022524343847850323
0.026310749369281804
-0.004349788477731164
0.011166753601765793
-0.022949295161184137
-0.022647089343039047
-0.01821212367379736
-0.011546590428532774
-0.11149135240251289
-0.014498154141460613
-0.04751585385903187
0.0191383578002128
-0.04005575950086512
-0.03180984870961802
-0.015129024880267702
-0.04147913076724348
-0.019006054164922695
-0.035950809217318136
-0.046174224549676506
0.02007196866169266
-0.01533525164429729
-0.009757399025360705
0.013750280554999444
0.043131293958480026
-0.0018345059332599146
-0.03900620543458909
-0.09616336846591159
0.05086379197495052
0.10952667831452162
-0.025410793935656813
-0.00262266615436039
-0.0031861215404784394
0.005117199074840522
-0.01794833041107682
0.03428246220255726
0.03009090999560103
0.023768372887960836
0.004846711342210374
0.013925490012952589
-0.010284787111405071
0.04393327953566265
-0.0007613683365298449
-0.07457480651767615
0.03569551030700678
0.0028364420916266253
-0.02244053908369176
-0.01973534493952994
0.08941668008944513
-0.03805691009476675
0.10345139195371728
0.10746242392295795
-0.18712183036081903
0.0028398938849639476
0.007017684666592288
-0.03034580751864283
0.03860657125255978
-0.0059817572237656595
-0.03630217216567939
0.0206221384588935
0.018088559900107125
-0.01626450791413063
-0.0011818255876978089
-0.0325187463109263
-0.0028286040228903157
-0.030441696912858966
-0.027901587012237782
-0.0023463161061859678
0.0008271471399637603
0.0415428108212453
0.004808536109028562
0.01579964822239565
0.035235251771142354
0.004045144655212478
-0.0018625237898378907
0.003286947782657185
0.08837415019766637
0.13341106425724167
0.0207043757541119
-0.011218570002056198
-0.011065654085895951
-0.037261647942336364
-0.006268870244123117
-0.03207905523423775
0.031513033556509876
0.04181732535769981
-0.03265128800103173
-0.005747645737806158
0.026924670389030226
0.024126278895878553
-0.021603163627146205
-0.04887773525962541
0.04599351875203365
-0.11894315264162114
-0.0636849991832774
-0.08011487962921521
-0.021811595669156903
0.04789491691998701
0.08052327948291516
0.12471149248959644
-0.0167367566318659
0.016028653255617253
-0.023739354773660865
0.0444393375879413
-0.08725013737194735
-0.11440755874673943
-0.08151306009352055
-0.0036265388421337173
-0.06319905204441048
-0.0005813286616863018
0.017975731165998512
0.011748627586024908
0.009841435414590956
0.005435757771938643
0.013993696968632272
-0.025821095787371167
0.03311727872140375
0.02157393302831211
-0.030925613069610326
-0.02389430920069549
-0.011023787692327836
0.01635337913538695
0.02047265740829849
-0.03374021975311717
-0.015172383666696852
0.029809983496258834
0.007073624403268052
0.022929302844755042
0.017961839451531715
0.04016172812242132
0.0016767115073066802
0.0029968918402750876
0.010573612832205427
0.01429693325071164
0.012962974516301016
-0.018559995807433474
-0.004392373461063082
0.02213570593174872
-0.011740346111591495
-0.024724103184455833
0.01585802517433142
-0.016806756864530092
-0.0028951108493393053
0.02425343046325319
0.05030127338786734
0.019965438669026593
-0.14900095270137415
0.10358270039968545
0.0730174771313864
-0.010317358328030825
0.016151715559442826
-0.031865559493688564
0.026815813613136525
-0.004684943027312763
0.009731259187768555
-0.00967969679841206
-0.018892990421890896
-0.0011691303037907115
0.015675638700456785
0.03285598116431957
0.021289154190974355
-0.012280980313125687
-0.0037591155549198947
0.005343181066280403
-0.0006525994370874707
-0.014860474558224595
0.01043375280896567
-0.03156114561458848
-0.06678411212325167
-0.0070492916436916625
-0.007970057184342879
-0.021134372513929307
-0.05797702145774735
-0.0008370500619386708
-0.019588121764165817
-0.02192451828799193
0.017541505028062707
0.06849290087098316
0.041188305959104034
0.011771343971105224
-0.010619498927999927
0.0054894072347283634
-0.013864700452402278
-0.01930936123528237
-0.012994178770938947
0.00046272397400977546
-0.015112176333236369
0.009744639352584577
-0.0034493616212578344
0.0006647910976655891
0.06663561479999884
0.0301261726683075
-0.022294708696327464
-0.05032821981789996
-0.013560204116922804
0.010839579740686205
-0.014516489070965774
0.0031078661420931475
0.05702736758191136
0.03101643388297668
0.004768538672275971
-0.07276025466376924
-0.07622705767325107
0.008718957298511748
0.0063592050965453435
0.01290365437277619
0.0531807751831365
-0.024750687064414398
-0.06121764877609867
-0.035322156414154586
0.031376577836863886
0.008757143038940422
-0.01352807398349893
-0.011639846918822572
-0.00789544620627948
-0.01181943368481507
-0.02800794584281142
-0.005394287738842155
-0.012550215935307765
-0.009481507466775778
0.030550814408798806
-0.005311773411188208
-0.009884702960307842
0.0049948472285301455
-0.009680783082076573
0.060575716107725594
0.032524663025770215
0.013928538617445944
0.12000080668761176
-0.008217465594414643
0.0873997898693902
0.10127389414114667
-0.022213781937741494
-0.020153024630625488
-0.032572800292187364
-0.024675153444399734
0.004362355957276308
-0.011997933500026077
-0.03908669073954753
9.157144196125787e-05
-0.03873870283364601
-0.01017455202129293
-0.019958693244163578
0.001888703168558193
0.013109634257606844
0.030330126318001735
-0.027657484981888032
-0.009170767227448237
0.009540756475886633
0.011527542085054581
0.015004802736457962
0.13861118457665833
0.021733101612763112
-0.03175272457503417
0.01045297222018262
0.0033501122939670535
-0.039685331371790956
-0.004052069266178049
-0.016001375157536347
-0.04716509179021239
-0.031733699815106285
0.06716971758272854
0.036592717858126546
0.01633642522248416
-0.07596294842081808
-0.1411725149358703
0.025724065389491815
0.02809370651909625
0.0158212998231359
-0.038800189968169245
-0.026010459898957176
-0.03426295662671595
-0.004790676554992789
-0.03857757225658968
-0.05652565044089788
-0.04191783540694459
0.12160030802938952
0.12682157160791102
-0.1594280314840689
-0.1253186037754144
0.05716795033949447
0.02815436187719613
0.08983118913235687
-0.01331568197505968
0.03452456239050444
0.007777971493840153
-0.02483278278050796
-0.018749866789341516
-0.03998717096175717
0.007509775908810867
-0.047912429397598114
-0.010700134038514907
0.02488173395905789
-0.019246858085556363
0.03559954565986935
0.042017968776248
-0.033176898631943105
0.06754508239325141
0.008783347912900875
-0.07014896959837226
0.013458383521494723
0.007310874207098137
-0.03254219050061702
-0.03982163314735994
-0.060792409548032916
0.15407524672755937
0.04221484095825051
-0.0304858972459503
-0.04301062886936831
0.014132508253669197
0.008707808464217433
0.03964290127408232
0.08512739942295777
-0.04750452040670242
0.016245333740836178
-0.030658197844671546
0.0196974293746163
-0.014636862399663749
0.1665684913337678
0.006540997543030278
-0.03022477523355319
0.08124454077553281
-0.006345764600867665
-0.009525603690799767
-0.033163371359219235
-0.008494881416380986
0.01015421157215124
0.008999533706886815
-0.060652880817376534
-0.04804213222791914
-0.002406958348712739
-0.017198593075719807
0.05405937390941565
0.046873914977492215
-0.005844922887825193
-0.021762356064769464
-0.007439869931617813
-0.017993193558678164
-0.002115245936940164
0.04074347958589627
-0.10758457220516154
-0.07169576911063784
0.008607443642487531
-0.0659464779854343
-0.06000703594311985
-0.008521615585234878
0.07821853516611528
-0.0076225720971905804
-4.600304781784833e-05
-0.030101722093873358
0.04997223235926931
0.029920297728635113
0.013402704887198249
0.032589131623178606
0.017778884334886717
-0.016894802303236502
0.022173585896656713
0.004671621107898287
0.050393250701215773
0.04088806649449702
-0.0212538011172745
-0.015891708651050978
0.02882699554214164
0.025881591510312295
-0.018457154915685045
-0.04071306925079029
0.007933137911691587
0.013368959493724193
0.015076668144172637
-0.018473873433058386
-0.029526891028334203
-0.0070995207462130555
0.002900865659031278
-0.02169101571952776
0.019770385233151937
0.061971713330629806
0.012520102047143301
-0.013796543585635463
0.004574320015244112
-0.012032726503626238
-0.04330119130103052
0.0188576623925543
-0.08952925431009622
-0.07412815959682177
0.029429007743166837
-0.011523589311900695
-0.07916060821989673
-0.015994164470460096
-0.01383147782358809
-0.0037188157223519507
0.048922106940100046
0.0805845191536751
0.052380176605654756
0.014954099921363378
-0.0362408972608951
0.030968572885070326
0.04329639345012496
-0.06538217880955922
-0.07834151764194254
-0.017291352368674098
-0.026740958947678698
-0.009130445272553248
-0.011422225464124464
-0.04984152691229369
0.02414791995907531
0.051964099684451155
-0.0014858051675724717
0.014992664664926872
0.04660433070108197
0.0034084361452107292
-0.03203991172443255
0.030025289457067658
-0.009579838409834965
-0.057544864942374666
0.02836814142635753
0.008944098846220551
-0.00796692260291574
-0.06496146620921582
0.014040872002967
0.01558524814710541
0.008726362178022303
-0.045327885305590156
0.018158092893061674
0.10274149447144854
-0.005381147939228686
-0.014737303833943359
-0.01909178659945957
-0.1384901524190895
0.06399839271763931
0.07280182603436462
-0.08068924469638201
0.08437933844394775
0.13030897949639894
-0.03905279427914002
-0.036009828778639015
-0.015932375906345678
0.21502199412813766
0.04715893500444525
-0.04975120716343889
0.019486640449788966
-0.03452094485450165
-0.0031691491161939126
0.022458654650972444
-0.003360799014504182
-0.01641942192776818
-0.025615299890993634
-0.031731510553899514
-0.014885963975836485
-0.010308105934519559
-0.00393331780752985
-0.0309364302213699
0.004337620179905497
0.0106343029995213
-0.0353022988645621
-0.02046279560206326
0.002625761090829907
0.03966094851038054
0.015996448442801965
-0.07333867882060628
0.0071944643337084405
0.05161152253560589
-0.018866472409262366
-0.0103630252775633
0.00940849755506031
0.049179590066483155
0.005822820782112111
0.005040084747394946
0.07558111565510088
0.05273948879903367
-0.022462039348705956
-0.05117371328973774
0.0005553338366790097
0.023355443542879252
-0.015352990003710388
0.003900478954303267
-0.0016055024273477429
-0.0006858897653950634
-0.027460578796413882
-0.0017839913056398678
-0.02101211781142
-0.06223549275538005
-0.010259637691846589
0.026380737371617072
-0.015782934639716084
0.0509376452918994
0.026405188911733057
-0.022568677244647214
0.03230244904632456
0.025420679850902135
-0.021993004391768285
-0.038743836837595635
0.015607547854008785
-0.024674180924783372
-0.04425594044407812
0.0305134051436194
0.07841724853648877
0.019454959109459553
-0.16554896876040953
-0.050483258677540964
0.023348462962377355
-0.007833043159555938
-0.06607384377764161
-0.047580447185108204
-0.007751845209268912
-0.022450327372372483
0.04785792229505685
-0.07753596626968116
-0.07496255388493461
0.00483742559258168
-0.060232133730881016
0.011056437928419281
-0.01488990739867617
-0.016737518799591893
-0.006116154792587165
0.00460623228380868
-0.0901658447381236
0.04858988132813207
0.13780017156377267
-0.014229813419232299
-0.0075893757676114395
0.08059480324467902
0.006896082945214271
0.11320722514523794
0.21711929985109976
0.15353258996505412
0.04850288248105695
-0.015575257569919029
-0.023720314362080764
0.024308372506643392
-0.15415566880171297
-0.1295513311669604
0.023695375631819348
-0.07205291044917529
0.09516151160613763
0.03524897768457266
-0.01705668560425979
0.009667075288853386
0.05450181843258984
0.0035482292670745677
0.028807988220171627
0.025992970364317258
-0.018518149104494737
-0.04763142111681982
-0.011908192329366064
-0.03307654187507542
-0.027852642663862125
-0.004902363776503479
-0.006523177061445759
0.00402738306867233
-0.027558006034834864
0.0010423848135731528
0.004305704524363702
-0.004000594180599715
-0.04047162534320027
-0.03184405719767963
-0.0026672568767961403
0.014386403955392294
0.03145460882001807
-0.012525707646798253
0.02517652234751082
-0.017594000217671494
0.004244076446943585
-0.017380549946619965
-0.04162344444181028
0.018661635402377297
0.0003200636931674589
0.008458673374414116
0.00690185811587043
0.007174111371037008
-0.010470937031222637
0.02192324883842079
0.12935384606894557
0.005407022463795056
-0.01110189376760847
-0.002775002588372232
-0.016054071828281776
0.010635857764841916
-0.03455521026967762
-0.03542860728000353
-0.01684385558463235
-0.06718871359397893
-0.018588394699120186
-0.01772805730077644
0.031467432781975536
0.011025709376915008
-0.008969761891401914
-0.0012362176684506767
-0.05782983835586063
-0.02001097484236806
0.01856093948952037
-0.06176176350122617
-0.025116609704307527
-0.0077834464967117805
-0.023226112013701575
0.017620341164332642
0.057173108413247194
0.0003527483972561363
-0.0235878131529226
0.12281324006292883
0.09409978832540483
-0.033494247434383624
-0.005977314270459611
-0.004617568567375649
0.01628627448882523
-0.0028627063017409174
-0.014335975962706145
-0.003084599517720242
0.014358988509614715
-0.0036446069249805252
-0.023284228783977033
-0.12727174135149455
-0.020068670339699824
-0.0016188920623826006
0.01314946338861388
0.05671396026768053
0.011637415897772124
0.03234135666240286
0.009140780453360458
0.12076798341107348
0.009556983871144238
-0.02650418902362556
0.04044582000521224
0.030599564476783747
-0.02539592313263212
-0.01836591028735584
0.01566784975620035
0.018576344629939137
0.02506247732152099
-0.03813589098603021
-0.01926440144527071
-0.0076826056257175415
0.015308679098355192
0.019464358566562003
0.013642418065787566
-0.003332595025588765
-0.02261854927360092
-0.00837363457591697
0.0271042219896795
0.02478110749769251
0.006450041179622811
-0.016918492077976893
-0.0048575913206359905
-0.09435980890083116
-0.05592459640548974
0.014232447979791639
0.016943497497555717
0.012459663835276753
-0.0224151086275791
-0.04159922584726936
-0.033941753244478935
-0.039006765042581076
-0.02627513036197621
-0.04475509127570362
-0.03606519190171682
-0.020515146286570626
-0.018337097922897522
-0.009342185554635604
0.003021997673516268
0.08414105782006963
0.047231613695685584
0.017532964884416646
-0.006814717582829114
-0.014776454688617956
-0.02061160239365605
-0.01613210057353631
0.040106850755683356
0.13170806355668388
0.16246742946091208
-0.0016190777292504823
-0.06756051936606781
-0.020294219932228314
-0.016359466146390826
0.0436197967966272
-0.0016968759880421722
-0.01957943616577452
-0.008062486446880967
-0.037736525369980845
0.04477281574786048
-0.023277719702126724
-0.008707539598439668
-0.028534659106573018
-0.007743000425312262
-0.028157230046939794
0.029171926057836323
-0.0003819597606977843
0.03179028556216124
0.07252364040398358
-0.06347967347411627
-0.10916621486487567
-0.00010984659951748156
0.008647093697777157
0.0403257117911248
-0.010156162327885397
-0.04249829924723724
0.007708058244660453
0.012753139290962263
-0.044411746961092624
-0.008099605028586684
0.02305371969966735
-0.03487496132879784
0.002959474843653048
0.032623513019860495
0.01454575309696699
-0.0036096781570861647
-0.02483285294900714
-0.007440898986815288
-0.030123962487836886
-0.02305142173316528
0.026856002496687587
-0.02986503854876754
0.0865062874856618
0.03417351735965268
0.042748893323023375
0.030120915403038642
0.10167324776440569
-0.016628003095567927
-0.012000079668557666
-0.025615548176334327
-0.009093013740425634
0.01704636446449076
-0.001556471359758304
0.0031780717199825772
-0.007348934149121747
-0.0996293737193678
-0.030109774782125644
0.13107240825909894
-0.011623457958758722
-0.0022638265049381343
-0.004164398444270572
-0.024600130549267362
0.0028157422901267785
-0.011353380648781454
-0.04456498923249651
-0.0069354522087693065
0.0036511376624619933
-0.002797378821717995
0.010368353185095212
-0.020663334401231557
-0.02464634048546827
0.005978353285516773
-0.023978324485231392
0.026115474431472063
0.018852071467205023
0.028460251052158884
0.0028653955384453857
-0.00040444793319847173
-0.005032222891791581
-0.03415284351351571
0.03669721208578664
0.030474613868778484
-0.02832222970722635
0.024199244592438
0.02494036541845826
-0.05209062825987657
-0.03243324202530791
-0.016030653943790843
-0.022343998282172938
-0.015779120468254554
0.017794244370840543
0.04144471817325902
-0.027869936244486294
-0.011962073315639038
0.03887868275884331
-0.006143964291442577
0.011426105676193338
0.018689488943321297
-0.03691138421395972
-0.03303712538253617
-0.004534633064372022
-0.0155917006327715
0.00016476381665710352
-0.0077441812371534255
0.004028701869465438
0.0037042850521667122
-0.040571719471677536
0.02659863093793537
0.07051363483094919
0.018593368293229596
-0.023805094566460596
0.0055843009974903685
-0.01189088125166965
-0.02656944145904537
0.002906844613490545
0.08719653067808783
0.04134715893192824
0.014471329955836805
0.02538769438166914
-0.029495571284201175
-0.010696276418689579
0.017956603764185383
-0.011678410588213985
-0.05541956739144413
0.024738841733511936
0.01391829390751504
-0.03755795490542607
-0.030965597961035048
-0.006734327550895875
-0.009562868092556054
-0.018353902542085007
-0.04054048446083468
0.027479425500655602
-0.0026046087343486496
-0.007029344376407128
0.022183407847838777
-0.017671430889671533
0.03088439122550416
0.03570857008168171
-0.0398002849684669
-0.002041569317690238
-0.04671608989009937
0.017303327660949615
-0.01828868923505578
-0.030749907926049647
-0.06001811872371679
0.007658274355144174
0.004724947783155351
0.04981948253593752
-0.011196723298704294
0.0036834031368436692
-0.003917154822139963
0.021261539785683656
0.031753518444181186
-0.041344475044318645
-0.03377734938828843
0.08048773198261103
0.22773588163041095
0.028777822353082044
-0.03144818760778913
-0.006232665752997465
-0.007006991323386214
-0.015430348435503777
-0.03313118775575335
-0.021064559560002485
-0.025713145687443106
-0.026469401744201777
-0.003988830807180999
-0.019126893010293702
0.028898255210224877
0.03800867983055859
0.03517863853919931
0.035188419652008626
0.03927539428595083
0.00214701952394675
0.0030481217312368527
-0.013591320008654467
-0.03155409921339277
-0.048873414594019574
-0.05880265249014885
0.03031323537116811
-0.0026479783480528557
0.0371493669986739
-0.053215488327606524
-0.0646657690486006
0.011203868178763909
0.006481607574077177
0.019282634969717237
0.01641057302962292
0.0045770086820837155
-0.007669641627718423
-0.010750668298057058
0.056985372942737596
1.4814295357539091e-05
0.01009459346786805
-0.003748171042551834
0.019301403277185047
-0.04699565505461133
-0.06878750473084157
0.03001593775935423
-0.00017618403579495746
-0.18373857956872888
0.18800242181273497
-0.04299893267974535
-0.1437800961884852
0.0588385507536763
-0.03437747465909363
-0.015632359697575232
0.06389420849451997
-0.010658326685853215
-0.01905747794564471
0.002979503224516612
-0.0073894073137154015
-0.010163990959876272
-0.001713838153669336
0.04004625299006145
0.027884415436374422
-1.584998669299002e-05
-0.014592785506408329
0.025215343215474337
-0.013593956581986344
-0.002268024721225042
-0.023051709286667995
-0.009743414417039858
0.020513514141576233
0.043649188865301836
0.020067232606140364
0.018652618358277227
0.025695420996260987
-0.013013491822201117
-0.022558072145143625
-0.030212269188990743
-0.05023077444811409
0.03212478993659302
-0.011172525578950106
0.02365847755907749
0.006352639719776253
-0.01672197087913872
-0.020429719382952273
-0.016943561105813625
0.011849593698622589
0.0016546525451227646
-0.030561686496317284
-0.04163646035432158
-0.027332697006803814
0.03786116358275911
0.10013253619368881
0.06334036623605242
0.02758520504209153
0.043735383317381436
-0.02525571088617828
0.023994948743422926
0.015870426340891343
-0.029832477763745712
0.016348764943053467
0.05443228390734004
-0.03568981679598659
-0.012022922312199227
-0.038202224551221055
-0.013674923764747608
-0.024403612897389838
0.056767686691949634
0.032823027282533786
0.008718120355980493
-0.0743855429575972
-0.03507402049575195
0.0039175824646524365
-0.020034649876470845
0.0041966471067199735
0.0008651406836064948
0.009256889420899795
0.0047111254109773746
0.03566912387016845
0.005946548705690136
-0.00046772432494246354
-0.07409862322676226
0.06983603049359072
0.029001342733215203
-0.00811238322566937
0.025000414515941437
-0.000549635950849182
-0.02732942990837301
-0.014589605728842058
0.0020320028045434186
0.032155579825444085
