0
0.0010298160533627353
-0.03467975894878573
-0.07508715593267695
-0.02445916265566683
0.007544488878622829
0.0071518622237558005
0.009529130656863286
0.0019101470450195238
-0.02614156901913578
0.008814093538298878
0.08214598831175905
-0.027727368012594008
-0.019418957160162086
-0.06935642443069714
-0.01110286726996378
0.010574635348966346
-0.0037419824131547444
0.010630554510871193
-0.005161274935494301
0.021212655216523473
0.007846603515993098
-0.018075940616186607
0.014385752661275482
0.029730384506500552
0.03744139733839914
-0.021406162755368458
-0.042463650666912114
0.029042406708158615
0.033302222010927446
0.009974330235769845
0.006893321203811775
-0.026106277491014206
-0.06398778703908033
0.005137266664667936
0.07427575658349911
-0.10570871915708521
-0.0377013755380741
-0.0030095111219151957
-0.20072357881330494
0.0007323068264847437
-0.04059507392954532
0.035043149730452985
0.06309835092366103
0.001785925076175417
0.0162706224064753
-0.0011908171289850835
0.03395546848752576
0.003388195022410906
0.057668467131364774
0.02932518568252183
0.009914953835860382
0.011425191851641455
0.013221702602914153
0.01367661516501136
-0.014973082295878914
-0.010798546784669861
-0.015696305574200604
-0.0008303320807626197
-0.00726725678808229
0.003457919548804575
0.0034464130478322813
0.0006944134949786137
-0.022870624620315763
-0.006109960482250125
-0.01762823494929222
0.02977330747827242
-0.03524932891195733
0.026472877464494435
0.11547070319265067
0.000374992496032998
0.019096209678647693
-0.006320447889086364
-0.046281410655847725
-0.05854210860900495
0.0043273532940022825
0.006725922247931128
0.016279384761222145
-0.023383252647082648
-0.01180990017403979
0.021026281388392347
0.037644136558560616
-0.0004130725927992636
0.00021245653563990808
-0.05040404048066203
-0.016752129672570722
-0.025625323707421835
0.007096014181742234
0.12480699818652297
0.009568401314629802
-0.02291466679118275
-0.04863820776900537
-0.010470313690767197
-0.023635739585107556
0.03389012888415908
0.015942111225217832
-0.011705840058587366
0.05013745477129152
-0.017162728762560333
-0.04043167104907549
-0.024595710057948035
-0.0013223740032348302
0.03625748154511122
0.05703252960191766
0.0027214640403183474
0.017050935642485488
-0.001249778857425326
0.007294311060632439
0.0043067866308297105
0.015388506436075281
0.022675261194687078
-0.012170012195313424
-0.11432053561031452
0.002782109982272458
0.028903433735465642
-0.01651551515167651
-0.0020395044919071367
-0.01737096727292312
0.01546115155497596
0.025421099104646388
-0.06705606957845958
-0.008348481036667268
0.02463153314730345
0.004224585703160575
0.0037106298856228854
0.06090651064928133
0.03235342546967975
0.006547250465936399
0.00727467481361388
0.0060132341763041285
-0.04063333212259228
-0.006279535877519445
-0.009229764093267846
0.006403485856183566
0.017648197922096726
-0.01888923755282492
0.03767501291571808
0.027810365137550863
-0.008088095605314843
0.01503535397448849
-0.014224668434385922
0.04502850441984487
-0.054782856261629764
-0.07413713568077822
0.020972446228890242
-0.02760614215784661
0.011251718292691521
-0.11247606341784129
-0.041398765323524836
0.0037156874146063233
-0.022455300233436545
0.016304392064250373
0.012643108213352272
0.0191764008573013
0.029067701953405505
-0.01586486107713731
0.02064114992383726
0.038668540719634735
0.018297477899941406
0.03426709004547539
0.00613963880702802
-0.011160223275909617
-0.011057381950656177
-0.0015023759514905027
-0.011888615895292633
0.005652865709885646
-0.0014427212250692969
0.021762228873801102
-0.0007089040391048237
-0.0007070540848367637
0.018044041403866368
0.011994745163378014
0.00042853403519739296
-0.056412823618351524
0.019284395312211065
-0.008584589662699593
-0.002661020970020028
0.021696653871509278
0.054628299317765236
0.06642428414550995
0.03304157882860831
-0.018925527947688883
0.028853195939132714
0.01360824518446267
-0.05366478379340165
-0.1148489087095171
-0.15415040893841822
0.0152825854355366
0.031877515019107176
0.02742248212609379
-0.005407846669884623
-0.013385405936420139
-0.19095980482985145
0.02742220980085162
-0.1364123271988306
-0.10637744495489747
0.03333269694808816
-0.05830105120446114
0.08210073833474152
0.26002291832998164
0.05364112845931436
0.0005698740069947523
0.015947894110999426
0.014643734811832695
0.028103844086011232
0.045132716081835514
0.022559704874812472
0.033652693414424645
-0.03624376753061531
0.0008696650703231656
0.054538694080287047
-0.06873652293516828
-0.16597890709909474
0.0025391327742593896
0.02241896026399858
0.008541695626432885
0.028560653901512224
0.1407242801365233
0.012471265430209322
0.031565882229733756
0.009619633364070103
0.00038318291576346374
0.006006694453533331
0.011701297566052883
0.14443046009930008
0.05560613882626481
-0.013342705503680188
0.003603362509232416
-0.005025115898104705
-0.012668015859447155
-0.02102805405226945
-0.009215102753889889
-0.0046381941122735
-0.1293735738786324
-0.12606289329146436
0.02162166708716789
0.026398984542870527
-0.004599224297951451
0.02271689913664137
-0.015827916265362132
0.016818697544164405
-0.042818751957909074
-0.09108287102587444
0.036357227518926144
0.00270339259890856
-0.017064310917532546
0.00361172624847779
0.004071596944019276
0.018123733028951528
-0.041191976187854425
-0.09645783904272125
0.020080568641487103
0.0060078898854582004
0.023650711584015566
0.002652028141983972
0.0319504158299219
0.04706967182660246
0.010074111060722906
0.006664651268319769
0.019126326363501332
0.012053035835565655
-0.034313106388301165
-0.02433545089241698
0.006080229271868578
-0.014394498212635188
0.027311358035112025
-0.10094305579862775
-0.047239613576509694
0.0029379877111804257
0.06154879903321438
0.026410718433204347
-0.028360190692606764
-0.007958393417720724
0.05960301041330367
0.04834304355004689
-0.007165046542437648
0.03386220689155269
0.016599988138236536
-0.0449734853305265
-0.02546943021616331
0.003912276608008243
-0.036221929565954325
-0.0013273572612282865
0.017355053499178714
-0.0014363592888907944
-0.01283061170603807
0.015109949223441685
-0.03319271317497403
0.002769616166446779
0.04807410248323226
0.016555195949367857
-0.009102601884143349
-0.011605381359904937
-0.003935199189999093
0.0447046518625371
0.0011275956962285823
0.06975689917519133
-0.0009815821835206166
-0.006707448387593564
-0.016223816924854903
0.006955085146961944
-0.012645585990720753
0.017090171208984827
0.032264865017006365
-0.008308571339171818
-0.02761865381211245
0.006738225338064617
-0.047653847362278796
0.004099297447707547
-0.02905512875901348
-0.08393574157581438
-0.044910116898930895
0.0698058095544759
0.06468978906902743
-0.018813056182497085
0.04459473077109708
-0.005929618321992396
0.04114373942294722
-0.024277709573771573
-0.03126486019240858
0.012697128945037087
0.02359627544311703
-0.005426780256696374
-0.018049981034700104
-0.027520246917556793
0.007381624084637896
0.009907361869316178
-0.008138812597178672
0.0013760195267373146
0.02019247739158195
-0.008683879175468269
0.0013916417271994963
-0.005677673408959167
-0.047420551161858046
-0.06899977077842924
-0.016919754247346
-0.0012476424470838352
0.04498700272121328
0.06466122966626178
-0.0712237398844106
-0.09383672583165441
0.0805086372388464
0.019744299739235336
0.047205958650140115
0.03129818153230361
0.03721301727205887
0.025484495095012463
0.016392156833948845
-0.016759390073620786
0.05927778900174418
-0.0036196594556836405
0.016327605346386383
0.012023134259033813
0.025449070490454632
0.012715666498725398
0.0031873574523540644
0.006407227907255356
-0.022943070960121752
-0.04876667672245091
-0.03692196391921552
0.004897064801155512
-0.002323114058327061
0.012577317130334071
0.0531626354652982
-0.00022762490943445607
-0.008325319588578017
-0.006480347274221469
-0.02975388800644982
-0.052869267358959984
0.01739427818688744
-0.06482290223756852
-0.2000822862498632
-0.01826245803773355
0.03782113340198226
0.016491924403295315
0.024268296680373527
-0.17466146640242577
-0.07462041439803753
0.044686884979764856
-0.0053290847147203675
-0.014633266899023873
-0.0009467668846309558
0.023835990039855426
0.011920794254661584
0.025189495840402285
0.06498872723701457
0.24316543086456452
0.07240493428259216
-0.04238339001941771
-0.01707763161872526
0.009601773814455337
0.0011526239283361553
-0.013245353602404959
0.05228989187803668
0.05978769981198873
0.01899026791985891
-0.04762600100818895
0.018630143898926282
-0.016993555052720447
0.0015083776690891786
0.004108581469571185
-0.02200475020927241
-0.09185047850837086
-0.023415999137803397
-0.0029011886805517567
0.03555214031784062
-0.0025508653294549757
-0.027814488337543818
-0.037839364452567546
0.008422746655666887
0.007622805636650491
0.002900022890586418
-0.03443593669905571
0.08316345938645611
0.11230501923847376
-0.012596478620741978
-0.026209222930357587
0.03061354295103475
0.024191014788418612
-0.029829411521572875
-0.06460214470317335
-0.04662903336413347
-0.017465474021784392
-0.013647716683451484
-0.013794426364180884
0.02888188218320358
-0.0367786557523352
-0.04896500824245473
-0.016864063588115152
0.0020773790265073908
0.0069871499969298406
-0.015102066711179642
0.0014453785411159617
0.005475652274517707
0.009846099241371475
-0.01525774678851122
-0.023323248999377225
-0.0022670642565985077
-0.008499220774531925
0.016344624130110567
0.020760056152066064
0.11091319415744776
0.13830475995492372
0.04275312999295086
0.02692170236816624
-0.05163938799070004
-0.029989110792999183
-0.0651802724028293
-0.05085540951433072
-0.012948630608236731
0.07072631474788724
0.04501763430953005
-0.03752221502856991
0.021113246619079592
-0.005920805902380638
0.011982234239196346
0.026130219889799782
0.01984675377051263
0.002967945956869134
-0.02929612225626628
-0.06377675978734908
-0.01667405219021561
0.003548081602536889
-0.012178930585581952
-0.02738363173412812
0.059900352067279054
-0.0454419870975866
-0.03992541005707927
0.010268721177425761
0.002029957782328663
0.04400870088416674
0.009102785832689957
-0.03350222079280727
0.08546268649670935
0.06867744952373288
-0.00732060013301146
0.006338475778261194
-0.0149169394702724
-0.01983603152137147
-0.00922127798326354
-0.021437974310215956
0.014675472990485591
-0.0073282451710809425
-0.19325828073006684
-0.07459537689997171
-0.004920582406482057
-0.005710567323609769
0.10346679402367383
0.13158858348969896
-0.03730197378514796
0.03609346685982599
-0.0016568421651917506
0.03626204440401731
-0.03391388013935735
0.018535552262983767
-0.007872404921583212
-0.12387859989173854
0.06177805036658771
-0.03967210172251575
-0.03351301413883791
-0.030923283054514358
-0.021988959938653126
-0.002327847284666793
0.010314645048846268
-0.0030878493368539047
0.0055911442500605
0.001571910812585168
-0.006258656502346275
-0.009902013343315174
-0.005882061731943814
-0.03848161347605466
-0.004961731894980271
0.021642605742420874
-0.017725436720406964
0.02952274384543227
0.032285727410324566
-0.025094641558287587
-0.0006557319654969632
-0.026981699023786148
-0.007455573086104051
0.035384650292973926
0.18557444867777353
0.043834723926777064
-0.03910339160183399
0.0018708940993176623
-2.756157351208006e-05
-0.02779035394616701
-0.02289041899821503
-0.006004963244494127
-0.004724840651797741
-0.014896929167532866
-0.0009363065051904781
0.012703428132639721
-0.022576082173548194
-0.008242801362738918
-0.00037815678434556575
-0.03425998048655887
0.1421094787020435
0.08240618527413726
0.0008581287060056944
0.033947769099053914
-0.010315370686374845
-0.041659892933552586
-0.017300517344531773
-0.04242314079658253
-0.008051523477065939
-0.039184779823480204
-0.04448844709093645
-0.011866406933632077
-0.031747652894781264
-0.022260215787955253
-0.00017390267772577757
-0.05121598531614752
0.04675656415626714
0.056311179136334426
0.034860112124488626
0.05086991686044149
-0.004551567006735688
0.009144040765876498
-0.02317400107839298
-0.0349784761411573
0.026564168335121652
0.013652032750380542
-0.033764052223977783
0.0037257620039540125
0.03533870092596859
0.000462332365621191
0.07020400592792608
0.057169512754318405
-0.021132902200283934
-0.06042620588174419
-0.007579569175848072
0.002769868820593706
-0.012258736749636776
0.007584769462529748
0.027924134506913254
-0.02241017188626401
-0.11291067277432217
-0.09445264792376114
0.005600266155977869
0.06666187205816612
0.04274079396255878
0.0032377382760073615
-0.007543930434194784
-0.00018043432201276326
-0.0003501266778803637
0.006582582267498389
0.04690766277206745
0.00548006093152428
-0.012368469671291616
-0.007056992047974905
-0.006917960338057277
-0.02333377315844709
0.013204797957030681
-0.01654233196065604
-0.014423393903872532
0.010357560905217977
-0.023797159560563077
-0.08140252538557786
-0.04339615269006793
0.023648159271660203
0.0013741864612066604
0.010035111314785084
0.000338316639192668
-0.005939882656487229
0.006994960260969484
0.050447727372946345
0.018127509378171446
-0.014454195248717884
0.009266171473928594
0.004518828961015081
-0.011058772066884924
-0.007843581203177456
-0.00811346844866121
0.05254367550122833
0.016304459388365704
-0.003050330822099838
0.025573818670297777
0.07746168262245816
0.03608239491404404
-0.00477798853076147
0.06229812837389982
-0.024053352676206702
-0.01011313227162155
-0.037873898138113024
-0.016553164824592417
0.04130047967192561
0.009697824075232848
0.02841814680920642
0.03719967440917735
0.021339742195750775
-0.008194957443859776
0.019448972099652757
0.005588276454726438
-0.16540196787083788
-0.014598852674269549
-0.02079978555853975
-0.02885001788670987
0.023160561106696696
0.019760715184907643
0.010576471756838481
0.038252415240896794
-0.007977045607368258
0.006040494606808154
-0.1534018311320102
-0.03887151747132834
0.010722699390660704
-0.017858138949076785
0.01658448970786216
-0.011036820581268413
0.028505776939246465
0.014810932361392916
0.001149073654605294
0.038860433286990785
0.011564516273121779
-0.005797289079845321
0.0432217748413223
-0.07150437288674745
-0.14821291948370993
-0.021816287536660768
-0.026264060398316916
0.025355183010525396
-0.0025595983401577537
-0.0027876875441222963
-0.017916828823959
0.003027556450572902
0.003731016255638315
0.018486509683651522
0.03272524233957665
-0.002722588906967422
0.022948175571655547
0.044596576010297824
-0.010236333174511005
0.01930806492853275
0.0015226582480490141
-0.033552727532719026
-0.0169937453222984
-0.005589537576468587
0.03550152678426266
0.02727847553788444
-0.037747403720448276
-0.01580295711999896
0.022116387560488216
0.08277661899381701
-0.027689925804944084
0.06291610948486663
0.11140987477934874
-0.02640393793598465
0.01704518806844137
-0.011029427243370213
-0.021602544105147836
-0.015059532780311993
-0.013229151965475276
-0.022565966635117084
-0.029237853781716543
-0.021679069182459345
0.002337765970734196
-0.005819778672210267
0.018477587197816666
0.0481924423788758
-0.031365338409059244
0.06731139553619375
0.042581844403091255
-0.045770536039630064
-0.01137730497374479
-0.024009997681142845
-0.012553500295477655
0.022168028798562556
0.000846668608594629
-0.0295860927358243
-0.013525667608092755
-0.03647990208562457
-0.03860532971138294
0.014477347364944505
0.06205781654044551
0.03778089706561564
0.0014009913692157835
0.010953031938753358
0.01772968013262315
0.0005085380354104863
-0.007323293567644298
0.09980654906528257
-0.058607119657764446
-0.04321263366122016
0.021110682575689894
-0.016934700200551992
0.04891606407996512
-0.010903382134503913
-0.010893497005851252
-0.00033598128849062837
0.017062899199755833
-0.06910917101618261
-0.03208259678133058
-0.01583709993282059
-0.06680811542128276
-0.010228663292857758
0.04746018844769325
-0.011899464597517506
-0.008566207830883521
0.0032860224990514547
-0.013757994520452689
0.031996514723368424
0.009756433565798524
0.010620089994490593
0.012748119162715154
0.01208033847549053
0.003370068312987086
-0.02598082179820429
0.02180566444227297
-0.016227168230690005
-0.06341208115971626
-0.014950821724547293
0.017630637540079014
0.028383202242031155
-0.001962450246041942
-0.015105418851988033
0.024160561848897366
0.08350595567663047
0.06055108667870765
-0.037090174561120993
-0.00020421704700489704
0.021043075038351584
0.015560791863061002
0.010673533726786914
-0.012304658207281882
-0.009279117041157718
0.027674823684224976
-0.024732824477916634
0.019913707569557647
-0.06542207859387707
-0.014850659098332596
0.00788743781683698
0.06728938023298467
-0.10548782392010195
-0.108823782447573
0.06834664066045781
0.011932023040042053
-0.007063141569250681
-0.021871153261232505
0.00952156155323136
-0.018775586846532466
0.027084763522153527
0.006516945621886364
-0.09072013538182795
-0.07364662017608929
-0.016101669069177454
-0.012942030082401615
0.07464772044649638
-0.008303626007645325
0.0410397914173081
0.027585885192147712
-0.007105779971935688
0.0114801073789914
0.03145111238810144
-0.037156381995076676
0.039216262191771316
0.0005286686111129528
0.01984773135616107
-0.09070504733896645
0.006474486985252693
0.01629153474965786
0.025931165758932503
-0.005384048913142587
-0.0015479856362054327
0.03774430647376853
-0.0024941067744726378
-0.0023833751771572954
0.013645571334934723
0.03463810038120763
0.004285670706822
0.0028120031268765275
0.05560893379665354
0.03283060401710591
-0.03331183649677095
0.012679055008622353
0.040989754196291965
7.502666810319784e-05
-0.0037404453785815518
-0.03105430225911704
-0.01925877814466686
-0.000878933339492315
-0.03714300112250199
-0.002634710751622776
0.003293990474864998
-0.027383005138835775
-0.011696911313289962
-0.011527146633225236
0.0037251941358081393
0.024013481903480235
0.00703592907291525
-0.0030251862192124754
-0.004070604200424751
-0.019912926719556922
0.07885358721399775
0.095601587018768
-0.030955837711563166
0.005511555572537881
-0.027019454679696273
0.006165241100537247
0.006470775824218368
0.06959688628538872
-0.04605070642181986
-0.047873337827374796
-0.004750046933562585
0.0125871014547094
0.004345796063082974
-0.0006085107656698485
0.002596896340837805
-0.022733980924431543
-0.14835050468562763
-0.08112756254823761
-0.007360120026831963
-0.10914865199841894
0.03250726142329066
0.029421459340377185
0.019505598650263925
-0.016603660957183835
-0.010252105844504974
0.008949751526553912
-0.015647195491715206
0.03813409470786897
0.020211896619254745
-0.011419290642047813
-0.008426799622006492
0.028121464996062877
-0.022883763318477135
-0.03031323125292046
0.013254374738095662
0.006361700809044421
0.065783063954592
0.01120192197354218
-0.0024579462698913856
0.06571115806772408
0.039558687794652804
0.022649573777564037
0.018570318784705966
0.013006007255210669
0.017859895520032264
0.010558639085477276
-0.015426404520084848
-0.03216336836388925
-0.02124287778787915
-0.033236863135974425
-0.0413025800174358
-0.02260211616804999
5.522357765728519e-05
0.00807254600931777
-0.004118430247870568
-0.0015057131603420316
-0.008779208523029344
-0.01488231375498924
-0.02045522878433408
-0.035999623956827424
0.2241330403758654
0.05211923040737087
-0.022912659466617996
0.009470780155457026
-0.03334439110483813
-0.014817106120393438
-0.02284831443352562
0.0431363437441684
0.003699271830326701
-0.031063558762118828
-0.031089969139645037
0.025256318383762646
-0.005226947460743924
0.01701519641504229
0.061554016643491215
-0.044437900829441594
0.02880543872051111
0.012363059069230353
-0.028733223875142343
-0.022746863375396956
0.005305412008977157
-0.015287938488620574
-0.05117574919735239
0.10906508954942422
-0.01508179125652772
0.005623093005125783
-0.015793683298308707
0.02095265801247145
-0.0017915563489753305
-0.03877515825020892
-0.0059406822232384755
-0.015432161794536986
-0.00010503498025925053
-0.011165495831392043
-0.029164968833140993
-0.013728774955742063
-0.06605194968411238
-0.00816198694904519
0.017587143342452854
-0.016061269395622753
0.04140976589119746
-0.031054008400388328
-0.02758390891989197
0.027936206680908227
-0.010709273797302306
-0.014206896986164513
-0.0010855946410952245
-0.029234386147500985
-0.005706759082300859
0.009950154307268812
0.09456490768015893
-0.03324697094537934
-0.0008172897667980466
-0.025642051454356055
-0.00839099834498524
0.02517235483494244
-0.025317019505690937
-0.017913109793807138
0.014135398923903602
0.020063350704154364
0.006960597657041833
0.023501604179136437
0.01376570688472814
-0.011580604306954765
-0.004154921748721051
0.0038407811068029924
-0.015678555887704473
0.03296952403423235
-0.009105029772307064
-0.016817109402510053
0.0252936859231847
0.03458399184220776
-0.027110738362011808
0.06566808960330923
0.00828355095777682
-0.03298056696091761
-0.007464836694732376
0.019119461547686893
0.010385496511165961
-0.00813253746665293
0.008891259023758057
-0.0395361612255404
-0.03835723674679837
-0.0021700039168261694
0.06298602410154444
0.02131734379583745
0.003979767488699567
0.01604779582030505
0.005973556097947596
0.012453372974637004
-0.020350496492846683
-0.024112479716223753
-0.017771800068592476
0.006181195782192372
0.021449903950600806
0.01650583547922293
0.01015349445503113
-0.01056206142875906
-0.0323172112470053
-0.015669448852196753
0.0018210784250312939
-0.02569721138788951
-0.008655585418682846
-0.0030813116362372606
0.01014673555939293
-0.030119816261600284
0.04123129003210791
0.040090179432951026
0.028391751307129336
-0.017306135289057903
-0.023733714647668474
-0.0018001226391056876
0.00285268188968714
-0.03663374534938927
-0.021632884038129935
-0.012883096079386877
-0.014275043420583203
0.0026934075127922055
-0.01748786892421081
0.017695607734475295
0.01799859821307589
-0.004706519426423111
-0.007682195830062773
-0.021456320640566726
0.020778097773682024
0.04244370903799894
-0.037917665291098135
-0.020859156699951288
0.009700678622348819
0.02642254547985462
-0.01859864525756213
0.03274539594051153
-0.0036020941003572678
-0.0380778781412205
0.0404871267364726
0.03901398128674943
0.012050762047099326
0.019693007752084168
0.010342502497834192
-0.0382305456407459
-0.007622956379946433
-0.020673800586055117
0.008366911315513188
-0.0159511957923892
-0.022164107464073584
0.050623084057240954
0.03701227151336119
0.038738982935182166
-0.0073219663005506894
-0.011831275847930664
0.024720257330853358
-0.0031304339440412802
-0.05359774623212418
0.0010909360995367081
-0.026528521039201513
0.02472373166328064
-0.03675217215050572
-0.03439162919176879
0.07216086722633588
0.011723850759807655
0.009115639344791947
0.01449056495903834
-0.22320708195828348
-0.029603693036580586
-0.007077037598901465
0.007199470752626771
0.030857400706628832
-0.04029489616067469
-0.012518393162714065
0.004492998231475864
-0.0007190021270197518
0.016363132905748742
0.011884553493079176
0.007272761462469784
0.019824515409570562
0.028020802972016808
0.00596188369155216
0.0024286139156199107
-0.002972299680696272
0.02605263586575906
0.05034577370354888
0.019112460606916723
-0.004822570673648402
0.004366181763802492
-0.021840504340720004
0.059334759178917014
0.054437620276233306
0.002425885306538857
0.003544516896546752
-0.009033973172486784
-0.055621200388926026
-0.004053781635030546
0.0014530132641410092
-0.0033372864651849596
-0.009542203514417915
0.003849784776580082
0.02967362322252219
0.005313994724811307
0.0033633548620723374
-0.006743524506579321
0.030008707863630364
0.0190521086102154
-0.021923346612580084
-0.03929565673287384
-0.004873281847836249
0.04141609351781582
-0.0320513980610746
-0.019350631890345953
0.041326199451995387
0.07271655899487257
0.00040279805511507077
-0.02646284223189182
-0.001973329082466645
-0.00985588324608415
-0.011011798551810188
-0.06549906248770769
-0.00780754716346122
-0.021168111928757925
0.03540589812889011
-0.0969734507007432
-0.10979561734380444
0.015341328281592372
-0.020205898412130923
-0.006340547725444244
0.009666820833890524
-0.03575218328105289
0.05889629072847473
0.045250679569825966
-0.03638327017485423
0.003941925330283935
0.04329360419140435
0.0009122898917404436
-0.030468860823509043
0.05798674572435891
0.10007304065428267
0.013121809564552998
-0.007835108093046404
-0.008480381072231707
-0.006976632112959712
0.027423770494128433
-0.029620412237720304
-0.008682471196365744
0.025503102366186275
-0.02421407099750007
-0.01855596336094951
0.02358381119173019
0.035501167840134656
0.008420160655836124
-0.004030443330457619
0.010494127946696373
-0.030171011456292137
-0.009229937505051154
0.002291268317213204
0.03071624404684879
-0.030653888852512065
-0.05804307554989744
-0.05352985047253528
0.003629589602650706
0.034374944979001815
-0.01128951131789501
0.08624877570590879
-0.025969617219584153
-0.03681674561800489
0.0114405552697415
-0.020359787394341605
-0.011161565025529605
-0.002023166903061423
0.007170795247414939
-0.009921860050529148
0.08164704491794224
-0.0045048191371116555
-0.00572588305206245
0.025294662718117818
-0.0015392187351428357
0.011408140861695285
0.0011705555694245923
0.019223997078882095
0.02369445716453214
0.04797660172109065
0.029107527437287155
0.03437720603316471
-0.07728679754560784
-0.03521068658216988
0.030714208233677716
-0.05233478108803941
-0.00932439488026391
-0.036665346629437004
-0.009347989081268682
-0.024337401815494486
0.005417933283214766
-0.031246602053560998
-0.09560119557707679
0.008657823354699421
0.06329016456913751
-0.044876905926406224
0.04882239465240641
-0.07963966974287649
-0.11151326370461767
0.037550357667760124
-0.015732551110109703
0.0035967441234944163
-0.013508914209028144
0.024402545151963304
0.016862879159196875
0.02924325913443839
-0.04767748391866533
-0.022309095054963708
-0.010752194568894513
0.19060627243878672
0.08947703594880016
0.010158468077677757
0.04114769699341843
-0.024652377950534824
-0.02663883953065832
0.009459971123451493
0.022441809678369392
-0.030635899560878452
-0.000649943687805646
0.02189169179125175
0.07521431705784642
0.019863152567874937
-0.011624082570401094
-0.01356867488892255
0.03296040753912247
-0.007975831798412523
-0.017514762880251573
-0.0042087625550564995
-0.002334927341360911
0.0024880612013041354
0.020291785245705518
-0.012172130324290237
0.007291198203872409
-0.018854336897254968
-0.023095134689701837
0.004086470476908114
0.011489250102521869
-0.025299241276760493
-0.00832490897829688
0.0033726274181329514
0.014792298702639104
-0.1148287175890442
-0.05148954431744041
0.06304295319061469
-0.011196682077868213
-0.008165973791767983
-0.012626854319129386
0.02534422615147545
-0.02453169817788472
0.004426260432833708
-0.02949248790564886
-6.266117491746798e-05
0.023539613769088984
0.016965371053447854
-0.0006254722076463254
0.01866612876188794
-0.006960172515874827
-0.01439597207724059
-0.009107374220215065
0.0052276285395712165
-0.004951546065402527
0.02479441964710435
0.056733144709176564
-0.01409233033089613
0.0034013606524728283
-0.06678466241165557
-0.06578242076429698
-0.08258013615599655
0.0010192727040162675
0.006043599259499005
-0.004108973809476027
0.022080079291416012
0.007675135590201855
-0.021285721318364436
-0.017975277816910405
0.024929983826107064
-0.0005008259103915489
0.0577634309237091
-0.019678994111664218
0.025984046951105517
0.023691128412638946
-0.019792854398528098
-0.010413660604852666
-0.0030967429377425377
0.029857251071424725
0.003258121411531688
0.0064835745534219
0.0065852045946694915
0.02186462081714873
-0.017961605983654805
-0.044015838752069804
0.00919269580218174
0.01809586991526379
0.007789269436185731
-0.03220453036697842
0.016976260057207843
-0.0354307963797386
-0.00070185361801484
-0.039439408199866494
0.03473642679780868
0.1221962687471337
0.021464033650696657
-0.02755653244833956
0.13439585898733508
0.07569643740431524
-0.007712325370548797
-0.035186176696397016
0.010156406257648793
0.020349282072376004
-0.023579032530659405
-0.017228542109468333
-0.00993712378033265
-0.014817021824603115
-0.17691431480937167
-0.01586337315784735
0.04371293582024521
0.026153338715786626
-0.00912402819429524
-0.012989156056910537
0.12963213462380865
0.06903066252860206
-0.004640500404476428
-0.03663257291255517
-0.09406362724004788
0.024221037037285106
0.021782697776162794
-0.01579788771065023
0.036321922740813875
-0.05382624176843588
-0.10221793340827515
-0.026662410888267155
-0.021552209879451067
0.034347973647721665
0.04596725369518059
0.0015611661455590573
-0.021123557011171953
-0.0180430583560862
-0.015785082531350882
0.01847183893760562
-0.0031999303578891603
-0.022384805742541224
-0.014125883178547865
-0.05369928565649162
-0.02458856908723248
0.03738435417183248
0.03166298680324199
0.03240170501541899
0.0652764200467767
-0.030167835466803614
-0.02956557379180978
-0.07694762384749959
0.032875732139995464
0.022863114566054693
0.005268735584596185
0.02446861796277588
-0.018474371215641897
0.07238564991412623
0.10963325118420773
0.0018539249435184227
0.00516381967817266
-0.02133537199184222
0.026806870211274595
-0.016610561804635222
-0.0016735117408373634
0.01909851554566035
-0.039373848409914466
-0.009006157994719238
0.021217650055842863
-0.02170568569680863
0.021672141707581995
-0.07121727750335105
-0.17556294020452407
0.031407778801788
0.011908777199721344
-0.006062226449602165
-0.01091306360839796
0.0449253492368613
-0.001735222597728517
0.03539989807694961
-0.01765626737424076
-0.01930233589676855
0.019439798051042675
0.022688303535087988
0.003447037552582481
-0.024098878868700734
0.019391457927757677
0.10211718006820673
-0.01131570807612902
-0.002668982930983677
-0.004612217338784209
0.0002564972325330058
-0.02282159983343831
0.014686391288149907
0.025361894372981975
-0.023693683934091592
0.012442097848344344
-0.14102649061616715
-0.03656295973749863
0.02092280557266367
-0.013285716603785155
0.024049468508535714
0.002053848478967945
-0.04402989531766845
-0.01391821404097563
-0.026215975111392113
0.0064416270288385705
-0.010064190117596709
0.04423692694753777
0.013583919399665753
0.02676020883308255
0.027562529345159577
-0.007427746896831926
0.00871858543293104
0.024589455628931108
0.003583000289436553
-0.01610452229684124
-0.004228365784776925
0.07278094719448983
-0.02629915255989002
-0.0752125613502586
-0.014701066669864992
-0.003634772410847716
-0.01911682345875862
0.025297826885767507
0.017710522132604916
0.07524182520782931
0.04411085640679552
0.06726616818396419
0.021531639871173493
-0.06526043708932927
-0.03707657055594896
-0.0023567254475153486
0.004677016394443205
-0.038236656174748834
-0.0013308458867572622
-0.026216642033218072
0.02416976626201795
0.1358156710551027
0.022997152979492466
0.02831483084362499
-0.028671616163200523
-0.00916325537468782
-0.018039239174873118
-0.0015024934047203784
-0.016681115375891894
0.010891509108760036
-0.010976822144726672
-0.03309542630613408
-0.06013396187828684
0.012640414648707297
0.0325567381806334
-0.036265889891706475
0.0114968197455119
0.014316628253489413
-0.01185679866651551
-0.020049698079791612
0.006340537201828325
0.036138244996147394
0.010059088552137682
0.007058866406696313
-0.058111009629228196
-0.044206836345556624
0.04987369811771273
0.05193009987495458
-0.0778477531352369
-0.08534179580811234
0.05988950873331234
-0.03942132854030652
-0.021106574000074388
-0.042214223056721116
-0.005529387619412973
-0.04051271627636866
0.04870023129895341
0.13310677116430572
0.00403599980119615
-0.005062143481696348
0.010676128298883581
-0.0017996845986270231
-0.03241431956640565
-0.001039461250745406
0.0007439702630776267
0.018677168975121804
-0.0038623596120515983
-0.024896125012460094
-0.032895129091894154
-0.03677383885232801
-0.02803158159322943
-0.023750542108908868
0.015484466350939453
-0.011885966057228584
-0.03591763398871446
-0.029549774403367826
-0.02671328261247331
0.04421097576594296
0.08279120928448096
-0.0009319121830855491
0.16174701063103086
0.0909229393370413
-0.04850209626507131
-0.06328627924820004
-0.019710775552270535
-0.024290571772582897
-0.027535043234278314
0.018847038487472406
0.1343196529109675
-0.10870595356281491
0.027458214618607573
0.012007318492380735
-0.010732397194941082
