0
0.04295694501460654
0.004259461862974255
0.020047707118029168
0.03450045785007394
0.012001921901931181
0.03311495916245908
0.018443377736751778
0.02803333104283749
-0.03934705098643288
-0.0831790555565498
-0.13922718577156623
-0.049202636861496854
0.06227370736140214
-0.015368284163737615
0.011033328198443309
0.0013986891101410394
0.025625351553634927
0.004190344272726648
-0.015072010166431874
0.07908274356069106
0.014362733274058405
-0.07693633893307136
0.016177256815636306
0.007727638462181244
0.02094130893958995
0.018014577659311016
0.04792420856252963
-0.17350460134495524
-0.055818263896896515
-0.03598458020596038
0.02535489698979703
0.06782769966793253
-0.006498797127118255
0.007738631425520536
-0.001784519264206842
0.02887831580041073
0.0075210776582257475
0.030945024316916356
-0.002355129371767718
-0.0059213290685704335
0.00447663330914136
0.009436888016359566
0.014122298435221493
0.052132867686032
0.0007322339233483666
0.012064979120399558
-0.03252822452413316
-0.004995668244692541
-0.0040072658628939346
0.007564341339754035
0.08984536286844129
0.027246315148801773
-0.02037372125497804
0.04564769049011062
0.0034685118227613596
0.02217934713398881
-0.016974551960516563
0.16576613716325891
0.0381514123842931
-0.065944471086796
-0.01905211246781384
-0.007899822298016813
-0.0335385092921494
-0.017006636468781748
-0.020947155457638453
-0.06508360574065568
0.0073501958489510895
-0.09052970100892599
-0.07782585290597031
0.03160412654826857
0.0025670237038196205
-0.023253793104453847
-0.025917130833916655
0.0010522666082067277
0.0074089814766412744
0.007687713967374728
0.07283393792766073
0.02240449789473516
-0.0030728667416465593
0.04057113865887246
0.0373708420366384
0.0016591916445487162
-0.0013009660559744212
0.007171252754797173
-0.013283460799789846
-0.01406566380941375
-0.003009046368341086
0.003864583977097341
0.017224317224550034
0.06642805711411492
0.008310414760915019
-0.10294084984806036
-0.006841634839096517
0.03153248505723966
0.024661470218895868
-0.02668668468994301
-0.0948301134902141
0.0282719732943846
-0.017332537023690097
0.04144613231019645
-0.008780212026222214
-0.09108579399957477
-0.006570847484293367
0.004758502867887831
-0.012264173131589173
-0.006061745456680409
0.0040532068650969595
-0.0006788273814035564
0.01692080018514413
0.026408987208676144
0.009550583873777312
-0.04317914721242311
0.02134444892379542
-0.012198071580782871
-0.0222288962766988
-0.0001957459903691892
-0.027323976135597155
0.06669793886530892
0.008408557830456565
0.007755564815193885
0.0024847453072769517
0.013626606438011939
0.021880686333126037
0.04988235350364216
0.060170866870657966
0.02249559096112698
-0.008027064276319534
-0.16974186800330332
-0.020888208579964256
-0.018917859250097716
-0.02111286710209424
0.023722120941995082
0.02596738880747821
-0.0047156109505206425
-0.0020867014168493127
-0.014333352275849403
-0.0267602832710621
0.015284177672133612
0.009688312596301853
-0.018337275490234936
0.012804455772413492
0.05107373967735035
0.007107905429577311
0.023305753782327087
0.0032878845530812943
0.03945516482017061
0.010912930591833894
-0.011563230760157032
-0.005384331739129809
0.0016286041918555638
0.002178023307110973
0.020501991060161966
-0.0686352515203009
0.00244632285378698
0.0025648056268743726
-0.15219209408240766
-0.02402458513686305
0.0442491408822564
0.013785765362723294
0.009199524494898215
0.01064868842226672
-0.01905546290005542
-0.046432523015365754
0.08821834432598086
0.03736349422263641
-0.013076632804577085
-0.021748531823366002
-0.014207989712809798
-0.007403427673181642
-0.014019568279880478
-0.0013181672062153409
-0.019909053264656827
-0.0014993705253707897
-0.014791152883674417
0.032568747925838804
0.03185566024455711
0.037707308495143255
-0.009866222649506061
0.02272308299100524
0.01584181915282952
-0.07231265564507579
-0.07089532494231156
0.019188962528645492
0.05787401453917624
-0.0052022298070529445
0.002352192908956069
-0.0001909763534884085
-0.009864236260068049
-0.04494588947267653
-0.008835794751266508
0.036386701749934136
0.040307228636341084
0.011886547768908903
-0.021345969908090106
0.029374237069486088
0.11027057192213056
0.012799576675444173
-0.013603427813169346
0.06702147108793349
0.041709709552286936
-0.01069626557196628
-0.026193102390172078
-0.05461228363466433
-0.060404274847069436
-0.01720325802004705
0.0016000958492428795
0.02796154025900635
-0.03690170621816228
0.07993596918085574
0.08498778341298587
-0.04712416767736278
-0.01790778309809016
0.01575543883542098
0.018249980050561214
-0.02969376913544158
-0.007947922687909172
-0.007225913285145671
0.009194846663061
0.05157408696284852
0.041468751536193865
-0.01149715985410162
0.01585258013631009
-0.008565046037793697
0.0027654131615263097
-0.009591893405965307
-0.0024898709666821665
-0.0010041060177088967
-0.006394887438539597
-0.07036327693306262
-0.07440753090589788
0.01599495307828728
0.06373846933630352
-0.007035516701574581
0.0198607513148888
-0.015276300319346943
0.028672641244262668
-0.015730507521746567
0.009036104011209016
-0.07054548749450648
-0.15188522475914307
-0.011392784144559813
0.03394727328798933
-0.030877582210079906
-0.015865543776105284
0.04254350816840615
0.010552209957863452
0.005638715135647545
0.023281209635336076
0.016675188033356665
0.01363314883444567
-0.025160737636747296
-0.12919259504906186
0.01781247651291884
0.004538408864828498
0.0019878271189495266
-0.07460634070102574
0.03259661605317033
0.034674903668235786
-0.017489038917414056
-0.03845548469646911
0.004895029080627012
0.020028220869405682
0.024218963451311023
0.007387846101255078
-0.006070862049668704
-0.005805165119351824
0.005426297507249293
0.0755618245909403
-0.002046116822343778
0.04205322866682588
0.021133646004566718
-0.0072187097484054125
-0.013335794463121123
0.017748371288569983
0.03486924920848733
-0.03563645287048285
0.03506926600110644
0.011898785938335167
0.05740099381314405
0.027412198906587557
0.023623040724486104
-0.007912198711942691
0.021414592214786594
-0.043577837421521916
-0.022996370077338433
0.024946912925071438
0.025719932963968177
0.013699211832942274
-0.026917602607299373
-0.006056151491743665
0.008784829086319165
0.005607165953561296
0.01799553946157576
-0.0013982258684345366
-0.09037051565227622
-0.013542758998281551
-0.006512913954959938
0.008049414483601516
-0.006002573465646565
-0.0031990278881308134
-0.005843636007692916
-0.010355008847386738
-0.010498446151952001
0.03726652941140112
0.00040601407276268374
0.02702147261634831
0.012910091859836695
-0.00723513152495535
-0.0019022535305091056
-0.17852440865731253
-0.16819148791335434
0.04335008412158164
0.007945841437828111
0.029892636905411652
0.006818890404624262
0.07185521895060068
0.05553855879108477
-0.02527673516586016
0.023722578843945956
-0.0022793684047698456
0.0012180256240113744
-0.008014670834498793
0.0027050513275734336
-0.011035583188660448
-0.019864613652861792
0.05215475037655024
0.018316783884009213
-0.002479844111645638
-0.018619201358003046
0.027083415946261163
-0.010221103406427876
-0.023981042448763038
0.003692300459305324
0.015848977524907683
0.016879705899858048
0.007198611520427588
-0.012866674167803469
-0.0015251636035319687
-0.024740412989295586
0.018604557026457743
0.032067583755591066
-0.05324148737390542
0.03115654468350913
0.03197698519727101
-0.014661586054869362
-0.024261897249543484
-0.009324540492196349
-0.012976100716759097
0.04672265755862394
-0.0037750400220302534
-0.008397782054381903
0.1006755390346356
0.007265468209025578
-0.010625394925049096
-0.011203207022121003
-0.012117115090019436
-0.02473272120770324
-0.023107113165396077
-0.04636037663324041
0.07437442961591267
0.045126206182359956
-0.03954664293869046
0.007163315098504389
-0.001136644853963774
-0.009098994268739316
-0.0009439477792934332
-0.006757747896096582
-0.004484078964421802
0.007416679815654182
0.018028554717685975
-0.0044313779344791245
-0.02060786574474329
0.017631912894159187
0.012895907480939727
-0.011963761488544994
-0.03507088772819482
-0.0008617021442898121
-0.01697941571611987
-0.0055931802241613975
-0.014187337132287902
-0.004980737286286618
0.006057934189201943
0.020745325092622485
-0.03247051371641241
0.004113006413637785
-0.05229266701503576
0.07162413324187232
0.08472713480703395
-0.008628236550905067
-0.013330301195255462
-0.005034296840083232
0.1123333496093836
-0.03493762750939808
0.014408883170872336
-0.009510355262033207
-0.04852941461391742
-0.015518892332772124
-0.008595491906871576
-0.03636687261479425
0.012047218267354772
-0.03534085121511105
-0.0235782974747489
-0.0345144797499694
-0.044611235383979486
-0.025640530732404132
-0.014299399332651693
-0.005806683431247576
0.01798461683412384
0.016535022026698272
0.03775440041172968
0.030237089522026046
-0.04138367269019599
-0.02686722447452478
-0.015703909202690096
0.013587851294020138
-0.018277774401889997
-0.03506455087668916
0.023366757413731502
0.02814390983150225
0.042626148610572644
0.09875333735259255
0.07808380120934971
0.05635197418776278
-0.032275067013741075
-0.02781156606102703
-0.0311931270957169
-0.02856021253117238
-0.02337200901419979
0.0004990469112528037
-0.02154260772575755
-0.002707860537638348
0.007732469398611084
-0.01104924545557062
-0.008541424205580055
0.014569898090593981
-0.09935604755667322
-0.03125316536823808
0.01717507982658684
-0.034677671608866964
-0.010402748678437724
0.005293538900047168
-0.008709525299571873
-0.021584621166390105
-0.01644613806910576
-0.02403625036802331
-0.027283333305766898
-0.026500253237084916
0.10282007229890174
0.23959158655360088
0.11233448137063116
-0.013141375846656986
-0.0349079637055567
-0.005438656576446934
0.05835720010522495
-0.03571179281226816
0.011622850360013674
-0.010149406565020246
0.006825021810079227
-0.017574056414470535
-0.002256548722754394
-0.0027907186984200438
-0.004799669589423125
-0.0013111492433424945
-0.01887738614675838
-0.02737533072146024
-0.11105613446535931
-0.06154867235301768
-0.016618625554988564
0.12357100710114614
0.01878148146384273
0.009419426074619555
0.03822254763199638
0.046919469588958033
-0.010722195678889091
-0.013003417859691068
-0.0030924558107235933
0.010568457484988966
-0.05759491999620506
-0.02249969064605539
-0.0015934133109654644
-0.02125010902952441
0.0012212197449020165
-0.00026013036391683825
-0.003374630147727017
-0.014019859255224377
0.010189041763549251
0.019463332366573514
-0.006790669167143535
-0.005079087108599722
0.010394718118769993
0.03624955553942511
-0.024792691552772497
-0.012017708226855304
0.009533533668177508
0.0406576720342636
-0.07171323725335789
-0.1093243531082997
-0.026092212393012515
-0.012650890810615585
-0.011135650675029005
-0.008463314433263478
0.02594607781377677
0.03921661364612366
-0.014593714635108574
0.005478310957442667
0.0460379051558607
0.01455095658067783
-0.013455151238293038
0.020954885720562186
-0.0904221852033626
-0.03157619477861327
0.12379393570206337
0.0159698084515635
0.13868025118469665
0.08418072406782325
-0.001037581341718095
-0.002852317379018619
-0.01213998423580845
-0.00040929184073051954
-0.00041635118818486073
-0.044672170948949215
-0.040144678275352626
-0.00321503050538503
-0.021358560886694366
0.07250588401754353
0.06523724941110029
0.01980793768241075
-0.04277161226557001
-0.13439013273715802
0.04991884182739503
0.1010197448868477
-0.04207396574511565
-0.08050488719613937
0.09788230648487324
0.02289599860607304
-0.026723138877510443
0.016835700131510277
-0.02658540668509401
-0.16220750941688802
-0.015789116821468992
0.006601903877834809
-0.024230548368454147
-0.03668901495910818
0.034008782789748934
0.02639415771134136
-0.014662974263227085
0.02753024955258951
-0.08548957820443907
-0.0972770343847029
0.02805082397817301
0.0015498531244638371
-0.02453875296594885
0.008504662786433956
0.045615764910132583
0.025403089345009306
0.015187997408758187
0.004984172323541485
-0.0050146273209392255
-0.003075444881193024
-0.0054630507848323125
-0.0011083600711578293
0.03192231678295737
0.03750300496991857
0.030802437988511337
-0.03965995933793045
6.581323410036019e-05
-0.033264241334150284
-0.007654311631390314
0.01730466597214016
0.012993458680629916
0.05300660169606149
0.02783381734124466
-0.009482239388880967
0.01764207380850003
-0.01644257706170799
-0.014950258204064728
-0.005869684877730964
-0.0014031309623772073
0.03411959086956987
-0.03245697495415418
-0.17674312594817304
-0.0370564335347621
0.11018884380810805
0.12247038203812483
-0.008021479836151478
-0.00507287853088684
0.027971250250189386
0.020841505601592033
-0.021787264342876835
0.038730917437958624
-0.01971599636591556
-0.010254164732553077
-0.0597212196372913
-0.02413809728903473
-0.042436529422597194
0.041896853827821705
0.04816126568387137
-0.0054733260505252564
-0.022782492275564465
-0.0415046374150755
-0.01832515092840095
0.004471602479762158
-0.02826653972458655
-0.014480820651664277
-0.016523615435939196
0.010179375730139951
0.004308471641250348
0.029974268744190253
0.12629806241500688
0.04505365534538388
-0.07194690552449609
0.05955944892374611
0.046780298713414055
-0.04258437800575052
-0.025260772710641654
-0.002864639085231024
-0.013679895792508365
-0.021294439883559863
-0.03885895749601626
0.007769579961494424
-0.005762833696457567
0.019863767278011837
0.0828369358132767
0.020925231917023387
-0.06896288456147812
0.008093873692845817
-0.00946582369724788
0.011538623573486536
-0.007397861275945896
-0.0008443613936223207
-0.024206159281786335
0.03664576059901098
-0.0679839372445476
-0.05858127634894204
0.024043798410877847
0.1722743879508889
0.05895066570817116
-0.05364929984767831
-0.019258045917215284
-0.008673966615634994
0.015338354927848963
0.020670770605787113
0.007483160464357629
-0.004618260927518608
-0.03029299323464552
-0.0589503631804472
-0.029987164588495787
-0.023353834605242145
-0.01972652887139308
-0.015807777663324876
-0.01597419566907656
0.02063833507194508
-0.010975941234597135
-0.015554991805366621
-0.009490589104054021
-0.05661705559108269
-0.08098150230357479
0.016877473231797696
-0.026129370077607426
0.03097247561289814
0.020641567524284834
0.003454088967913658
-0.0017538456419561627
0.06657251247479629
0.00937210604846151
0.11999229903328636
0.09670088306906544
-0.007442100546942203
-0.0260551223712824
-0.05062847454896571
-0.014661312359613326
-0.0383031427924069
-0.006942639642465998
-0.002162608681598053
0.0257017793795015
0.0871050258512458
0.05552996728814813
-0.021634117360247472
-0.014311364581415213
-0.08346410766640781
-0.041119788629838484
0.0031577996911207533
-0.005517924495089073
-0.008056374283338443
-0.022829348832674314
0.029646141034342568
-0.01826255276179648
-0.039106614868293844
-0.021531136451171492
0.029215267402592355
0.015489625362512258
0.01744644411859135
-0.010287019275970142
0.035808441259953146
0.07786934064885843
0.03997482933355423
-0.03208543768427944
-0.013326917151243971
0.05796581527526893
0.008429952011840332
0.009916159387379686
-0.022707169253471896
-0.004055316364385791
-0.018737622094104255
0.004195915058145958
0.004888216250789948
-0.0045781381793931234
0.00933791751219327
0.009202489434235399
-0.022751803210987992
-0.03006873929158808
-0.015411707955596557
-0.003653479022683053
-0.01734783138171948
-0.027662388955887827
0.0176271465275401
0.02948885731468035
-0.02828512597587973
-0.0019132832511311833
-0.04226334296092334
-0.04338508312492921
-0.034889671561860285
0.03175204857930164
0.04556051388485621
0.006213278873702897
0.016294746467106193
-0.008834160917513578
0.040418482327555495
0.016756928878037553
0.03170959180471999
-0.03402116030007267
0.014404286336969885
-0.007050245707831705
0.007822385282299577
0.03114269808762773
-0.015515490213493154
-0.016358394009156924
0.003430293912079317
-0.024642484009575964
-0.0014340869128847181
0.0011947580336807504
-0.04601097420846757
0.0007078637021750385
-0.06142886637537124
-0.019168456934114633
-0.010612839791808222
-0.054222669045051027
-0.02752249937398655
0.03521256871933725
-0.030499899340860066
0.01979321062778143
-0.003480354036402979
0.015874576943878418
0.04102216000584658
-0.019383179548933566
0.12413833224951623
0.1229018852406047
-0.030840653461787486
0.04518215794651167
-0.03539330684208894
-0.04763417784637012
0.008519133991278644
-0.066653863888966
-0.05448510752090279
0.019612506311410895
0.015796039695199555
-0.004039537114680173
-0.01702205070824156
0.015142377260080355
0.01604603520805397
-0.033328057696248546
-0.045603851039939275
0.0005883076655481398
0.015401813525981108
0.02885681653928445
-0.02238471325514461
-0.003015236238251178
-0.018645795088619754
-0.02626752512666672
0.007762335500969856
0.1705138849922844
0.02018530267895203
-0.013911118442246358
-0.031086592980448566
0.013274083331328223
-0.008104225515228556
-0.012644786570249845
0.010972617875739844
0.009992825289949396
0.01208664327733802
-0.009004300613112205
-0.021532149207647653
-0.004498813053339887
0.0011657954344527555
-0.019282668619749022
-0.011271347688240289
-0.0006953872147512822
-0.016618877382402534
-0.021969984561377495
0.012556256511893996
-0.00122302281641653
0.019478092964608326
0.049582869106527185
-0.008672494875066312
-0.025090295682264604
0.0168049646069986
-0.004237066245075479
-0.0029538195091013894
-0.015059122875704297
0.05137911360950017
0.07640217247408669
-0.0061656067124305595
0.034574702486401085
-0.011770655303551777
-0.01483476066551232
-0.0066630940922162
0.03236086805900385
-0.04393927714194317
-0.047297343010527446
0.015468755353998625
0.04756835724807647
-0.06371477645853804
-0.05701314342889465
0.006524638029223549
0.016802415734378195
-0.039942267075033365
-0.05396959721154935
0.06617347092412791
0.004988662862851977
-0.11357211607392877
-0.11319010334084263
0.016514288312935686
-0.009054501085005355
0.050727428496730995
0.018552885367971804
0.017635133869518434
-0.002159089503131543
0.032597658811106385
0.012816626394613706
-0.029753166967023896
0.025011858316074855
-0.059395411470140956
0.12908380978666187
0.1327029820067391
0.012948512008393724
0.02393603116155154
-0.01882550103358611
0.034788388353034605
-0.03278059225317988
-0.09073230703158144
-0.009637561716027785
0.031860923456732006
-0.036424073987579214
0.012211758085440913
-0.041834365944737564
0.01729740438112237
0.02608923683612371
0.013919576605278386
-0.010769589574638616
0.006917582814405534
-0.02454320532684879
-0.014830273216001397
0.052007450885888235
0.020776275641447284
-0.0188227690499034
-0.04327267483167942
0.005032380183312815
-0.0026162757717234602
-0.019136414469986592
-0.018265790159116092
0.0168166536164937
-0.013250145012570215
0.02307410753857134
-0.0031079888678168534
-0.03630931762999894
0.030699128546172787
0.020456359090875283
0.06385413720072994
0.0112554548902898
-0.07889130325219042
0.010651778175676913
-0.007203230886817123
0.041720542623108946
0.054518518771299554
0.021693203336910452
-0.0738047029224236
-0.022587187665897148
-0.1702681776930407
-0.07126922014576673
0.007240189257980471
0.0128076475233163
-0.006040867762883144
-0.006984427818520775
0.0523278821025208
0.043086610072306346
-0.005179855637367593
0.022855858867706764
-0.005369322374155079
0.005352733485584846
0.02385296851413333
-0.0011347620310600596
0.046992228605962985
-0.002915468202854986
0.016219952504319315
0.05962292962446093
-0.026321507801169753
-0.016157772699759005
-0.02305411348384885
0.015344313119213922
-0.05197828497993814
-0.08631103563028232
0.06377789342478489
-0.0836187034537087
-0.01397354560885195
0.15117079060349312
0.010541858087024937
-0.0011863764834570206
0.01025745848803728
0.03877003045799701
0.01945994799689161
-0.08191612335247234
0.1128760896482073
0.08718876799911433
-0.06345805838558287
-0.08377831831345141
0.037515973238399954
0.007263284910763116
-0.008117349279021283
-0.042110476484459425
-0.03871644936439827
-0.04801744005395046
-0.011775552434987561
-0.027149712609049338
-0.020338154813331906
-0.047421892047626986
0.10648688199601379
0.05850684089483716
-0.017346382321843285
-0.0023281930214058087
0.007323550965449516
-0.01267254756851545
-0.0026799071861445378
-0.057516912469003256
-0.02128690711420838
-0.007543467033624356
0.027088643424203654
0.042311504631685565
-0.024365642850174365
-0.01933672393089054
-0.0221113686710347
0.028820304139332658
0.0395203694885418
-0.005502445218012193
-0.004964169711421851
-0.014133010597928037
0.033102309588139006
-0.02709218833637133
0.00914756066725802
0.05905932472459616
0.028558842453346243
0.009621293068076579
-0.004720292218472051
-0.05935204056155834
0.10658957349322776
0.049454952459604344
-0.025468940599764935
-0.020283968848801327
0.038040115884665444
-0.021835678252827513
-0.015196756293990666
0.014650741183405367
0.001942022073698598
-0.03445859308491903
-0.02581248145096983
-0.007617466074259118
0.009520017477137955
-0.016308495403011374
0.002082582809182237
-0.08017303710620971
-0.0436551571735619
0.03220302803841063
0.011978788610029798
-0.02550380596360716
0.028812381202227868
0.06613900267439658
0.022716553572122516
-0.07508015898302262
-0.02584532421902539
-0.025668791611051855
0.00688297824074979
0.06096113900016933
0.008279499445460999
0.007964308689027932
0.04800321384833935
0.042947290240054656
0.003591677141150004
-0.00846750557368567
0.017839854685677878
0.031265217624264915
-0.015633092374484212
-0.001201931157436098
0.03552486938523158
0.021889774655811014
0.008779296930196327
0.0037818529169874617
-0.007431713595152022
0.03190543196018042
-0.000275378272844277
0.022105086228008247
-0.003994591974545841
0.03295512749388143
-0.14755396206353874
-0.10643469744203038
-0.009282041956379458
-0.15017828311197287
0.024270477111766206
-0.1662396256895618
0.014082502446780575
0.02857938546921305
0.010867712712267713
0.00238332927777293
0.0011625340238209248
0.008049440746769396
0.01655819169068459
-0.010674364359916958
-0.0106097675194461
0.0001941206321206294
0.005163445561927622
0.029458422960454304
0.0028383862127031355
-0.028720623617419002
0.008870115077785594
-0.0052256881643208
0.06663659312300627
0.05500877829964081
-0.006297706015347353
-0.00566915381473161
-0.01504985299517955
0.02713665073142632
0.0330670363156071
0.05467499583136291
0.030126316858841935
-0.02427423158228026
-0.04713280946840708
-0.0036349458208052286
0.05377897192980534
0.031578100388733855
-0.012627611558094729
-0.0030402728687548585
-0.05809270527263888
-0.020777691961121923
0.01791819720603662
0.021144154622408463
0.06892620007177312
0.004444612982451659
-0.021143300349849965
-0.003220608244743292
0.012417796999041011
-0.041004601555527785
0.024775135557261015
0.003903634545568171
-0.02963214936082575
-0.011913938124799562
0.0014040958173228606
0.011396778801030677
0.0076646510070925425
-0.025343971143282067
-0.013667730768272232
0.005338229193079984
0.01477637082407562
-0.012527737727845113
-0.00578889905692794
-0.04097947856746301
0.04574106060418688
-0.017059653042001095
-0.006613029624238888
-0.00472983825371237
0.058258861698193824
0.028738846919250355
-8.457005882801537e-05
0.01684132509538665
-0.0008797826386756758
-0.012797948892834728
0.02050501013904845
-0.012926231106201351
0.10170577976905172
0.03168024968935564
-0.017647686893369142
0.005634418941711536
0.010290507141011452
0.01441636434966826
-0.031247769803585138
-0.007193935665444323
0.029179855965408782
-0.0017965802316794578
-0.10114878453892714
0.03990848241123462
-0.1110921465981398
-0.00731573412419251
-0.01533502518145393
0.06366996585881218
-0.09181045517408937
-0.17734178301377243
0.04877142259151084
0.04034931389130558
0.046175795592065756
-0.06649975201185597
-0.001231901922963539
0.018320143367506883
0.005415339464890832
0.010273336482163997
-0.0022590475942081073
0.016257252703591303
0.056143588606182626
0.03841406948064329
-0.04176879304273585
0.008445392597403683
0.011058349151670496
-0.004688389425742618
0.04252522712218622
0.0021368137179650104
-0.016177576032498316
-0.021670740326472468
0.010659294727870968
-0.01703289328198647
0.14835518491837033
0.1303329339875708
-0.07826517570473371
0.01063377549450141
0.0002501593945231251
0.037050788554394705
0.029973027486881253
-0.02700666274750076
-0.16591200041787404
-0.05762682183620705
0.04739246254020302
0.01286328767298598
0.01228157837612361
-0.05863314298232233
-0.143392522954499
0.05120920763046884
-0.02794923482591405
-0.16641036454864233
0.014163038907758536
0.016472573736627406
0.043202244720979624
0.00029070692314699846
0.020018172856989196
0.009163753021655391
-0.01648966922077973
-0.0008929187833947151
0.01694352461915222
0.01866109922145914
0.013224116585424422
0.13030218103673438
-0.01394257114623585
-0.002281406807846198
0.02938002251775036
-0.003759659459422346
0.009404664869601315
0.010500931204108005
-0.06491993420416688
-0.04291394338209933
-0.03385701263778966
0.031336879539295016
0.08612997962727713
-0.009024204753993532
-0.008954678139954018
-0.01759194703695326
-0.032743551887438105
-0.014216760401719599
0.017585431726113803
-0.0033295838478240784
-0.025081661997971995
-0.02794294407884478
0.09161368675318396
0.0863057842221788
0.007340895923067048
-0.011764358509288747
0.02079450379348357
-0.03806558635753294
-0.03164613012516662
-0.0029158019155907633
0.002606876346184341
-0.0028239636861093083
-0.0007234015477082168
-0.02060483649766459
0.0538869369799961
0.1366852567183807
-0.028274798634347627
-0.07456652546200256
0.01143400092116696
0.05004100382743198
-0.0012345167244735653
-0.005118010322172934
-0.016664711128676065
0.021282447765082715
-0.018747368312249144
-0.0010406290728373622
-0.005304781663871407
0.018317405333576422
-0.007920196132281187
-0.01201268916099789
-0.029554250663996882
0.0053557309980186915
0.0022592218757906133
0.006251141872853808
-0.06483154950375827
-0.015062068010055446
0.023376924546361567
-0.019249923373934042
0.005801765191841944
0.04686902351292
-0.012765533275351194
-0.03405006860606199
-0.006836802305034243
-0.013329786851620586
-0.017709158075435334
-0.014126909429948294
-0.01852864970470977
-0.0008391920601625669
-0.010737394349993296
0.004285942478294941
0.020178174706665643
0.03020471671877812
-0.0009753844704449272
-0.0034741805853548496
-0.004959052158313467
-0.005860063379206971
-0.009866282332848354
0.011949644888259198
0.02093600032551615
-0.02529626018226836
0.002736947924109227
-0.017090156523277014
-0.05062463146615032
0.036324399993890644
0.0026081115143102504
-0.0016126209793116521
-0.02577616406358131
0.013374147022263522
-0.009875072302633113
0.03593275295973183
0.06509396726854659
0.03828100499598805
-0.012559942721818138
0.04789273295205889
0.008392502288415891
-0.03211477522553768
-0.02028953087865362
0.04786758873299579
-0.007591387583289264
0.01009588493905139
0.00021741271461724998
-0.13157083117737642
-0.03800142827481109
0.026804577135615237
-0.013548478805869138
0.0038936446488686107
-0.003968630278961894
-0.03332416152364321
-0.004979445061466838
-0.014168950500138128
-0.017208986919474523
-0.05392872565584343
-0.012337061733521266
0.008170025628246865
-0.032960158137329595
-0.011253282426373553
0.022881208410897844
-0.007419600471109781
0.20546474487377359
0.020763800154755794
-0.03837149194527133
0.009989798487059708
-0.011868024988106407
-0.0015016676501741844
-0.026029443903628015
0.025158044321009067
0.013143790354165814
0.0376712296553459
0.06332855255599473
-0.03285603541366538
-0.029807374387119265
-0.06518178600161678
-0.0376422931285557
0.018772165093980674
0.0523231567084841
-0.0006235173463282361
0.12401659904143542
0.09529393389494219
-0.018808225796546615
-0.013606961471100736
0.025174598343414473
0.0016889656534127267
0.008588533379347155
0.011066580729977809
-0.019235961992719895
-0.047425585696871254
-0.019779628447406824
-0.02467302400347584
-0.017258278864311985
-0.029452182058674236
0.0035101259251550184
-0.018529393778136432
0.020865213622016363
0.01791994455270042
-0.007757243801780488
-0.017015619549257968
-0.08882405729220488
-0.012594178464474248
-0.0033364139816081666
-0.05245187396086939
-0.029479191824142537
0.0033391925739878576
-0.039812045486320315
0.042915585113558245
0.10600448038423321
-0.027265678504370304
-0.01145642970085846
-0.015532810107604957
-9.68465699649611e-05
0.03867298257659121
0.008993878328923536
0.015769937689544645
0.025594647092342087
0.0023294598658711533
0.023545760440362613
-0.016054637745639814
0.013783671826777694
0.011334444591738435
-0.01921544605838768
-0.018484738797642685
-0.022175620646856735
-0.12730092519742206
-0.035199542558411866
0.03691191757952724
0.022111301044429408
-0.023689738100108704
0.012949886280149314
-0.025881730003503647
0.005343278994930117
0.055584160500863684
0.032033795525206625
0.04453777522686911
0.03337482683493397
-0.04976014055527162
0.06238737406929138
-0.0014230695053777792
0.01804956396456925
-0.033044675488233775
-0.052777594809358425
-0.02773866018947014
0.0014274880912314432
0.002607491955705131
0.037585919056762424
0.08418576439111361
-0.005916515759292109
-0.006267344824064952
-0.01137118128003672
0.0023020383112144693
-0.04825249374864523
-0.01481542443784847
-0.011445373905355867
-0.034294040973043005
-0.013582607800168456
-0.008655364156295604
-0.017473207985084536
-0.03400641876326016
0.05850207657467286
0.010656207167024343
-0.0042233276884164105
-0.0013763372845720496
0.00477698468674061
-0.018792304117274998
0.03316344090078589
0.10712905342476646
0.005017001798158167
0.013775414409458224
-0.015870633009220425
-0.020658995109935956
0.030913930030718725
0.0012985715742015109
-0.05080929825667738
-0.04379318574217052
0.0077504143781261985
0.01816304519237875
0.07278573282266604
0.014022493485599193
-0.004840149918725201
-0.0012936350032649382
-0.01006420708889769
0.009529548379788295
-0.018268084026221095
0.0007354887719192451
0.018878102581912443
0.0009557596020593028
-0.008938999424515755
0.0004035163308401384
-0.00910485302216624
0.014667070971897124
0.009660966119445629
-0.06331357082454106
0.010091834291902633
0.00690715484712235
0.0428651386909054
0.001951922801052045
0.01593473506301244
-0.015643305360358663
-0.004577542516974464
0.005147445191222375
0.010484581320366436
-0.011522835815930835
-0.00044482136881982313
-0.01624176418054002
0.025249478785120492
-0.14370382152340141
-0.11035357487657287
0.038319531281947365
-0.022250520366032287
-0.010299596899226366
-0.012199405371438704
0.02018725993652439
0.005586350339630503
0.03379335527676981
0.0016196273440903723
0.0429837449813457
0.013054244871684915
-0.04966909113706866
0.034137178976599375
0.03924562483891603
0.03380529650127883
0.0014883248333813102
-0.022766663619211938
0.0024402141489595877
-0.011842128802294629
-0.01070343968221823
-0.028712159495363123
0.04643894329198205
0.027864116740742857
-0.0315004861464338
-0.02119706359457559
-0.0024724145090174224
0.021535483000040608
0.006154673202684261
-0.009501743711947865
0.00466795375251604
0.06780256815869747
-0.10867123260840619
-0.013496905184515885
0.028672834817367925
-0.006323466990373572
0.012611335001090903
-0.01220913445530475
-0.010240185110568536
-0.04402711040800852
-0.0008542807286782784
-0.010316027121890649
-0.007250156014712083
0.02669282193061698
-0.01141059217673389
0.028590046719231862
0.05413670874463556
-0.03515638344052834
0.00022452997464739245
-0.026505129063789774
0.02901288101658453
0.09004483449704517
-0.025695841838922852
-0.05379167480539116
-0.10915346980782716
0.010287489131242918
0.04233969368181748
0.10206132958316082
0.04246150181073439
0.05701030325447961
0.038017489748979554
0.0051108139864105085
-0.032421974868374726
-0.0032587466807681765
-0.014462918968472158
0.012833372658382497
0.012291416735337323
-0.03052201349769985
0.0018729062966140334
0.00469463156266701
-0.01851177140826416
-0.01906698742317009
-0.03833953787457845
-0.016950537580876043
0.05852102107286446
0.027454459805245225
-0.0033856233668387633
-0.01879880810511141
-0.029417527407371434
-0.020818596165533804
-0.0005958367708080824
-0.020403261560468604
-0.03322422239127743
-0.018502901799240717
