0
0.03603897907246841
-0.00336484527080464
-0.03215963941454628
-0.011246797745034112
0.02294036473436541
0.023024804385301464
-0.027055036927804036
0.024711208306080115
0.009647700185967702
0.0179556495761803
0.0008196043236884182
-0.010049009387576942
-0.06159226800507172
-0.0384350997483915
0.009461928717084324
0.003866708829394271
0.009693279249163479
0.017313099566973845
0.015036982870797137
-0.006814191404130108
0.03649088778706015
0.003243322606506109
0.05057531148464281
0.0948561571585502
0.0902598361222439
-0.14162387362420412
-0.08424789057957292
-4.674264305240875e-05
-0.018661321781383623
-0.0058948721143662446
-0.02371366348709119
0.018562846856328308
-0.03262362460058504
-0.0494132238457856
0.019328766721826564
-0.0014614385231108847
0.030561070875249344
0.006907669239982463
0.0021200835213640297
-0.023326318448898944
-0.021998812794720737
0.0029051422592584137
-0.029035779805964286
-0.00034459043829215906
0.008103813207701174
0.025550384258721182
-0.007881684606880364
0.04357972033798569
0.0049062303949521146
-0.008884859659294085
-0.011358252358578498
-0.005703212335735854
-0.0206848582425756
0.002168734055737466
-0.00841356761715291
-0.02164707738302932
-0.055555371365490255
-0.0570482971178446
0.008831775156017822
0.02824838680520086
0.00825772051341154
0.025406396988280323
0.07030920629430071
-0.0004890471415260602
0.05892721860477284
0.025748639957718693
-0.013360071497603153
0.008252755135459073
0.03871548162519097
0.147061913079158
0.031277147275701425
-0.029495417643105225
0.004038606900306483
-0.0003425579907536547
-0.00584242664492034
-0.0794501482576129
-0.022358119502544918
-0.009080861657830779
-0.05036594064140065
-0.02850583372155262
-0.02702240221570699
0.011490592596639482
-0.016497743280762006
0.013078906524030345
0.0016627170319164504
0.02870315343108957
-0.025701942685706865
-0.00137224088096992
0.0070488413929401545
-0.001917689867913627
0.028999090747025863
-0.009244690770967127
-0.037730520510947885
0.00551046093190634
-0.0066382450343140074
-0.02409930047691745
-0.005669918231481198
0.0042201170585257275
0.018907250886209773
0.009123493295016757
-0.03012586177393681
0.05073764364542936
0.024144160545676602
0.01709086143395133
0.0035532973813328012
0.03369713987262323
-0.011407766477182387
-0.0134727857762943
0.004337284773720473
-0.015098910104254825
-0.009278076183640715
-0.024835236027332095
-0.009520635105992575
-0.006420910462519089
-0.005809043013899216
-0.01272795681024205
-0.0061864316836469395
-0.007845562092715854
-0.014442344711834776
0.008089013863198774
-0.004903886427653304
-0.028407815703217317
0.03981038587587246
0.05365055802845843
-0.015262092844204458
-0.012254415729080344
0.011851436738727341
-0.0012122997956115406
0.0007778732434404565
0.010956630784837253
-0.014415308892380279
-0.021467702038927422
-0.0278443113925974
0.021284179546896077
0.033187354624456385
-0.008821955386762505
0.0037708244499778626
-3.6273495875434555e-05
-0.00973008471888343
-0.005971290225712001
-0.07787940632358561
-0.037190564939041514
0.02953248846431524
0.004106538006548127
0.0024354395473171436
-0.015565109338087746
-0.04976348881189391
-0.011916635261865786
0.012654971068089054
-0.0090095331445386
-0.0006735893077263973
0.055515267684419625
0.04026008613308203
-0.01469222369184067
-0.01813117968899613
-0.0007123529557891508
-0.0075531933009423255
-0.032953936380776046
0.014059167308388335
0.0029942530530087975
-0.06614194221747553
-0.014180114912639244
0.03859916569994996
0.05000200855907468
-0.039229373369803124
-0.007711346862903514
-0.03015402769250458
0.03906252157084183
0.010263558467378153
0.24892649867865652
0.11640570999716066
-0.027192680445044436
0.025013210895875857
0.001960205737311359
-0.003928346843860723
-0.022498465831336335
-0.0063589967899495385
0.03372783263033875
-0.04595991558401046
-0.03473524916655034
-0.006986873882771247
-0.007911199238045579
-0.013782498012360351
-0.02858972447848297
0.01761118926979349
0.11315606533737618
-0.03830776143213928
-0.04856283557088858
0.04875808346261423
-0.02889842498600978
-0.021392636991106783
-0.0021150596101838486
-0.013710058594442515
0.01267514343894895
0.004613656600229413
0.004267013985220992
-0.026103954061549344
-0.014916229651952296
-0.03704278096680764
-0.016888858755024234
0.01857326900386274
0.004942995176741847
1.363535875805391e-05
0.042512576405213644
-0.00025671818736794203
0.00708031711688242
-0.013515967506700933
0.015813356691039095
-0.1615460411248424
-0.03887942121563623
0.0110036972544716
-0.11779840617222032
0.05088206858544994
0.05108392564357866
-0.0018631870291817673
-0.0033028845710510154
-0.017758786942134498
-0.01612736674746935
-0.021303701609875672
-0.03691636817277375
-0.040329630710891136
0.015440221047533134
0.021806941990969483
0.0080707966582868
-0.034842712899950515
0.05862914013365535
0.05468950888413272
0.00043566236274029794
0.01719708544089206
0.009095041420946562
-0.0004174691447165503
0.030239764923940732
0.0074871999644195945
-0.0194223724131212
0.03607850133308636
0.0346782123881149
-0.013127071256959805
0.004508465731590569
-0.08708857032996943
-0.07448264284259525
0.012536101501230124
-0.030665313537735037
0.1850667156919523
0.024094408278208263
-0.011370334657823241
0.024097998556824676
-0.028097089824142555
0.014040203016264147
0.06253124842291964
-0.03562900619709982
0.02790459803441096
0.052362878639945785
0.008614106830668778
-0.021957455413982044
-0.01187876929099156
0.006917420977049122
0.015041620694331865
-0.031393203867997446
0.0074279542842282794
-0.04149101286260698
-0.04186472643494161
0.042816042890863944
0.017658153733883495
0.02875340490207909
-0.0039007294017197325
-0.02747024464143655
-0.03129211625457568
-0.017477977794364948
0.014714088070766377
-0.004814848070703804
-0.033830839884407306
0.004464392242424526
0.0018871716230336765
-0.013888726030484584
-0.011106109884519324
0.034062071468857924
0.007021814985119822
-0.0002346904565985427
-0.008560660467781063
-0.01759311877816262
-0.00026708020563827984
-0.049619255777494486
-0.010270682797964097
-0.0019997783455033
-0.02616552771578731
0.01277166344619022
-0.0034966008289397635
-0.0451474407958246
0.02889012704352245
0.032644708083286275
-0.00046187572010348025
0.003096613585835412
-0.02070073025366274
0.00041419100661143043
0.007283147825860881
0.04090601175646768
0.018159131486003174
0.0383921087409421
-0.0086212027885648
0.021729854758800647
-0.03161709041770205
-0.015955738314272657
-0.004618497243872264
0.00637511916610108
-0.002176573184990762
0.02460403671373941
-0.009552032286135098
-0.006077267202082838
0.008429193112572616
0.03736200679624104
-0.007919741197467332
-0.0013154958827085892
-0.06257184742905728
0.030661220805011775
0.010532376344392363
-0.0570827395073563
0.015421877278954804
-0.011442300499063435
-0.032723239320642444
-0.029881236027563554
0.01683394405635231
0.0007238935280865192
-0.01345667171164665
-0.019057877129949184
0.024036565540451898
0.023304486460575258
0.010566848679559177
0.03477398817281734
0.01201673455898765
0.020812405829118436
0.006413406392711929
0.007312357072747483
0.004383424226190268
0.018267211796386025
-0.001487314885710587
-0.0018049643316479336
0.003550363211644306
0.04263254997277155
0.0051104430454804815
0.006681321893036413
-0.020910152204471257
-0.023088908558569734
-0.0033647876458948985
-0.036015109886012815
0.0024787576411009486
-0.00913031924673842
-0.012700665062726895
0.0031780508505410004
-0.043701335308691976
-0.07760283616184847
0.07409009773851137
0.12802763465931288
-0.019021162784894716
0.03966403446828175
-0.015108601792920895
-0.08733528372106056
-0.002373337219712192
-0.004639753040074438
0.011525418335208044
-0.022266697991914042
-0.017047657381306675
-0.0024451182112493653
0.0024325804683059432
-0.002648134924125469
-0.007203536999118687
0.016628280362601687
0.02029677463728047
-0.021101693096866943
0.02422400157861228
0.04237796578773922
-0.0023141577069725828
-0.007462857296675623
0.017198842994058133
0.02136435948759027
-0.012144063864275308
0.0020179330671971692
0.03992974546735055
-0.01571708939285284
-0.01899167211477701
4.751360954008373e-05
0.012680930382771677
0.002194888925750915
0.003342822462813562
0.006152722752622622
0.008992161716986156
-0.03152540084866524
-0.06720394019791735
-0.0014898741217803633
0.03161691746434445
-0.028956895101705595
-0.02614258744131136
0.003069083396367461
-0.021781913402655964
0.02752721056445634
-0.01938734868240529
-0.05057317242702321
0.005881159820147533
0.09951351297001726
-0.019510701759961425
-0.017946222517026045
-0.012966578893808322
-0.04772854820253729
0.0032256826833978497
-0.01688168554572555
-0.005640114040923778
-0.00700056645630032
-0.027328702745502597
0.01058247444134544
-0.032630241972713386
-0.03937902928390558
0.0029947097750585424
-0.030732023416094403
-0.023369660912456295
-0.011075538262191414
-0.002448811427686553
0.18226968990712483
0.03693050077583995
-0.04620011110201702
0.032326449936829545
-0.019691275468773552
0.011977779344434867
0.008749047025603916
0.006159632826380152
0.03407591122187683
0.04166592622732984
-0.04310812694697041
-0.005769517318923479
-0.08953483450176626
0.015506630972664446
-0.03711303708396567
-0.0014194377969926435
-0.02913726901050931
0.09908462132111455
0.0666956373484337
0.007766418704958641
0.02382614276999756
0.006227059166040861
0.009387308079156269
-0.016825690723336187
-0.015023624302091625
-0.012914652780485062
0.022366305948677938
-0.016523602463159117
-0.007754601698076981
0.07712650438319954
0.006435428859311636
-0.03549978419279365
-0.02139748672087517
0.03035900828705567
0.041804588217222896
0.028390930620035802
0.005596981512311202
-0.013093099334792638
-0.02459295425296306
0.02003310512454075
0.00967398420806999
-0.008589345217188508
-0.014982590576842394
0.0035626871975117276
-0.015844827569175386
-0.010907639735813112
0.0055091771063184875
0.008968386353102167
-0.01523200076231715
-0.004771088154780882
0.0034147683166656307
0.02951051690085323
0.030414815942362335
0.002893910437071263
-0.051685280014935664
-0.08881600992880305
-0.0038557559734476604
-0.017792824196098823
-0.010151722452427564
-0.02448884416244297
0.012851255452791794
-0.027037777011690373
-0.011932720146476176
-0.020385503545184876
0.0341414647707958
0.02293721812252223
0.037520358939751274
0.034952247584101
-0.01978537757363606
0.002589718021408879
-0.023362580407111
-0.003926171862134209
0.009007408846462572
-0.03840537252753433
-0.02184689946968048
0.010311116479105492
-0.013939660507112808
0.07959460967105271
0.05871180870095857
-0.0029217722420899566
-0.03560022673277158
-0.004236066604788146
-0.014092353927453866
0.010560288747664388
-0.04301192976179316
0.02025942760269915
0.0349005659911969
-0.04148637092106701
0.004882780506003759
-0.037279038436844325
-0.12344700637276716
0.0037786559888141396
0.010008963981142944
-0.003933195384671675
0.009964435486945662
0.06366636083062348
0.04788695625267903
-0.0033481015713146796
0.022469953033911704
0.04396572441833436
-0.03573561756842888
0.00015600200975987016
0.025495550762454248
0.03656332806536141
0.014114033321036563
-0.009834541471842411
-0.003044003130495448
0.013872780715582008
-2.6354513454084143e-06
0.045147842133367186
0.014050700960309918
0.027343251278796395
0.0113144383027299
-0.016956334780608626
-0.023002454300740365
0.0037659550961265708
-0.12475392932507609
-0.0004019936330163561
0.0035475418653915796
0.0016782141942891825
-0.02674617609116955
0.005263828449542694
0.008039283237419436
0.053637551481526345
-0.08284525814727474
-0.08725144298369579
0.05598948435734333
0.009275660874797897
0.011621599391796137
0.024609375509116623
-0.08356082417950879
-0.043487700904210315
0.060476749532825815
0.01949950555668486
-0.006266430404627829
-0.012986421021489654
0.0433768992593088
0.07583004970898598
0.005681114922213848
0.06250506984613514
0.006936243215372122
-0.0015178426642137694
-0.0023568015648990034
0.0005633448604529974
0.02917166581899913
0.040286795687901125
0.01894990357781385
0.00853344148634209
-0.0672324912160202
-0.15210646088179738
0.03727573200209613
-0.07387191938690113
-0.032831584061991076
0.02378503750261878
-0.002094620919414796
-0.20853669465293675
-0.036546765308225315
0.02013718501900376
0.0013697767988175625
-0.003538697641339389
-0.008674149625713445
0.013015263748224806
0.011159390111758542
-0.04877482883912264
0.022438188045013935
0.10727404458401177
-0.0006414010601490475
-0.011351838989341055
-0.007791054850535518
0.00656743969445323
-0.004222550636458051
0.012876666604403007
0.03133089000851412
0.12481990193310169
0.13771136283002433
-0.028050600044849494
-0.014695092943643686
-0.034252447240367544
-0.01815897198544269
0.03919756425224262
-0.016236583515926183
-0.012707213671376163
-0.06952380430508379
0.0025104086313502815
-0.03438725810174836
0.06181493803236086
0.12645808691257093
-0.047088346594464946
-0.018944891113496582
-0.026092296795141107
-0.005212839057735252
0.07005077591530687
0.09047974471936514
-0.003962051887448506
-0.013742415149985946
-0.038739323999825756
-0.04530600581439468
-0.023112459082585995
-0.03479648608081495
0.02989594403285035
0.06383556871741698
-0.027994790130269807
0.06965554567680309
0.006392363751839335
0.007282001522269587
0.005499019557072681
0.006376909095535184
-0.02755980097612946
0.002780812374761391
0.00350020363223712
-0.030328816185675588
-0.02327765768628748
-0.025627757088679336
0.004196886718256263
0.001226355195080363
0.0023667682533934455
0.024283450309953884
0.004420025894521986
-0.028361856253632522
0.005072969654802614
0.05687979458331668
-0.04627839883732327
-0.01287372886912573
-0.13067509982454895
-0.027162391206268042
-0.05425979122751196
-0.06389134729239955
-0.018243596048347053
-0.04638800836267742
0.019569415040926196
0.062111607496824255
0.1330968520219468
0.026090977409170348
0.048009292872001605
-0.0070562616473760975
0.010756849431477365
0.02234480986327209
0.021182330989314997
0.000232604080697706
0.01962451974283151
-0.013030804072551864
-0.038189886728403954
-0.026679827219968463
-0.0048291562484878816
-0.014721631585575112
0.027196949336782968
0.01583309382794556
0.02727311604273362
0.004743026205921325
-0.0043522733855689754
0.0059857206639892776
0.002313144864042693
0.011033071491112592
-0.01222615185865777
-0.016904307791563628
0.003213252704810666
-0.061239650313816084
-0.03558152545882815
-0.009714735420344185
-0.0018531614175967559
-0.002026037652899106
0.00923228146449277
-0.0063891455255076016
0.030810456854969186
0.026088343415150428
-0.003006401183839946
0.024045154742801205
-0.03474377711871942
-0.008442607583773206
0.017029654919468923
0.015617342046869147
0.00754547647837066
-0.01385816988690972
-0.1778948158372383
0.009538511926547453
-0.005734019512219076
0.024217635045580718
0.04643388025671842
0.00017913871812333596
-0.004334606401584618
0.022805766740540506
0.04104421024522206
-0.0021489437837623184
0.04596763583281568
0.1737331082431031
0.0196394936471987
-0.11253136509711056
-0.04184846136466821
0.03173112073717062
0.03506658985456504
0.03172819373305678
0.028445965943966645
-0.02834775139114392
0.057085507718408424
-0.07627994313531815
-0.17951912024979672
0.02146516212292832
-0.024949850694812967
-0.002478226356936135
0.0018151677833220952
0.0038432914136016577
-0.03586480807040291
0.00023367930986836752
0.014285408424941831
0.00584213365242698
-0.01127825727645929
0.019282500394304552
0.00495127631393104
0.026264204411376255
-0.09133936293112511
-0.005154920045726652
0.012483115877302347
0.0018349923970886188
-0.008211960245848235
-0.007032867394303042
-0.01790687325651722
0.03571429657872331
0.011430520841845081
-0.025298851219819698
-0.027807893389832538
-0.01840715358222199
0.029802410629893104
0.018346638170233045
0.02882560202836291
-0.023974412900231716
-0.02310585774609116
0.015271142826965487
0.0076049220908534195
0.014774666756834693
-0.020957905634701318
0.03168156407375863
0.028610874036504006
0.03446771908276936
0.00929760407745314
0.022143308837750408
0.06597561382315445
0.028333509924888364
-0.09317643048734076
0.05135740102483793
0.08069776177214238
0.035326567761722154
-0.02753510114978839
-0.01537342704028572
0.011730089398325153
0.0002909847795684472
-0.017597917909430223
0.010703553018097596
-0.012820182926584295
-0.024125536140559407
-0.016334990893580453
-0.01735039803036175
-0.07151736530099796
-0.028849577797902235
-0.028279182742181597
0.0010953774649207304
0.0334928079828176
-0.0016549657255170982
0.011517224583347323
0.04573315069176187
-0.007411822649288686
-0.026045498295547545
-0.013392856128136335
0.01921540153116947
-0.01541802609244175
-0.024460626682097298
0.0008550239374240654
-0.014873734356510621
-0.02343094397772849
-0.023680691082646144
0.013680595611380958
0.031194469502987855
0.05586132097584722
0.011535002011696015
-0.01705631061363454
-0.005618133871395683
-0.007391801206569451
0.008003712779455285
-0.05689107589192024
-0.012765945331635211
0.07490349717278838
0.03470882394109886
-0.011110609607841975
-0.035736959761852025
-0.0009171258420098631
0.02849111496054997
-0.015751730284079404
0.006938834560881722
-0.03726198217386137
0.03167108318458728
-0.037659893492178444
-0.04181419487977297
0.02206892747497282
0.06109583078273798
0.04673040420855977
-0.03542146663725182
0.004610136514582076
-0.02722016103943213
0.015533267773270005
0.005312077486697479
0.001221652550330452
-0.04153358545775893
-0.00010254692560274483
-0.003774737479744498
-0.012536339932345089
0.021957866236101894
-0.0004388499116453826
0.07485527936614456
0.09850914483778402
-0.01972941347266874
-0.020358929921519678
-0.016828880031897763
0.02831559173173016
0.004652965812211932
0.025398925889222317
-0.006434800696424598
0.034701943767743236
-0.12197448811062177
-0.12229472485183666
0.07130808080069882
0.041217425729526004
0.006859494222201974
0.012618320050879758
0.015516593606480557
0.0009939960102459185
-0.16602256157832662
-0.04326147193015048
0.09037790501047083
0.01265431112430753
-0.019709895431136486
-0.01709782289547795
0.012633107988896657
0.01156572406992768
0.0019298754900481268
0.009268751295781768
0.03644855102731109
0.022883310670984012
-0.025265251905332724
0.0069531238412710505
0.0003492733679520175
0.005951130825873604
0.08939591282377095
0.06419606858184464
0.025274001782701432
0.010816636684715036
-0.0046793318167914445
-0.0013781281878163995
-0.12051964376026596
-0.07331741309378167
-0.0700953040790688
-0.030612355812597847
0.019955418265575942
0.012258950183626384
-0.008344129908157829
-0.04601805518383456
-0.020476610473754826
0.0024464957487074983
-0.0006405275102788714
0.00567939501021449
0.024021956189906993
-0.026078642543932305
0.02345811649603665
0.04628627616833136
-0.004544421552556358
-0.02336433169684238
0.05128344869979281
0.11410520884332404
0.012543777963167366
0.08737804582797093
-0.11352028483573591
-0.1163498305933812
0.05300395781115232
-0.033012868669554746
-0.05125558540400683
0.014147235305009779
0.039499167225167664
0.01817071017994563
-0.0195662095269759
-0.07249320959541111
-0.019687380661517366
0.013459188158484733
0.004998776924915747
-0.0263781021388082
-0.015640784495245672
0.01528406933584089
0.0035274246818551786
-0.02105838596069818
-0.014162789511087442
0.012806144033589898
0.10005544003242745
0.005701111402501326
-0.011780809808119332
0.011714922870535025
-0.02145433026005604
0.021366124159161407
0.027262256003114188
0.01833657063064048
0.08792160777436359
0.009773303949670254
-0.049267792825420424
-0.05999418069415182
-0.023445815840681172
-0.0015128157179459894
-0.029030382978601
-0.011209832475387073
0.008312576023001731
0.03054885156810875
-0.053049299768976245
0.022590886785632605
0.07169314561337406
-0.005856367250643819
0.05033300119003854
0.006943261533191665
0.019749558804201126
-0.02389696304927388
-0.014242219322211331
-0.032144622407238685
-0.013453771976856748
0.14194081916045306
0.03144189898122631
-0.0458934353271126
0.009819674642657017
-0.009217648334906067
0.023720816038907237
-0.03297187560545931
0.039695075688361135
-0.017178064817427036
0.00011522754084893764
-0.12143535580611822
-0.08389497236970324
0.005318916190836467
-0.04318672791824748
0.036711676258594055
0.00326257771175501
-0.03484850543404113
-9.589812521336296e-05
-0.03338726526943367
-0.02397579964039791
0.07386065551329572
0.03617974713890372
-0.015801821932530997
0.019682058505264097
0.009536528601807487
-0.006730621127793374
0.028565071414520717
0.06231268835395976
-0.019876898067004597
-0.01292451737593045
0.012731149905662398
0.014365958872858034
-0.016247141441005964
0.03159738254449962
0.06801641241708102
0.06267277599087712
0.017664249291251703
-0.005040241421977937
-0.016348625989313765
-0.007685130742156694
-0.011774769122265884
0.041357532798585825
-0.16321804609197488
-0.02437365032698522
0.0471236934170743
-0.024819924186499392
0.009046634567696023
-0.024597959352704285
-0.016590862928298915
-0.020631961199139768
0.002360973962932555
0.01430582743949753
-0.00891568148473918
-0.0177299392649014
-0.03943218770449684
-0.026381177382640064
0.0021696221954039417
-0.019942143743569528
-0.00041137182158566154
-0.007207148668108902
-0.0004779013855137905
0.0019410569217170363
0.0031361591535559673
0.051215080915522765
-0.004266696838506784
-0.0017809079560594447
0.024051857330094812
0.016091789866245466
-0.01739040700378819
0.013781081126356905
0.019123733223339195
-0.028541253966718617
-0.04001764584166215
-0.041070813721865426
-0.13002446323288136
-0.014675897418318026
0.18606214907784077
0.03222240315502778
-0.02051255068845687
0.016776527768700897
0.044935122811153756
-0.012944006191722014
-0.010707323988226273
0.014167810092934385
-0.018375287634824815
0.022022005146209195
0.012111201163101467
-0.045788366288019376
0.027629764942926256
-0.00031285969172046055
0.01313274790773252
-0.009485884908917252
0.0656180250571745
0.07136196600835079
-0.03113866924296681
0.013175162957528797
-0.01733814583028367
-0.07880537459639193
-0.0015063979241684332
0.005925252754620124
-0.004794751301190502
-0.014629264643022662
-0.049967137982021174
0.004434551386908934
-0.0036693861975257707
0.02432242111282028
-0.057815024859932056
-0.013632847217916766
0.03281674914266415
-0.023412234941879693
0.011997232973912227
-0.007039707035021935
0.012610451166572358
0.03340712410313333
0.0024739318405674633
0.06025058128409274
-0.002204673943861873
-0.0051197180302069035
-0.00566585751631718
-0.048829315591614034
-0.03632817558561449
0.051756303874698935
0.10675336353388577
-0.03114190292962208
-0.05472393647231871
0.016502840665229657
-0.0046635751279280385
0.029625088531989103
0.020613508976037715
-0.0025403792985672236
0.024454851932757597
0.08683771133460118
-0.004278181547292212
0.02340486480272784
0.013329915478065764
0.021621845904846032
-0.0011901193392467454
0.0177853645711207
0.003035800869999981
0.004184165188011674
-0.02808696337910649
-0.17130366867969488
-0.040072398009666596
0.029453878456937983
0.06185620391933305
-0.00858758509969743
0.014922531097269322
0.007928588123923946
-0.0771160027630764
-0.06212588803449469
0.023026834722811924
-0.00381130805189115
0.04154057416478413
-0.020914844677906448
-0.003349949983496326
0.046309872066451055
0.01828545985654318
-0.010502982695930458
-0.002660692476700516
-0.04447339086139534
-0.05984949859976642
-0.039525833804692316
-0.04905212452540572
-0.19137996635099613
-0.014421301159307702
-0.009167126660610632
-0.029012637960945
0.01469587945851696
0.03073039568458014
0.055674850532986285
0.0024408293780381713
0.011852302532307075
0.04640739621480126
0.0025065104843126425
-0.02231308290627281
0.01331737234906106
-0.011539220517016648
0.03442832304380887
0.1840697236039647
-0.014529485191512266
0.07062047067970781
-0.020898292700456754
-0.049225752290179475
-0.014234220911714106
0.01909470642228755
0.009382328824983063
0.02474269990635823
0.0070568456212130965
0.03536640847119744
-0.012244313781091936
-0.017747236115641343
-0.0412795541837626
-0.005790310235296757
0.013991660745246742
0.06441401436723646
0.0067215838873237
-0.013764177558262349
0.07998826212177891
-0.030450280904960398
0.006298405427497246
-0.01318752914514396
-0.007863907920501621
0.040098165354596566
-0.004850419223246393
-0.008150904584835484
0.014492143500992328
-0.0024186355627181387
-0.008114047201176998
-0.02765471250520508
-0.0006520825788543762
0.0001220207357494166
-0.04181723460461435
-0.07298198402349032
0.008517551716067523
0.0004630775173537555
0.054093154981317615
0.0022364569839021732
-0.00010518611809507345
0.024694447012082097
-0.023404665483481402
-0.01274169312830609
-0.014622516743649403
0.014618216934215677
0.008501667474029069
-0.03542164564477006
0.008170853385382811
-0.011070331001237438
0.016137414805616597
0.031161397318175545
-0.040476887795136474
-0.06119294137330641
0.0003155790918706917
0.00796154718229846
-0.014368401434630602
0.05558110920103535
0.009520162576614396
-0.03221421726355031
-0.034421822957951285
0.002542219719777284
0.007417003876022994
0.019668380390283662
0.018023715849106454
0.011631447410174871
0.0037449043382402807
0.017831907036987425
-0.0038823192339456935
-0.007066053401062201
0.024913853163815534
0.04733007384147888
0.016187032495983272
-0.009767295836101609
-0.1096566229948599
0.015580644752271014
0.027541971532952726
0.02177783464377676
0.0004301298742993502
-0.0009507954248139581
-0.009015704983866767
-0.006898967610992829
-0.02110653222074355
-0.08034575153348492
0.006957823646814898
0.018494641237084046
-0.0658141130170739
-0.002130894262815957
0.02422738896338256
-0.008147758512858028
-0.018991500032386897
-0.0015564425770611878
0.0035350795315068476
-0.009594277665260935
0.04921615856422751
0.022377556484615105
-0.02604152250075623
-0.0005719188575608294
0.0367775633935748
-0.04193139275429293
0.0003747021574144073
0.0890231868242867
0.09224368314369753
0.0026535034847119574
0.012555836180929394
0.017382530676278752
0.00834166159792042
0.021547375465517334
0.06253218612525278
0.008772519428887255
0.023411134013461333
-0.0343122932439245
-0.03251782990104248
0.013755311010415555
-0.03126764769118653
0.046025636002255774
0.0354601795566752
0.007785252466134612
3.0122606130923397e-05
-0.1677067050594713
-0.017547176280204135
-0.034741276755266635
-0.07841447154880439
-0.049064725360239
0.04654230374142122
0.04385732248919642
-0.07968924699858475
-0.04128969811321487
0.011002904829492404
-0.0012105696257003987
-0.007575728738154089
-0.0026386581207604918
-0.02055125410893779
-0.0015198640360499303
0.024515061100391092
-0.007450950073761098
0.015098987518850825
-0.02675193134354283
0.02762719300853097
0.0076209666354919384
-0.015258086781315397
-0.0012216604634261153
0.010215334847504092
0.0015534311367380977
-0.012305170421944586
0.01316865334776253
0.026265382692019276
-0.05447350224225329
-0.002939549144234625
0.01036488292172577
0.030175977484742694
-0.05680951615821321
0.12765000594366116
0.12837583922123413
-0.011250128507515545
-0.001308085873432065
0.031193969709364958
-0.0026730291287631815
-0.005736889951416468
-0.05889779831484964
-0.040339998227036884
-0.023101715099418246
-0.04541375460142225
0.05922479574760575
-0.01795539766190981
-0.0018939161357396594
0.009413683290652862
0.00846287387427439
0.0009113378920915574
-0.060378459502265495
0.02011794969513825
-0.00568215838954927
-0.04091791392800144
-0.03636498787299195
-0.03290342808770055
0.12918208690962793
-0.012361044791228841
0.002655503626112693
0.01978613967602044
0.036174765371212954
-0.00488939405888555
0.03255627644793644
0.035617042657478074
-0.0074666114243855525
0.02062858095422839
0.017672616425534724
0.004950151403756432
0.020185374455286356
9.639075051811633e-05
-0.01812902834838887
-0.045824374114124274
-0.011586104102523908
0.03516373281599187
-0.004933559551424632
-0.06313799926173258
-0.012142167480218916
-0.014116828641652434
-0.059883682089423095
-0.004453681770219017
-0.005431736751339675
-0.018269120242675765
0.009929916764557149
0.019694624696998037
0.011638486725240548
0.01779964950817118
-0.011962249755739552
0.014885813006019289
-0.02178916456870612
-0.0030238653495662507
0.031022075917981666
-0.023212511601614562
0.01828109853883368
0.12735766828746595
0.042032479274986996
-0.011455878862102
-0.17071254215949666
-0.04604786102952487
0.004058022891048513
-0.004468135953609478
0.044810779375626275
-0.030904113700531158
0.061654556771039364
0.1194955611901556
-0.01433359835077437
0.012525950009692866
0.020593012032612625
0.0011479980659044875
-0.01092762720235598
0.008471420413978074
-0.03402733106805033
-0.009739914327422477
0.0012892839770740488
-0.002235969205086871
-0.011977645553593796
0.04713800044899629
-0.0049332719971263385
-0.15634157168523682
-0.00036104732031438816
0.03364872590844562
-0.008533226395833943
0.006127723918476956
0.012935694305754353
0.005170159165206662
0.04971472311690307
0.01773308298941486
0.028665089773818916
-0.005645333708634429
-0.05795088940175592
-0.004950092639868076
-0.037777770096781786
-0.022115965504764117
-0.006598696770945718
-0.0035666297101004077
-0.014338396127836843
0.005408432109238169
0.0010222177618737299
-0.008802401680720275
0.01204254264239426
-0.033961108799614344
-0.0198864487107039
0.0024538962901775184
0.013038240094470167
0.04458853741920971
0.02000237997040015
-0.034124790320118295
0.03944355993191642
-0.04632495731753918
-0.04308461703614708
-0.01752319751127636
0.028461538043944454
0.03432223278019844
-0.009428676307947019
0.03407230365528907
-0.009855755160247196
0.003652848610974599
-0.0016218547570753456
-0.03421145908664576
-0.004045279607690767
0.0013047907382237496
-0.0016162011810992886
0.02317131170236113
-0.002679349920833594
0.006326253199791679
-0.01866848001264349
-0.10208460565358733
-0.031336181761186584
0.005033884187383956
0.009478424927558028
0.08551074540165363
-0.015250540639060088
0.12759266223132254
0.03259479329901376
-0.013752589300727154
-0.010760672520242775
-0.019117657788254593
-0.0141542893296832
0.0016246923759500786
0.034238881660147436
0.020675610819764313
0.06727262786420304
0.021252906814626788
-0.020502214737732036
0.01965934270000267
-0.02876343872725705
0.006970838779545565
-0.03097352659563584
-0.046358257318607876
-0.003804359390546605
0.0022473391871952325
-0.003219994338593409
0.026269483459956108
0.020059944248529728
0.025270057338814413
-0.012656351231079424
-0.028452313958606302
0.005092918571257992
0.05354957405929279
-0.0935529386260449
-0.04915169494577043
0.01948535823165107
-0.005652579550321783
-0.011543156243556226
0.030492652182938708
0.027904046404954096
-0.01898757998556106
0.01641596476416252
-0.0056153894755956455
-0.016346355703714843
-0.007578570610884003
0.018984713412083177
0.032239384501061244
-0.02862576415572132
0.0074871627292476765
-0.06704670601980964
-0.10329056678755999
0.15467387708505775
0.04466295300792923
-0.043955837284109484
-0.01884887965122566
0.02720293266318453
-0.004286669041763123
-0.008957118845472014
-0.03565998008214631
-0.003777603013250307
0.006357474156784081
0.029624352888439665
-0.07178724768527792
-0.028164447651202452
0.009604626320163553
0.03230526870053503
0.009450587277160184
-0.00027991731188945114
0.000763444491169949
-0.02002234314957796
0.008349423889272083
0.034160407065438554
0.003450341586427591
-0.07816919421512349
-0.029451171923993092
0.013443882325917868
0.008098402227681725
0.025282042252658777
-0.007537410468000817
-0.02266750324409195
-0.007704710776066243
0.014447021995521217
-0.011173600783115363
0.03821322832578242
-0.033951613341085464
0.01184569845046068
-0.010098466542840665
0.0024975505970533155
0.06042881373395149
0.0726236868019777
0.01087733630911705
-0.007548304696994615
-0.009161359090883095
0.07952010625612126
-0.012094650062394643
-0.032868153921338863
-0.04591697575145969
0.04173072406611245
0.04606386628564465
0.05764753444563836
0.052145511585273384
-0.01981532033543866
-0.015238501367707075
0.0028444834675649573
-0.01818770625781688
0.021416772006482725
-0.043820064213253254
