0
-0.012288169686684232
0.07505383173108791
0.015966728605773597
-0.024160315248940814
0.022745680574643604
0.016510261122077787
-0.010757741731810573
0.01735155568277309
-0.052375297012726946
-0.011561980289494699
0.0825551051174161
-0.008689866946677255
0.014902352830639575
0.006362271386551183
-0.00884659362123021
0.047891591075532106
-0.0019235281922182778
-0.00954047894701266
-0.01716615888881504
-0.05364721832473028
0.008241252219237792
-0.039149017387368965
-0.01565424387786424
-0.003299066000759008
-0.008337079263183313
-0.028134006089580547
0.003565704892676163
-0.017710999299960485
-0.018244654498290155
0.019044038555162617
0.029208460704417752
0.10981116384258133
0.09675755490913421
-0.03664596726438346
0.01352108207641953
-0.035040640334528375
0.031382368356565625
-0.0515061878370268
-0.029528891221871047
0.01044258805519133
-0.027691620371380826
0.01922106943583775
0.0027384650311105363
-0.02339477528380375
0.035505819259237584
0.03295158653457312
-0.018042528206395788
0.03583557103216323
0.00963555029332354
-0.006370040268287379
0.01979841996547395
-0.01061233816439827
0.0002627243065751535
-0.002576971670520908
-0.022648784879063206
-0.006942188773541883
0.007382300209820976
-0.04917348029490024
-0.0076139829092535345
0.023513618087776376
-0.0025138110916061466
-0.014237661658791808
0.013834843049114493
0.013856543403567803
-0.008476665362029004
-0.02884559158358577
-0.07152711391279605
-0.028581931651813466
0.001116744680826842
-0.03178527904635493
0.011833857087603481
-0.015121813101448996
-0.04667946311596066
-0.015361042285731466
0.010690784181821811
-0.002040808787285547
-0.010017572166718145
-0.0212824777854151
0.08141813607010144
0.08302371082995423
-0.0369161842272727
-0.015416847022501389
0.03242185101767552
0.06522827429059053
0.02088919816963776
0.021730776932775284
0.006264313661904141
-0.03090561695072399
0.011699120236522956
0.035757824849887376
0.029243730539385226
0.023576581291781647
0.009111702619462245
-0.0014852059422569347
-0.000950514884530483
-0.0036413885323399904
-0.08167865532368743
-0.03263056958865711
0.02772621576821757
0.01471931781426444
0.023624941497452433
-0.019302104485680593
-0.012397899736861317
0.03221882793104677
-0.0024564209529629537
-0.018636255285393352
0.01157442616468426
0.023001985311099666
-0.0028610015808893975
0.0316262332444017
-0.02290508608815851
-0.10324768050453448
-0.014610260253568055
-0.022613652217031804
-0.004956490620846588
-0.017241693689354035
0.08034661072998038
0.03073183290353244
-0.012833869566575602
0.02384639053418682
0.017462879298482118
-0.0640693238769908
0.03262511621775392
-0.09424085521584075
-0.0702326653702009
0.10353429164788627
-0.025574150803969433
-0.003416940090725607
0.06766555045624674
0.03685365894883208
0.011524499550502318
0.025928258727889373
-0.008876952531699832
-0.0058471416398177024
-0.012158154102138833
-0.0101304414208863
-0.007045143935902138
-0.02104949277456036
-0.008928339098794312
-0.05588018898843917
-0.0159861123757182
-0.0076954526738786415
0.02457619591911797
0.0023994657967957612
0.011010293284766378
0.01935849449691923
0.012711796910661769
-0.005257334117793874
0.01971353553354049
0.008005756240627236
-0.015950304745178584
-0.0877878326743573
-0.0694449073646866
0.017014853472914416
0.009407163524305009
0.017851137257372775
-0.009320631480928687
0.023199998950345926
-0.022528433320021097
0.052821015072454354
0.06954004758788045
-0.03637501662285136
-0.020319538758115378
0.09818406770915863
0.11103956708601048
-0.0213559816031485
-0.08074840699888841
0.030491358336782057
-0.019246195056551875
-0.0094457372764003
-0.024284467643131344
-0.025177842525341883
-0.05573309178032267
0.05068741573752366
-0.03695626240227108
-0.11391562547943532
0.06440987577319793
0.03237934717100434
0.0026546728413555333
-0.010501726415683754
-0.02492591011905062
-0.0073844435337969624
0.00866789971659373
0.0032551948871390904
0.011270792472696776
0.03413040444210248
-0.006888962920393637
-0.017903017647593455
0.03345634722728096
0.03626325990784321
-0.007245455579781237
0.004637819286341428
0.01797760263937574
0.05443622392810747
-0.007800694378469526
0.013905986364394485
-0.014654520112931413
-0.005625174568376633
-0.027715379544154334
-0.031203012805379148
0.02311068257084435
0.024874456139941027
-0.0490332602083865
-0.014523778028344286
-0.003059223341365284
0.046625730159209795
-0.010677567936008676
-0.01598608192527409
-0.011717159342375919
0.004241706191673804
0.008117118094816396
-0.008987208014919309
0.029646251165458565
-0.0067021657625385075
-0.010364578812382315
6.124471066431391e-05
-0.0186556597799086
-0.02561847734200169
-0.02144535432195943
0.051717133840256536
0.017535468667368208
0.0021849624620494078
0.013629536068307078
-0.030356713121095037
0.015300362420483299
0.0031356244757413314
0.020012794427380496
-0.15410008379325452
-0.002975465343714506
-0.004852053299866066
0.028346931473059455
0.012300441146670662
-0.02076706700786059
0.09335413455307548
-0.02602669516926238
-0.02657392595518288
-0.005385827768024867
0.023161672638177245
0.016383479893510224
0.002286927635106275
0.05565342615351638
-0.00046183557428805506
-0.016387556492630906
0.013594383686132784
0.020129314997907276
0.018037991533054545
0.0007400036739731525
0.046028566896416774
-0.0056241113147242495
-0.04119256697302461
-0.028840296561731756
0.007000456386355264
-0.006955724659469558
-0.01698157423204545
0.01352751588821076
0.005598070655438595
0.028370750015389225
-0.008441829884228551
0.009987688605658001
-0.028496080161232715
-0.045373868189306096
0.030046950838382668
0.0069992401475665565
-0.008885277869204957
-0.022731504556505314
0.07042442676109806
-0.02661262165882924
-0.0643831890965378
-0.025606702628372467
1.9233781570344424e-05
-0.019059488063721836
-0.041283920338766045
0.01706119010812052
0.03366481642071382
0.006762388221657079
0.0036978229627468726
0.03675392207361065
-0.018943440580308533
0.03127253609903455
-0.018471212236896472
0.07470854703444157
0.009875857194424478
-0.10266519974325208
0.01677783387349311
-0.003927832105933099
0.02900483992072595
-0.05638207946749578
-0.04190843328069373
-0.02680694729608803
-0.004256841441568798
-0.014009226230653244
0.05131484665705553
0.06938870619709454
-0.07457341180506342
-0.078358645782304
-0.013857308724458622
-0.043969770582245556
0.001505852360968446
0.008985961850296119
0.01076551136742563
-0.045543924430774554
-0.046831240057384
-0.0023004717570526234
0.081048513014378
-0.051465366117099925
0.04259026302374374
0.0234660839900335
0.017369158299674677
0.05430403191646052
0.03246777275203554
0.03420165684577493
0.09150708182357552
0.06145628936903495
-0.004835463974609091
0.03293374771722671
0.06453095431797788
0.02033844151306696
0.0047857417467741525
-0.0058966489954925426
0.017886776490495748
-0.03626618671213159
-0.056282968994284414
0.03934534368711315
-0.004515798384821993
0.01921154455937415
0.017609728491859176
-0.013846563691459434
-0.04207672762330637
-0.1013094666067489
-0.016609138014773
-0.019060955356977397
-0.03949182158284893
-0.05307390440534635
0.08055326835135987
0.09909290446265721
0.0015543794347651194
0.03170993449021661
-0.00553289835523747
-0.028991563380020333
-0.0082597181434695
0.007714836377764458
0.0027499625110201024
-0.023987279564146022
0.023458654700082515
0.028568830525263444
-0.08959611638540341
-0.011666888243714356
0.03377993922575322
-0.009335418657548623
-0.01776682624226236
0.016633201917089533
0.012244295072216915
0.02550623368001753
0.023601343655776635
-0.023338803572561757
0.0029075541204979503
-0.017433890731336877
-0.15917728350125546
-0.15544479482432794
0.09915542931344871
0.00853050011863607
0.01824240546915309
0.09770435344564338
0.08002534219053746
-0.03252984652182246
0.06653707796955592
0.009345060845439327
0.019664716935317184
-0.021028888911321413
-0.1158444009580824
-0.013673621007521262
-0.00023520012036884895
-0.0026354154716605803
0.023908541516563818
0.0005735664283643634
-0.011289357552872657
-0.04394656935332148
-0.09948684528203032
-0.07804321949139072
-0.005685815811768843
0.014494480380838221
0.01765858938583256
0.004546737011082336
-0.03505809458684339
0.032053809782474026
-0.014728176121007429
0.03590116310838001
0.049506516098594223
0.0015853692406363605
-0.0045149036223579245
0.05348015920596968
0.023977679147870922
0.02383671031815311
0.02361026963012775
0.0069448818715531525
0.03524126764081565
0.015768905898562818
0.026637067126787577
0.014720595479750126
0.030862813784670637
-0.03141651383210461
-0.03444081256610496
0.022225644927708586
0.01155449719914933
0.008665201724392845
-0.05315860146393039
-0.0677270383679088
0.019170300604125255
0.009021113864291452
0.0256740347030814
-0.01599538098250971
-0.0019074326529693842
0.04439691687611297
0.04558848196169994
-0.0002891932112099591
-0.034535994523763984
-0.02523818919625153
-0.03115337513338072
0.011236081747660111
-0.007132603421584268
-0.0017671176836078788
-0.02381952042763968
-0.03951591011981227
0.05552926595915149
0.02777103563172593
0.008862834291013446
-0.023745530110992168
-0.007769782384730923
-0.01658516347843967
0.0125896507321208
-0.0022811874407435784
0.03665472286579128
0.027453506630430603
-0.00011469496608696045
-0.03822710989897325
-0.004028088799988887
-0.034567911338096
-0.003975729237796152
0.023874588906514702
0.0311311904677996
0.03054781931084224
0.029035933350238654
0.017514566819234148
-0.011006601259058014
-0.009021920177179274
0.007119073720750888
-0.026565615233244706
-0.016481006905786782
0.02104656141498208
-0.05750235048627561
-0.11876380285925704
0.04243414127946639
0.0331251151105794
-0.0008112984073694658
-0.025390928589222116
-0.014046519482372974
-0.023078652656434245
-0.02117270244686577
-0.002504021166658375
0.022922842278521947
0.004015283559404189
0.031986050491306754
-0.02426773609184552
0.05139382160463031
-0.0003932815406446479
-0.0318169882732556
-0.003456691069464397
4.415904006780717e-05
0.03622660120769642
0.04049870053431172
0.015544503150697643
-0.02690203651110454
0.0008905908757711013
0.00038114944721690365
0.03051921911301437
0.016491114166813748
0.02804940312895522
-0.029992834314820225
-0.03448003359192676
0.011282070198553753
-0.01874380584208417
0.03513962754228535
0.0006430593991690612
-0.022247842877492284
-0.06953233710469717
-0.02923251442812069
-0.019011536274703294
-0.03321641380241183
-2.390141123312846e-05
0.023806809180279342
-0.011219162977871698
-0.006240039784258265
0.005055147033099641
-0.01706771493506241
-0.049519186888706775
-0.07605132314449381
-0.006851107663038027
0.11700951681813102
0.12515795730480742
-0.03883090866221526
-0.006499384700782838
-0.0015770978191661207
0.00849394468121361
0.0865467678656496
0.10103831099197084
0.02860976398913145
-0.03120624092052818
0.002848823079989801
-0.06340369696703327
-0.07912186262001192
0.0016982434074816384
-0.0019144307542430323
-0.000458250155851171
-0.03806464067880219
-0.011760889323479639
0.018432447362732515
0.0265918400037592
0.10460399841381984
0.01557169237267643
-0.008809133077562488
0.023330305074370124
0.011638820085152012
-0.002423756091038451
-0.009752267937701876
0.039390008587751796
-0.015085718895934684
-0.00934663481477803
-0.004922405208019447
0.017206493119155793
-0.016385746158442852
0.00014124464753302991
-0.04541404782046267
-0.035031201308530206
-0.031969687995393924
-0.010626008637903344
0.007969671509848498
0.013001920779590564
0.026105682989571163
0.002213360517094542
-0.004159658929365507
0.027395258250620426
0.0788170183755253
0.030042324727626687
-0.003084748457498319
-0.02354005714719171
0.008684118699574061
0.009012450654133069
0.028776816273244563
0.03880502995968178
-0.0033130892656627413
-0.002406235197136413
-0.009475210059161333
-0.14978200566014455
-0.009534042901819292
0.0073670627946253965
-0.054569688277689224
0.046887470420337314
-0.12860817403158598
-0.20322769500278295
0.026220603884410942
-0.0198231395046007
0.023207018612776492
0.02790115730869976
0.020615819103122397
-0.005968780829250713
0.04643195332297043
0.026497343103946226
0.04731338216264606
0.003762645320306601
-0.015991105369795876
-0.06577190974518132
-0.010945040465750153
0.01160398901778893
-0.014305457494121838
0.0017695856048760476
0.005172751775875421
0.016179301077009385
-0.014926611548501745
-0.007360041565743028
0.01463513472036135
0.031657218762744514
0.04292972814276143
0.007049637347062116
-0.03419558729689394
-0.0476924690496802
-0.00355957796573506
0.03509506315754668
0.02265708184344721
-0.0390102331165072
0.12325118381571035
0.024846679981486097
-0.012599867812942764
-0.014027213630078559
-0.026666434508791834
-0.0802656349804074
-0.00471111304033758
0.054737824734598046
0.027609762439123633
0.03851884163733821
0.012235015524926141
-0.0010019417501926351
0.054279649083376964
-0.008642484436612453
-0.0016844215092687257
-0.0005933975748261282
0.022832547463368623
-0.010181942936770707
0.010362574724183381
0.007165175529970804
-0.0034434167341895997
0.020577002738393378
-0.027409056656660068
0.029099131400204425
0.008343793409989045
-0.03787738030227875
-0.004755063709573934
0.030974569524381438
-0.012155348558468554
0.03792885614419394
0.013068782331681251
0.04385738223876553
-0.06990212954818029
-0.2510039675613847
0.009553215070804066
-0.002431514006296241
0.02154971619031404
-0.02944592600712589
0.017118933352683743
0.00031154924971459616
-0.03369755766408925
-0.044154148077383396
0.04800038575008892
-0.03676373668216952
-0.02076315841652187
0.024675941540321208
0.14491381797289435
0.2274859777861481
-0.034455631165659806
-0.030367950663925725
-0.005586214760705944
0.010439752369825141
-0.015401021132937424
-0.025939207785873157
-0.037752181143588574
-0.0034887275685612086
0.018055046528907097
0.006085113732634496
0.008969869157722448
0.023227840486473833
0.007473168062921063
0.006609514223273514
-0.01613316252273964
0.0475171024290503
0.03312720761703967
-0.028171501198702195
-0.012050770331278117
-0.010294071733460112
0.00038717366330463495
0.015036448514440488
-0.016492395553670085
-0.050615106117868375
-0.010023547123541365
-0.06430850184279419
-0.08259867355686622
0.037793772401065275
-0.041225377169456366
0.03896736618189184
0.014937051917851357
-0.004511960105387322
0.011876100849102084
0.010505568671214258
0.05537766179753706
-0.002701753763441452
-0.004777466372990784
0.0054558427832630835
-0.04731337980912659
-0.0020088129747590083
-0.001773575517664944
0.01680839792747957
0.005262911999278486
0.010502211917385098
-0.017722264626854497
-0.06769096241363937
-0.02636330733442617
0.026558379389675472
-0.01668278674120435
-0.08205990701957348
0.025740043661292303
0.028896332383904294
0.04338199647649951
-0.0023455908937043543
-0.026363856368548346
-0.011920636321409668
0.02740863805547387
-0.01099763747479478
-0.007338755291999591
0.008627745563690161
-0.005240229179714604
0.011103527170840068
-0.0015361577177168764
-0.029512966836297172
-0.001164072849250385
0.004846142341381671
0.024765978765224354
-0.011743322085168935
0.025847611277493153
0.08078619096331585
0.025090165007849916
0.11404384724130028
0.004905286080847774
-0.04756440596717803
0.01759655328115043
-0.028737688680776398
-0.03699982334947991
0.014484581421973234
-0.006874010958176758
-0.0037090587532426656
-0.015856220249588673
-0.05974520140723947
0.02382015540605806
0.057830397504055185
0.0097837645337218
0.01182957729748719
0.014159447820735558
-0.03580620676893936
-0.09973547337029609
-0.02121692257300863
-0.0028297448917680122
-0.040311420624012384
0.003103310515390218
0.01256062549552206
0.014107793435431018
-0.06253429314098954
-0.01820416418544434
-0.006878205210058289
0.040198383109417826
0.011040549073069497
0.08214926557322301
0.08509320372155853
-0.017635555891856426
0.012246409601034163
-0.016075866899279086
-0.004291252313377197
0.00026483702103613163
0.013998097325770658
-0.002360149179130237
0.030198549742213525
0.0043244318450374715
0.049356275616058876
0.0371953708860912
0.013715360306250713
-0.016163427416470727
0.007865660094564951
-0.014656928215133876
0.025805295130686034
-0.03633632737328139
-0.10630546757817431
-0.08494268278156046
0.0070512056829532994
0.006993151052296641
-0.007217559994504786
0.007055956478811088
-0.021074220253820317
0.007029046269361543
0.10347979985282205
0.05055250242853207
-0.03725526557233765
0.02288070965423968
-0.021376488664868142
0.007547498620277737
-0.09064696669976427
-0.10847952282231524
-0.024698464404127873
0.06558037988510274
0.05741701280715212
-0.02669336314966785
-0.017789480248451214
-0.006873951745277464
0.020122503085918363
-0.00891578588322327
-0.011353601465005357
0.022619725269700984
-0.16948873155216648
-0.04728087761209866
0.005709686763989621
0.0565734939554655
0.0603486093192816
-0.02307950601936331
0.021237029644414488
0.134384471044705
0.0013821369746050594
0.0005709905198301705
0.03702355972646126
-0.016702217137185452
-0.02228096485226168
0.03453488200781614
0.02592730491060208
0.007331721272507064
0.01004320155331189
0.0018485801469218922
0.025541630621180332
-0.0008741997668198949
-0.09211763946370335
-0.013851896114494241
-0.026298437824221622
-0.08967025225891659
-0.012598185203682418
-0.01776524824480205
0.02179470421510075
0.042299793358593574
0.025870006937060736
-0.005868820349055457
-0.030522739580809047
0.008814177013890038
0.014679955580764898
0.01378548724032298
0.061014080863185015
-0.02195435870852767
-0.025514673753486684
-0.0506911044107763
-0.013822364494630904
-0.005901366411954086
0.055449993186252905
-0.013626620981776751
-0.05253619018442332
-0.03652837097870343
0.06454069893910684
0.02503215177761138
0.07451312279473121
0.15349958504897016
-0.03463687575198573
0.008733217132805123
0.0031048079029904383
-0.08436806710102984
0.05156583941359637
0.1407683660221482
-0.03717489369919183
0.04118814860452387
-0.06819008113817211
-0.06694386117347229
0.0032194815999980917
-0.026296103057375564
0.026241889974701744
0.0005627443970136207
-0.005899650922729145
-0.003416004611865843
-0.013199251195618768
0.001371385860520835
-0.006706900822808357
0.01628488489514158
0.007341611153250266
-0.03369006063556394
-0.006218849428114269
0.014072967455167543
-0.06514217427779206
-0.11248971468554331
0.004719878318270949
0.07128801269202252
0.030031576460824688
-0.035146145628837645
0.030641122393003997
-0.0020577464297301127
-0.032022830926463186
-0.007486198943044537
-0.009732704303390634
-0.009047220522155968
-0.013339145750717658
0.005321613987111386
0.052031317812832496
0.0007469438050744676
0.032331060735064476
0.012445370107891457
0.023534719601745486
0.018362904859476233
0.0644292077504927
-0.023977368961464747
-0.13086746992734236
0.022094482757481628
0.03258669192654891
0.0049810569982407455
0.05022773225522243
-0.03689351855775907
0.013549806905266193
-0.020280746221326806
-0.08390628307080975
-0.03330479211606597
0.02315309045032916
0.03887399671368249
0.02665475227951208
-0.018295421863751115
-0.023694954480220753
-0.022102835684525146
0.02681962472690193
-0.006511678563227595
0.0401414776942762
-0.07607338504265598
0.0012643290523166764
-0.13137566022166802
-0.0866945186949097
0.17121953951804722
-0.0392981266963618
0.033676009764870486
-0.03328453214713217
0.011378112571173488
0.025900713921316085
0.035047681209671756
0.018836756093110172
0.02231258387292061
-0.01682541691374998
-0.028538048417282767
0.04389718034625325
-0.003587404956562816
0.015823593566085953
-0.043693024133297356
-0.03773735370681507
-0.014330852444651277
0.010216635289840893
-0.008987803460665243
0.0070060098549443355
0.14275632255016546
0.012650345722095988
-0.016320256871518102
0.009714159493989632
0.03088857739649022
-0.05736906237740318
-0.025250460263864183
-0.016266880551316792
0.001837577723637993
0.0015246735845197705
-0.060333761439063854
-0.08436978961768636
-0.015595503787683925
-0.02436127587945221
-0.017668223431679526
0.0661698654705295
0.15960905676697124
0.07105789840933535
0.015261870896809384
0.036400323368066305
0.0024801411211706577
-0.008073490303210812
-0.02708573505753645
-0.0210007603329569
-0.02824444675899669
0.007612152886547467
0.0027996413881525187
0.009913961469636462
0.028262491636373496
-0.008235877767283796
0.011342295963175797
-0.004320951906597741
-0.0424604148394495
-0.008770663637423223
0.026763590602957313
-0.0009444373106839646
-0.006617545917654904
-0.045494506231241995
-0.009499415013549107
-0.029564187731393635
0.004921563951783713
0.007559260637838992
0.03260801841889856
-0.006664377137864101
-0.020857795276042312
-0.003934957816327526
-0.006727686759376223
-0.03032856845579492
-0.002232405843377958
-0.06596941678149223
-0.06155782846186451
-0.002693064605174163
-0.0020270602379084983
-0.03285857200413378
0.0026280187032436714
-0.03205381653142477
0.0722658744381374
0.16911770903483844
0.003866714722886263
0.008814741779756134
0.006999760626810539
0.06404245336980806
0.07214421385080076
0.013613873172649503
-0.012745606684504135
0.0009444707916820487
0.005364278001469731
0.01600198420897178
0.0071482777943826445
-0.039561784937969954
-0.006647185538293561
0.009205247223169748
-0.006563061959337057
-0.02128569856920024
0.02329835243486615
-0.0013537389386237039
0.007093993331555216
-0.022226522492114098
-0.016100114635743925
-0.07614885814994582
0.008595774438039772
0.00520915690570678
-0.02666070359462654
-0.040020302883787495
-0.04385050910964184
-0.041699924528210836
0.009964167119195138
0.13718002506956486
0.01847920866758009
-0.015486790976993067
0.011611773741501765
0.0297631502016792
0.017722482507653944
0.014942793003893552
-0.05315926211752024
-0.00770463448100485
0.0322110014339681
0.0042784940914836036
-0.00033100003165290173
0.006380311672198201
0.03249181325456232
-0.05484821087834567
-0.05192309829305951
-0.00013811010688505887
0.013280503244023042
-0.0385794662147398
-0.06656359120605139
0.0372232386842752
-0.020269528362673178
0.0427933562423024
-0.05312825197309649
-0.1307076380704209
-0.03025579016133948
-0.01084549186480218
0.02258643490551016
-0.01816798376851255
0.019540291921102758
0.004017373697350241
0.007423468131031253
-0.019181472158370926
-0.04077089447424219
0.03635421215253344
-7.703008101980241e-05
0.012420177833872646
0.03002459318180181
-0.005076030130853334
0.018953126261975987
0.03920109616202237
0.008380056005173251
-0.0058702891227012215
-0.01622924620317371
0.03749256136601073
-0.010155599650190042
0.05544820730534639
0.12359583939843682
0.01570023175916413
0.0008526235191675562
-0.0064406176318881755
0.13512124330243122
0.04252420901306888
0.015971955602789557
-0.014852861541174095
-0.03131488014472198
-0.01619653056338372
-0.007902112922800167
0.006874173382745099
-0.0029965367091048718
0.016379640281147648
-0.06115333389806036
-0.11229011253498514
-0.04985741392679559
5.619045980905587e-05
-0.0048273638328037785
0.03272160087850932
0.07252981618523634
0.012133381126886864
0.0036331656668813204
0.010649988319988835
0.007120848811204776
-0.026998375821238443
-0.024188068286292146
0.009948929315221294
0.0026213723089211012
-0.10971055223520486
-0.11989504327414409
-0.0019403199766010334
-0.035253045109435874
0.008520894945086139
-0.020803631154746385
0.026414101486984427
-0.01110304296477993
0.014741622210286834
0.03570414542514822
-0.04627798132102139
0.012522543355218902
0.009335544378335482
0.012654602633569045
-0.014933035328440867
0.01457983548230854
0.032433100264781196
0.04257456699719872
0.08255563400713362
-0.0066747468579688605
-0.002286302113075876
0.0024713464681780737
0.026131380818842972
0.0031244567475792614
0.019365036400038768
-0.0013825896871637606
0.0540877688704454
-0.018720917902631577
-0.005150717051778356
-0.018595539893392077
-0.002527328181117513
-0.03135180926193948
-0.01451019540153196
-0.015909784702354213
0.06379650469588732
-0.019068700089851856
-0.007005561566407021
0.014100360029313207
0.02522933203680456
-0.08285306961037743
-0.14223925864930598
0.039772755920171696
0.03231222124039417
-0.08707945355480769
-0.0602209935230116
0.01880819264536244
0.0332281770512928
0.035106275180588266
0.0069767826135056915
0.016162037928133467
0.04235156014454879
0.024250246262122282
-0.01628500596378716
0.022380720838726786
0.02201253188690762
0.013183520985279307
-0.03002633060214531
-0.0016279179267900436
0.027658100542228226
-0.016288946012661346
-0.0009862837415895347
-0.018281471951142655
-0.009102709961257581
0.011265212708630276
0.007534204250181395
0.014749737083694077
0.1872072665760876
-0.007858137860413403
0.0036277484598777852
-0.10376137023100393
-0.14240584849186363
0.1096902966236283
0.1549217888181717
0.0014980271238694152
-0.02427902873493899
-0.005326221631680331
-0.006357889634228027
-0.019885154014664393
0.03918206393880008
-0.03702236413815077
-0.08282943365208582
0.02305650416772649
-0.009982857676250904
0.0010015013225530046
-0.08057274605561215
-0.03453243486630423
0.03487090422223032
-0.02730253821254938
-0.03828128075990695
0.025678477059319544
0.005982072777982814
-0.00823054382005287
-0.046592049105654815
0.04250145321239316
0.0029776897296920676
-0.04676202557326219
0.010489296102391006
0.0011080852449750298
0.014217180663665641
-0.011777198630776808
-0.03697542686521546
0.014531878119001094
0.03064368356302141
0.02811852808869005
0.024340689751359133
0.04206884554080545
0.005822079442141921
0.0019298517245537894
0.0029783068750796663
-0.0027861285319501538
0.016246524481749795
-0.02427612917229719
0.011770243314851775
-0.0288717114280996
-0.08219165116378582
0.0217343444533623
0.013533901503063982
-0.015038963589960238
-0.016609301153055932
-0.02087308334886027
0.02352085246032325
0.010148756682028056
0.11419253123615987
0.08427275418681297
-0.08100494064516518
-0.03955444464515783
0.0476317981198822
-0.014630984499832347
-0.05091798154822674
-0.013352809228767156
-0.03927852712060843
0.03900401489938167
0.06748957703686136
-0.0496971815846081
-0.018185279114592084
0.01378917997163899
-0.023990252861098023
0.003363320216014237
0.016362106601229744
-0.008895050178605243
0.008894396763346326
-0.012148048478636037
-0.021851853227982016
-0.016096509272252854
0.014475898451419139
-0.03015007415508673
0.006862839672304716
-0.005473760652775442
-0.022939664084099115
-0.0031319968647076724
-0.004055355318458154
-0.008993182504481455
0.03444215024913048
0.011873110569117419
0.061252831848027926
0.062251096651930134
0.028308120439414993
0.024482629745619627
-0.042982865918552444
-0.019190677637241246
-0.021530185140026623
0.001809429910358383
-0.017040739791166847
-0.01695418207066003
0.019693157191848554
0.044540045348243254
-0.0006362041389609917
0.022090663849822566
-0.00013554746760967363
-0.00881310974145693
-0.008923409381797214
0.02070701432129404
-0.009549841855383469
0.009924891528627976
0.0197056831149983
-0.00436925092312907
-0.012904125297309728
0.03156766001242986
0.027115091153708176
0.011695611676049203
-0.053010896943834956
-0.010161828647309346
0.03157751378204833
-0.02225945638835219
-0.02516568035877979
-0.0714795393537443
0.01743134274107344
-0.04648284807378829
-0.030407248561242568
-0.030579483762648074
-0.023823284084707432
0.05028326708854416
-0.03485259407936813
-0.04748552959674047
0.0017374781437272631
-0.011169756060193924
0.028891239099770337
-0.02387008866228185
0.00501725085625359
-0.010320066342763725
0.06392282706965423
0.011215118417250687
-0.004802422468190502
-0.03139989233711265
-0.04037738649075923
0.05304737396210539
0.0027605935926307795
-0.0066796974593371795
-0.022802909823644
-0.012249539806236614
-0.020326802980303066
0.002504418645569423
0.07428550936817889
-0.0023111548158069165
0.015476006042227803
0.025344266312496123
0.10396795479692766
0.11575544241524294
-0.006323783695533554
0.016621098455285307
-0.01685524320099278
0.0017774855027325497
0.016564703275507
-0.09486288881971428
-0.009080805066648616
0.03375343891303718
-0.037319863181633994
-0.03291258236359463
-0.04830709483984727
-0.02228661509680334
-0.014589730915839726
-0.015692487796178985
-0.00868517311089369
0.017852909023822208
-0.02091270002307726
-0.00010185650701199253
0.03923144330319264
0.012836695733626937
0.03363997494243357
-0.007008608860558117
0.04209164594568021
-0.005236047995009819
-0.015295392538673097
-0.0009762089521010211
-0.04055884157338775
0.005100605742052156
0.0033208198641475977
0.023694325666575807
-0.05747908505801836
-0.047024424721363485
0.00320308649326478
-0.003782904506618002
0.044210501799413854
-0.010866019215690186
0.014929715625025082
0.07255364779373887
-0.047772341497755826
-0.006361285308133604
0.029157110109299517
-0.012787449586921608
0.01788495503875276
-0.018121346426863104
-0.014782883747033125
0.021706928929964262
0.0033391321659030555
-0.0051780735814145815
-0.02468870084704527
-0.027233024131423058
-0.023179774550713694
-0.026780867709297582
0.006811113366721866
0.05913980258415204
0.005555792444881131
-0.031510378232746286
-0.031132444872786606
-0.03573286169948754
0.0042935110303614216
0.10736334377361456
0.045420065216615194
-0.014121935706842906
-0.009143322850147203
0.00690890567150927
0.14169390731620454
0.012772372660080389
0.004045574956778723
-0.030545028675965764
-0.01150660086647392
0.008728593881276968
0.01873805421394765
-0.035537573399829596
-0.05510325383396386
-0.03568074127927425
0.019461213067456084
-0.03557815657345001
-0.025641108220599344
-0.006789620186970987
0.03323101572853926
0.01812764848923792
0.0007118154901516763
0.016504343201198222
0.00662505879719162
-0.021285428364681228
0.03727559495262345
0.04303557415565253
0.010236980766972752
-0.07766840383807518
-0.09057558862430087
-0.07332098378154012
0.00787505130857391
-0.004087248807871424
0.03685607980354143
0.025609508421129443
-0.020282606566598464
-0.02827074690934219
0.008932191208712551
0.016960652869938468
-0.00399233829665526
-0.013123990902780462
-0.026898369202096022
-0.007687245972002369
-0.0011303160711758865
-0.026836837847307587
0.02406318317065235
0.016458018102142577
0.007880098937282016
-0.0008963837377054795
-0.010596763206592861
0.04347211255758514
0.01632982843605755
-0.014302058271051328
-0.01948039938862088
-0.017473173445573306
0.006296867255860173
0.04310219167210148
0.007610168325507622
0.025722067119515798
0.0136595093248149
-0.0217250907193165
-0.008259476287943955
-0.002825360706117681
0.026699518905110502
0.006529448902644918
-0.08880085189205067
-0.00400713539670557
0.018162935435335807
-0.0035412009709710223
0.03167182101571587
-0.0321264419360332
0.09790687049707493
0.13594958994758097
-0.0392914201895092
-0.008277060371262222
-0.016083411381104647
-0.004005444361159146
-0.05689269473717657
-0.04307243437093027
0.006220079528181873
0.03282756750481385
-0.03599238673408561
-0.03854210498103296
-0.002666871143683837
0.03957637349209604
0.00030287905293925583
0.03152952404173555
0.02232005011025554
0.016923830631450875
0.01425382622049133
-0.002893882392391256
0.0073629660297858945
0.0342555059525074
-0.015305947301584076
0.0019138506542408548
0.003199491985731676
-0.00991917381167911
-0.028427693011811108
-0.014475674937450717
0.03556705416374013
0.0039014240553532915
-0.06455419947063873
-0.004415045750803893
0.030500009443859163
0.012293796934586897
-0.008330122395242199
0.009867627388428201
0.020800029600359964
-0.01465317690476319
0.0316755082671262
-0.06504909756180136
-0.022192346633330275
-0.009526958729029691
-0.0031698033025350787
-0.08698213659001364
0.024967459977316434
0.029861511299623267
-0.018951560586608848
0.013365905565839623
0.010268751710897913
0.013332985487539323
0.04152669868936802
-0.06265933358759576
-0.06535872202069506
0.03853020379196829
-0.057750783788916134
0.010422421953686114
0.028765574184715773
0.009556669671572439
-0.008817033699027721
-0.021555030568880886
-0.015701114594952943
-0.01649951953104689
-0.027944545526787986
-0.004061302055023012
0.009111848169245868
0.07783439150436
0.03416544728437942
0.034210685704738085
0.002945942292330241
0.043191232698685904
