0
0.013715360306250713
-0.016163427416470727
0.007865660094564951
-0.014656928215133876
0.025805295130686034
-0.03633632737328139
-0.10630546757817431
-0.08494268278156046
0.0070512056829532994
0.006993151052296641
-0.007217559994504786
0.007055956478811088
-0.021074220253820317
0.007029046269361543
0.10347979985282205
0.05055250242853207
-0.03725526557233765
0.02288070965423968
-0.021376488664868142
0.007547498620277737
-0.09064696669976427
-0.10847952282231524
-0.024698464404127873
0.06558037988510274
0.05741701280715212
-0.02669336314966785
-0.017789480248451214
-0.006873951745277464
0.020122503085918363
-0.00891578588322327
-0.011353601465005357
0.022619725269700984
-0.16948873155216648
-0.04728087761209866
0.005709686763989621
0.0565734939554655
0.0603486093192816
-0.02307950601936331
0.021237029644414488
0.134384471044705
0.0013821369746050594
0.0005709905198301705
0.03702355972646126
-0.016702217137185452
-0.02228096485226168
0.03453488200781614
0.02592730491060208
0.007331721272507064
0.01004320155331189
0.0018485801469218922
0.025541630621180332
-0.0008741997668198949
-0.09211763946370335
-0.013851896114494241
-0.026298437824221622
-0.08967025225891659
-0.012598185203682418
-0.01776524824480205
0.02179470421510075
0.042299793358593574
0.025870006937060736
-0.005868820349055457
-0.030522739580809047
0.008814177013890038
0.014679955580764898
0.01378548724032298
0.061014080863185015
-0.02195435870852767
-0.025514673753486684
-0.0506911044107763
-0.013822364494630904
-0.005901366411954086
0.055449993186252905
-0.013626620981776751
-0.05253619018442332
-0.03652837097870343
0.06454069893910684
0.02503215177761138
0.07451312279473121
0.15349958504897016
-0.03463687575198573
0.008733217132805123
0.0031048079029904383
-0.08436806710102984
0.05156583941359637
0.1407683660221482
-0.03717489369919183
0.04118814860452387
-0.06819008113817211
-0.06694386117347229
0.0032194815999980917
-0.026296103057375564
0.026241889974701744
0.0005627443970136207
-0.005899650922729145
-0.003416004611865843
-0.013199251195618768
0.001371385860520835
-0.006706900822808357
0.01628488489514158
0.007341611153250266
-0.03369006063556394
-0.006218849428114269
0.014072967455167543
-0.06514217427779206
-0.11248971468554331
0.004719878318270949
0.07128801269202252
0.030031576460824688
-0.035146145628837645
0.030641122393003997
-0.0020577464297301127
-0.032022830926463186
-0.007486198943044537
-0.009732704303390634
-0.009047220522155968
-0.013339145750717658
0.005321613987111386
0.052031317812832496
0.0007469438050744676
0.032331060735064476
0.012445370107891457
0.023534719601745486
0.018362904859476233
0.0644292077504927
-0.023977368961464747
-0.13086746992734236
0.022094482757481628
0.03258669192654891
0.0049810569982407455
0.05022773225522243
-0.03689351855775907
0.013549806905266193
-0.020280746221326806
-0.08390628307080975
-0.03330479211606597
0.02315309045032916
0.03887399671368249
0.02665475227951208
-0.018295421863751115
-0.023694954480220753
-0.022102835684525146
0.02681962472690193
-0.006511678563227595
0.0401414776942762
-0.07607338504265598
0.0012643290523166764
-0.13137566022166802
-0.0866945186949097
0.17121953951804722
-0.0392981266963618
0.033676009764870486
-0.03328453214713217
0.011378112571173488
0.025900713921316085
0.035047681209671756
0.018836756093110172
0.02231258387292061
-0.01682541691374998
-0.028538048417282767
0.04389718034625325
-0.003587404956562816
0.015823593566085953
-0.043693024133297356
-0.03773735370681507
-0.014330852444651277
0.010216635289840893
-0.008987803460665243
0.0070060098549443355
0.14275632255016546
0.012650345722095988
-0.016320256871518102
0.009714159493989632
0.03088857739649022
-0.05736906237740318
-0.025250460263864183
-0.016266880551316792
0.001837577723637993
0.0015246735845197705
-0.060333761439063854
-0.08436978961768636
-0.015595503787683925
-0.02436127587945221
-0.017668223431679526
0.0661698654705295
0.15960905676697124
0.07105789840933535
0.015261870896809384
0.036400323368066305
0.0024801411211706577
-0.008073490303210812
-0.02708573505753645
-0.0210007603329569
-0.02824444675899669
0.007612152886547467
0.0027996413881525187
0.009913961469636462
0.028262491636373496
-0.008235877767283796
0.011342295963175797
-0.004320951906597741
-0.0424604148394495
-0.008770663637423223
0.026763590602957313
-0.0009444373106839646
-0.006617545917654904
-0.045494506231241995
-0.009499415013549107
-0.029564187731393635
0.004921563951783713
0.007559260637838992
0.03260801841889856
-0.006664377137864101
-0.020857795276042312
-0.003934957816327526
-0.006727686759376223
-0.03032856845579492
-0.002232405843377958
-0.06596941678149223
-0.06155782846186451
-0.002693064605174163
-0.0020270602379084983
-0.03285857200413378
0.0026280187032436714
-0.03205381653142477
0.0722658744381374
0.16911770903483844
0.003866714722886263
0.008814741779756134
0.006999760626810539
0.06404245336980806
0.07214421385080076
0.013613873172649503
-0.012745606684504135
0.0009444707916820487
0.005364278001469731
0.01600198420897178
0.0071482777943826445
-0.039561784937969954
-0.006647185538293561
0.009205247223169748
-0.006563061959337057
-0.02128569856920024
0.02329835243486615
-0.0013537389386237039
0.007093993331555216
-0.022226522492114098
-0.016100114635743925
-0.07614885814994582
0.008595774438039772
0.00520915690570678
-0.02666070359462654
-0.040020302883787495
-0.04385050910964184
-0.041699924528210836
0.009964167119195138
0.13718002506956486
0.01847920866758009
-0.015486790976993067
0.011611773741501765
0.0297631502016792
0.017722482507653944
0.014942793003893552
-0.05315926211752024
-0.00770463448100485
0.0322110014339681
0.0042784940914836036
-0.00033100003165290173
0.006380311672198201
0.03249181325456232
-0.05484821087834567
-0.05192309829305951
-0.00013811010688505887
0.013280503244023042
-0.0385794662147398
-0.06656359120605139
0.0372232386842752
-0.020269528362673178
0.0427933562423024
-0.05312825197309649
-0.1307076380704209
-0.03025579016133948
-0.01084549186480218
0.02258643490551016
-0.01816798376851255
0.019540291921102758
0.004017373697350241
0.007423468131031253
-0.019181472158370926
-0.04077089447424219
0.03635421215253344
-7.703008101980241e-05
0.012420177833872646
0.03002459318180181
-0.005076030130853334
0.018953126261975987
0.03920109616202237
0.008380056005173251
-0.0058702891227012215
-0.01622924620317371
0.03749256136601073
-0.010155599650190042
0.05544820730534639
0.12359583939843682
0.01570023175916413
0.0008526235191675562
-0.0064406176318881755
0.13512124330243122
0.04252420901306888
0.015971955602789557
-0.014852861541174095
-0.03131488014472198
-0.01619653056338372
-0.007902112922800167
0.006874173382745099
-0.0029965367091048718
0.016379640281147648
-0.06115333389806036
-0.11229011253498514
-0.04985741392679559
5.619045980905587e-05
-0.0048273638328037785
0.03272160087850932
0.07252981618523634
0.012133381126886864
0.0036331656668813204
0.010649988319988835
0.007120848811204776
-0.026998375821238443
-0.024188068286292146
0.009948929315221294
0.0026213723089211012
-0.10971055223520486
-0.11989504327414409
-0.0019403199766010334
-0.035253045109435874
0.008520894945086139
-0.020803631154746385
0.026414101486984427
-0.01110304296477993
0.014741622210286834
0.03570414542514822
-0.04627798132102139
0.012522543355218902
0.009335544378335482
0.012654602633569045
-0.014933035328440867
0.01457983548230854
0.032433100264781196
0.04257456699719872
0.08255563400713362
-0.0066747468579688605
-0.002286302113075876
0.0024713464681780737
0.026131380818842972
0.0031244567475792614
0.019365036400038768
-0.0013825896871637606
0.0540877688704454
-0.018720917902631577
-0.005150717051778356
-0.018595539893392077
-0.002527328181117513
-0.03135180926193948
-0.01451019540153196
-0.015909784702354213
0.06379650469588732
-0.019068700089851856
-0.007005561566407021
0.014100360029313207
0.02522933203680456
-0.08285306961037743
-0.14223925864930598
0.039772755920171696
0.03231222124039417
-0.08707945355480769
-0.0602209935230116
0.01880819264536244
0.0332281770512928
0.035106275180588266
0.0069767826135056915
0.016162037928133467
0.04235156014454879
0.024250246262122282
-0.01628500596378716
0.022380720838726786
0.02201253188690762
0.013183520985279307
-0.03002633060214531
-0.0016279179267900436
0.027658100542228226
-0.016288946012661346
-0.0009862837415895347
-0.018281471951142655
-0.009102709961257581
0.011265212708630276
0.007534204250181395
0.014749737083694077
0.1872072665760876
-0.007858137860413403
0.0036277484598777852
-0.10376137023100393
-0.14240584849186363
0.1096902966236283
0.1549217888181717
0.0014980271238694152
-0.02427902873493899
-0.005326221631680331
-0.006357889634228027
-0.019885154014664393
0.03918206393880008
-0.03702236413815077
-0.08282943365208582
0.02305650416772649
-0.009982857676250904
0.0010015013225530046
-0.08057274605561215
-0.03453243486630423
0.03487090422223032
-0.02730253821254938
-0.03828128075990695
0.025678477059319544
0.005982072777982814
-0.00823054382005287
-0.046592049105654815
0.04250145321239316
0.0029776897296920676
-0.04676202557326219
0.010489296102391006
0.0011080852449750298
0.014217180663665641
-0.011777198630776808
-0.03697542686521546
0.014531878119001094
0.03064368356302141
0.02811852808869005
0.024340689751359133
0.04206884554080545
0.005822079442141921
0.0019298517245537894
0.0029783068750796663
-0.0027861285319501538
0.016246524481749795
-0.02427612917229719
0.011770243314851775
-0.0288717114280996
-0.08219165116378582
0.0217343444533623
0.013533901503063982
-0.015038963589960238
-0.016609301153055932
-0.02087308334886027
0.02352085246032325
0.010148756682028056
0.11419253123615987
0.08427275418681297
-0.08100494064516518
-0.03955444464515783
0.0476317981198822
-0.014630984499832347
-0.05091798154822674
-0.013352809228767156
-0.03927852712060843
0.03900401489938167
0.06748957703686136
-0.0496971815846081
-0.018185279114592084
0.01378917997163899
-0.023990252861098023
0.003363320216014237
0.016362106601229744
-0.008895050178605243
0.008894396763346326
-0.012148048478636037
-0.021851853227982016
-0.016096509272252854
0.014475898451419139
-0.03015007415508673
0.006862839672304716
-0.005473760652775442
-0.022939664084099115
-0.0031319968647076724
-0.004055355318458154
-0.008993182504481455
0.03444215024913048
0.011873110569117419
0.061252831848027926
0.062251096651930134
0.028308120439414993
0.024482629745619627
-0.042982865918552444
-0.019190677637241246
-0.021530185140026623
0.001809429910358383
-0.017040739791166847
-0.01695418207066003
0.019693157191848554
0.044540045348243254
-0.0006362041389609917
0.022090663849822566
-0.00013554746760967363
-0.00881310974145693
-0.008923409381797214
0.02070701432129404
-0.009549841855383469
0.009924891528627976
0.0197056831149983
-0.00436925092312907
-0.012904125297309728
0.03156766001242986
0.027115091153708176
0.011695611676049203
-0.053010896943834956
-0.010161828647309346
0.03157751378204833
-0.02225945638835219
-0.02516568035877979
-0.0714795393537443
0.01743134274107344
-0.04648284807378829
-0.030407248561242568
-0.030579483762648074
-0.023823284084707432
0.05028326708854416
-0.03485259407936813
-0.04748552959674047
0.0017374781437272631
-0.011169756060193924
0.028891239099770337
-0.02387008866228185
0.00501725085625359
-0.010320066342763725
0.06392282706965423
0.011215118417250687
-0.004802422468190502
-0.03139989233711265
-0.04037738649075923
0.05304737396210539
0.0027605935926307795
-0.0066796974593371795
-0.022802909823644
-0.012249539806236614
-0.020326802980303066
0.002504418645569423
0.07428550936817889
-0.0023111548158069165
0.015476006042227803
0.025344266312496123
0.10396795479692766
0.11575544241524294
-0.006323783695533554
0.016621098455285307
-0.01685524320099278
0.0017774855027325497
0.016564703275507
-0.09486288881971428
-0.009080805066648616
0.03375343891303718
-0.037319863181633994
-0.03291258236359463
-0.04830709483984727
-0.02228661509680334
-0.014589730915839726
-0.015692487796178985
-0.00868517311089369
0.017852909023822208
-0.02091270002307726
-0.00010185650701199253
0.03923144330319264
0.012836695733626937
0.03363997494243357
-0.007008608860558117
0.04209164594568021
-0.005236047995009819
-0.015295392538673097
-0.0009762089521010211
-0.04055884157338775
0.005100605742052156
0.0033208198641475977
0.023694325666575807
-0.05747908505801836
-0.047024424721363485
0.00320308649326478
-0.003782904506618002
0.044210501799413854
-0.010866019215690186
0.014929715625025082
0.07255364779373887
-0.047772341497755826
-0.006361285308133604
0.029157110109299517
-0.012787449586921608
0.01788495503875276
-0.018121346426863104
-0.014782883747033125
0.021706928929964262
0.0033391321659030555
-0.0051780735814145815
-0.02468870084704527
-0.027233024131423058
-0.023179774550713694
-0.026780867709297582
0.006811113366721866
0.05913980258415204
0.005555792444881131
-0.031510378232746286
-0.031132444872786606
-0.03573286169948754
0.0042935110303614216
0.10736334377361456
0.045420065216615194
-0.014121935706842906
-0.009143322850147203
0.00690890567150927
0.14169390731620454
0.012772372660080389
0.004045574956778723
-0.030545028675965764
-0.01150660086647392
0.008728593881276968
0.01873805421394765
-0.035537573399829596
-0.05510325383396386
-0.03568074127927425
0.019461213067456084
-0.03557815657345001
-0.025641108220599344
-0.006789620186970987
0.03323101572853926
0.01812764848923792
0.0007118154901516763
0.016504343201198222
0.00662505879719162
-0.021285428364681228
0.03727559495262345
0.04303557415565253
0.010236980766972752
-0.07766840383807518
-0.09057558862430087
-0.07332098378154012
0.00787505130857391
-0.004087248807871424
0.03685607980354143
0.025609508421129443
-0.020282606566598464
-0.02827074690934219
0.008932191208712551
0.016960652869938468
-0.00399233829665526
-0.013123990902780462
-0.026898369202096022
-0.007687245972002369
-0.0011303160711758865
-0.026836837847307587
0.02406318317065235
0.016458018102142577
0.007880098937282016
-0.0008963837377054795
-0.010596763206592861
0.04347211255758514
0.01632982843605755
-0.014302058271051328
-0.01948039938862088
-0.017473173445573306
0.006296867255860173
0.04310219167210148
0.007610168325507622
0.025722067119515798
0.0136595093248149
-0.0217250907193165
-0.008259476287943955
-0.002825360706117681
0.026699518905110502
0.006529448902644918
-0.08880085189205067
-0.00400713539670557
0.018162935435335807
-0.0035412009709710223
0.03167182101571587
-0.0321264419360332
0.09790687049707493
0.13594958994758097
-0.0392914201895092
-0.008277060371262222
-0.016083411381104647
-0.004005444361159146
-0.05689269473717657
-0.04307243437093027
0.006220079528181873
0.03282756750481385
-0.03599238673408561
-0.03854210498103296
-0.002666871143683837
0.03957637349209604
0.00030287905293925583
0.03152952404173555
0.02232005011025554
0.016923830631450875
0.01425382622049133
-0.002893882392391256
0.0073629660297858945
0.0342555059525074
-0.015305947301584076
0.0019138506542408548
0.003199491985731676
-0.00991917381167911
-0.028427693011811108
-0.014475674937450717
0.03556705416374013
0.0039014240553532915
-0.06455419947063873
-0.004415045750803893
0.030500009443859163
0.012293796934586897
-0.008330122395242199
0.009867627388428201
0.020800029600359964
-0.01465317690476319
0.0316755082671262
-0.06504909756180136
-0.022192346633330275
-0.009526958729029691
-0.0031698033025350787
-0.08698213659001364
0.024967459977316434
0.029861511299623267
-0.018951560586608848
0.013365905565839623
0.010268751710897913
0.013332985487539323
0.04152669868936802
-0.06265933358759576
-0.06535872202069506
0.03853020379196829
-0.057750783788916134
0.010422421953686114
0.028765574184715773
0.009556669671572439
-0.008817033699027721
-0.021555030568880886
-0.015701114594952943
-0.01649951953104689
-0.027944545526787986
-0.004061302055023012
0.009111848169245868
0.07783439150436
0.03416544728437942
0.034210685704738085
0.002945942292330241
0.043191232698685904
0.0019488228457965027
-0.00594535723441427
-0.03854099761739993
-0.022493158631535882
0.042708858239236126
-0.013049629576933959
-0.04277972648336309
-0.00028653690987341527
-0.005304186238050102
0.024967207104356053
0.004701147826709406
0.02127442210680836
-0.015970135354395013
0.017423408000668085
-0.003299395602105241
0.019133892231586923
-0.02622658381766156
0.013815864485558757
0.014283742594952551
-0.0036913064175455854
0.06545035053821344
0.04258240608222177
-0.01388074374764679
0.0005536620579594157
-0.014561189240475704
-0.027622387781305806
-0.025136475230985753
0.003254309745761564
-0.008748696074537213
-0.05520786129292946
-0.00789488947219889
0.05947740722536792
-0.019841426345797122
0.015172367674836549
-0.0023736940128114437
0.012330860027800207
-0.03307704897074372
0.015807848064986935
-0.08084380118188006
-0.07916541783590934
0.05592926016208059
0.03735066830930277
0.056866846854257296
-0.0336715731721043
-0.01801204241259054
0.024298231345393394
0.04122072905401257
0.03768903985816064
0.005080514899219876
-0.00791116377653809
-0.00409521522981954
-0.03146818518631924
0.01363352880566561
0.013177828263949939
-0.015351867042194635
0.0041995948785703
0.010439367915781443
0.010959214784655964
-0.01902464558296041
-0.011115552591922503
-0.009798942157119857
0.006818458479199235
-0.11271970278823404
-0.06922509943545926
-0.003392784435543564
-0.03309526709301588
0.034867186854056
0.01935415555836467
0.13993775027630695
0.03836221533811552
-0.044233175869173
-0.027716140806323796
-0.03698922758546006
-0.025676699824268265
0.013711652999240001
-0.07117739008734818
0.03423821503253709
0.016579082961074403
0.014430442366981601
-0.021841285189369328
0.012964348858680065
-0.05035731463096833
0.0633457012834112
0.043395586205821735
-0.10809588903022999
0.034670771047669885
0.004787139570326957
0.024967560939419976
-0.014359917242544243
0.07410342067252385
-0.003527469446435124
-0.020155135254942277
-0.024175517593330264
0.016874608043100994
-0.0023704172585205046
-0.009803230573836592
0.036220570796614296
0.06882755432239031
-0.013277034596373829
0.03659885607974435
0.025701855073521074
0.017567641726886157
-0.018612828159630307
0.005830087469478372
-0.012107125363418346
0.03909729634108852
0.03932935297254402
0.009382211494136435
0.014539971510851051
-0.010125612361335523
-0.024270868827808205
-0.0650762432933734
-0.0041918183009609635
-0.022065425007844697
-0.010384104031328266
0.03351241500031638
-0.0068357743114069525
0.013377943846531966
-0.001181004713474007
0.005214625278043703
-0.006968671855463007
-0.040095453844288
-0.01329318982487525
-0.014430406675098787
-0.01238839795032856
0.019989414741699067
-0.06275756247414462
-0.00962541990325196
0.0064980781784328675
0.01959048026747652
0.006432654807884163
-0.01783397656032721
0.01961725023699849
-0.03091734011260711
-0.0674906341587433
-0.04261489051504202
-0.026344376532102462
0.015583088592270049
0.00879081170110977
0.031986694382636495
-0.022782840914164455
-0.01423801219133736
-0.03169205952703986
0.05711003283494539
0.10169333085694195
-0.045286872437907355
-0.01834594618579707
0.011254716723829933
0.001913373420306651
0.0029518191879007697
0.018524721243245848
-0.007207436931749839
0.018902164987604626
-0.007258285740838773
0.0101875449972421
0.004384851442843179
-0.03178047199718049
-0.03736976230877623
0.12129286839819761
0.06652651090545503
-0.04132875576924189
-0.00463097228262049
-0.019214087004901303
-0.0030539527583573786
0.012792960783101817
-0.003767943834649798
-0.014207182192127014
0.0028027419120581006
-0.021104358918731043
0.039130359016374634
0.0005076970176751689
-0.014097101738784494
-0.0016235126392051434
0.020378362728455276
-0.0326924933991053
0.027019115632443566
0.020996542733937286
0.056869891073785706
0.015952972471794155
0.03766525179701328
-0.01673806767393211
0.016041787186014886
-0.04455612519972657
-0.07358201996329572
-0.025894284682071812
3.2676988078244715e-05
-0.01833168314561304
-0.02710823791440513
0.0810717641851531
-0.013094975365406028
-0.021035947522104418
0.035336871767219544
0.016065920670077196
-0.03486602118879683
0.011241041100259079
-0.011082562035820972
-0.0017972607151281602
-0.0028763906815944683
-0.05357565485347208
-0.034413637778931146
0.07012131195701528
0.04813690260134078
-0.09800068504835593
-0.11506686217538645
0.05549106423323219
0.01944881076759189
0.050115707695336374
0.04580351583067082
-0.011085335984537693
0.001621730365742217
-0.023303290396872265
0.0170686077287839
0.01341007454894499
0.038677444567159505
-0.07608415783400517
-0.03362549873829453
0.0720819738926441
0.04678779680053145
0.0015420709604270421
0.007213641770514096
-0.04220748625067283
-0.013946698299886463
-0.03141665637516367
-0.02173075466310459
0.052459825939823033
0.06451918358468293
0.019659183712889793
0.003029289390806397
0.00815450749352023
-0.026541474534818865
-0.1644491071301662
-0.008354190929419395
0.03498521855309068
-0.01796905514371202
-0.01857248482082047
-0.0004551527692217351
-0.013769152014761471
0.017834370651265863
0.003782955899131782
-0.04490347748370323
0.018461966003458622
0.008523238718429459
-0.02334065273181889
0.010059707714178991
0.041609004473276395
0.025254407943573576
0.03877676694622482
0.03357828869373055
0.015791615517164844
0.00938092004029118
-0.05140676054742279
0.006525281837336837
-0.010461636732890934
-0.00990142692187836
-0.004627802106077378
-0.037681810484097335
-0.018714146093742886
0.03984938143118757
0.013364865551498028
-0.013226533470546455
0.008486742361842927
0.018079493911602608
-0.030233054529140962
0.02543700247102086
0.007623806978907145
0.008754973833100844
0.13316403198349175
-0.01404024485989398
-0.030252270895633884
-0.01615646891871194
0.00787180155310998
-0.036899505099834626
0.007264602092046833
0.016218215976055033
-0.01901664667019927
-0.025381431380261586
-0.011513549110405046
-0.011720650466363816
-0.022680579353142483
0.005510905697730191
-0.016543032030684794
0.015886152153604532
-0.026158223295519086
0.021467157630763893
-0.01850415135010255
-0.0389274637167827
-0.040304114969645165
0.0002467746274018821
-0.021733885216159463
0.019337986958218766
0.05341186636568285
0.002496026582326757
-0.042810047569489966
0.006082273345998285
-0.031126588667433043
-0.0002126119392786191
0.13993092459733958
0.011846353081778886
0.007478626314250778
-0.027693188617290625
0.02385185832430626
-0.01952819819186986
-0.021442852251705665
0.00015601512880188543
-0.02874719798894928
0.04083859891528124
0.04788231645107683
0.0359429069507278
-0.0263228082538177
-0.003745895768099859
-0.013326867725015448
-0.0029515985181685963
0.09569003681405713
-0.020433935340072793
-0.008409376062508831
0.031072275435613
-0.03000113310616163
0.00840074620312377
-0.016474035507515195
-0.03678867080008673
-0.0017551957912429232
-0.05097656578690395
-0.06217254386631261
0.004562824152858393
0.02152639879445344
0.0353376846418165
0.026747961989408615
0.0012535174297036381
-0.0322226017752513
0.015063579908572895
0.013235094088775106
-0.021442757658397628
-0.016978571231099783
0.004122777195231776
-0.014059025219057782
-0.015110584631960569
-0.021510678231842287
-0.013351090763732986
0.07082860421993765
0.03276030151410844
-0.016431494409132476
-0.0014274087969336042
-0.042732287795565156
0.031786065779963034
-0.009979119651385846
-0.04169823657728443
0.012107483563739177
0.01103812594351733
-0.005272140769742306
-0.03021444610365654
-0.030878680784486093
-0.005971848279416072
-0.02372045006687397
0.013195291492520383
-0.011061815914927256
0.013998692912635462
0.0198379674177747
0.0034961060534867065
-0.036644946654659796
0.03879389945037684
0.11135021943548482
-0.006638131135823183
-0.005066798865707072
-0.011956856203135614
0.02531325605236738
0.013090985742569257
0.03701530692860579
0.011288545813111112
0.009711336653438058
-0.028038040478019773
-0.04462947566616062
-0.026894109292633212
-0.01358308730211597
0.11850335897749906
0.11720897214805699
-0.050930166763323986
0.011912272543458391
-0.001037100448604301
-0.020317309128047665
-0.06250949318102789
0.0013658050283132676
-0.007537004665330279
-0.024248778616771154
-0.043904055428726774
-0.004171092694569798
0.017125825370822603
-0.03451040614817937
-0.004114066894474991
0.0055601667510226365
0.024490297792430747
-0.014300003565649899
0.058816596104832516
0.059416946060708895
-0.0417702777556252
0.023656058659065594
-0.014488288916099995
-0.17184382578209478
-0.03885389768126525
-0.005752833080014441
0.013406706288322431
0.04608849219805242
-0.006582162301081654
-0.006789716550952548
-0.02264133123378068
0.014917679604486546
-0.0012164984649950094
-0.04510533706060928
-0.02919409902086872
0.03477249329744157
0.015851397196614613
0.015621868886852686
-0.0007831958447578101
0.001578141793654888
-0.04674246538602111
-0.015866330446584174
-0.0026091289992271234
-0.012599990571753034
0.005282824613327053
0.03215259548553952
0.028559941938562938
0.032041951817379545
0.031302902577276755
0.013963520316387295
0.008895150136861655
-0.012596938154350503
0.0009369633225769651
0.013603784546354905
-0.003861022013211973
0.023487529294324117
-0.015595276958893374
0.0422453102825336
0.02741807676435282
-0.03918406511067153
-0.010819746799394615
-0.0017221423218788982
0.004151387125752287
0.005790534650265204
0.030944308796948553
-0.017609057251227286
-0.004008496238745778
-0.009661855725974335
0.01153240019410406
0.020333754798908737
0.04347366941065461
-0.0626052035072249
-0.025183721513817182
-0.016207013564378654
-0.04278616535927346
-0.018583387314861054
0.008434524340698971
-0.03789933501708058
0.13255951245033254
0.05650099183846218
-0.0058184775320055315
0.02226103906423243
-0.03710768614260229
-0.023049175640819045
0.019554294346060343
0.0003113429919667138
0.0028389698585725024
-0.026099927002426034
-0.015863160241489097
-0.02680940044069886
0.0017466169297025225
0.016460758610256285
0.007248697094400654
-0.014143599420910877
-0.030300210993450944
-0.01572277582582638
0.0003469246188495443
-0.005022122723515407
0.07556694028625596
-0.16122958745573718
0.06418382474492272
0.07500534270121012
-0.012904243009531774
0.022669355157123712
0.011188545523176833
-0.01567075128209704
-0.016969877674834866
0.035936862231621985
0.01906886553772305
0.01690132750189906
-0.01715530049701201
-0.0010610767965212279
-0.0159336006621656
-0.039370568152445794
-0.01061242238453983
0.0022629072252284294
0.011707423219171613
-0.01867446355580153
-0.016074907998158236
0.008712384767162825
0.03582598417453554
-0.002287154855990296
-0.019417611535339472
-0.021087321962564548
-0.02423994093967137
-0.004062151242922166
-0.009495858687353026
0.030167237618712397
0.002831485829905426
0.022433993477134144
-0.0013087299973554884
-0.030619792532199833
-0.007537049516952548
-0.03571367021408008
-0.07424408596450777
-0.02099810987923988
0.022169247446406762
0.015231041799879094
0.023803263380966777
0.0010324748074844506
-0.017680142302180953
0.026744209894954057
0.028231787972670123
-0.03210459546958423
-0.016745339677131817
0.010402942486805249
-0.015920499904687115
0.11697400171223499
0.08819180625972238
0.011400541391208203
-0.009989452655477979
-0.026292994543241716
0.015692431164695618
0.023263873943875465
0.05449038453966653
0.0018108408319814063
-0.024677807429536125
-0.036039789720089234
-0.07569013188230803
0.05727408467664626
0.035019966677243546
0.0003211048039416419
0.03556909701566354
-0.012770234445066067
-0.05559576060032138
-0.01728073391019948
0.002580925718371771
0.0030228816585491903
-0.0264378311498516
-0.009681632204941773
-0.006912822538653858
-0.031315163837700194
0.016380086709937403
-0.011574925691259496
-0.004190240602596694
0.005104498393628849
-0.004796022935243747
-0.01890564887596962
-0.03654315560241382
-0.00017132456027480782
0.018909882150546325
0.05612917960655303
0.022152042870284515
0.05146638118397874
0.04255293705024203
-0.00626135580246128
0.007742359488011716
-0.03154663615491185
-0.04779268323955961
-0.015137976262235111
0.0018173286419420397
-0.011524636777373856
-0.015114389861810129
-0.011507776059567846
0.006276527146213027
0.009078823826968733
0.006015819916969748
0.0051105526324011575
0.0075093610931417625
-0.050627318166517644
-0.030977406939054937
0.004936092577233161
-0.019748444416666906
0.008700469973676532
0.036874385739910205
-0.01626380722352796
-0.00482730612698548
-0.005355057196264064
-0.02367227007427468
-0.011827288325759447
0.012626875839827066
0.006014501724745229
-0.0005206918192179103
-0.011872967959443757
-0.009902669240139769
-0.03430660953867071
-0.023485435872137247
0.014172057090969387
-0.025390909837902514
0.0005961024643861932
0.0380316677239115
0.005482436014050351
0.0185652001664368
-0.037095831369945896
0.011697187533161051
0.021353409802944694
-0.03193175725004361
-0.056445694057251514
0.155500197465725
0.0784688744283833
-0.05560490717453121
-0.009684097926186025
0.05246451259985303
-0.012171577467500295
0.17932611072658108
0.11235191190531361
-0.015477695496242342
-0.09619645631222656
-0.06029826104930711
-0.006832389966783385
-0.034209110894250945
0.008239644593759714
-0.0618362298450141
-0.024936420733189118
0.02384724638085502
-0.015659725270930413
0.005194476399920143
0.002386516367018216
0.01252245570577092
0.026361575033380463
-0.007641869973057267
-0.011102031715622816
-0.0027161112413232598
0.007920389410621696
-0.04274957981768164
-0.01763341230823144
0.01656482752567438
-0.0016950052982872214
-0.017319254512663952
0.008657285161501776
-0.006446859568081879
0.02052395808803759
0.04252553327068217
0.06223098234172379
-0.009236382034404345
-0.025274429087156346
-0.03214649980406298
0.044290539092050135
-0.008647064851182903
-0.07012814569502614
-0.02007969081689213
0.031759520196307234
-0.12651010068826202
-0.06531513212807397
0.021441423548209576
0.04800564194560825
-0.04106265060313247
-0.00909175835779056
0.003333858642590789
0.01022602795822815
-0.003449895950171136
-0.010394733079818023
-0.006625505102230039
0.06669124390041917
0.11002688154175382
-0.01750885981056896
-0.032097353267527225
-0.07925684342018359
0.0331919117196364
0.059133240512451626
-0.017832391436195066
-0.02259868816595875
0.03328768493069834
0.01979142355371189
-0.01607438941446495
-0.0002976966054882264
-0.014248092362189184
-0.0062191700696686905
-0.030130776270188012
0.10306630733103099
0.04284196833603947
-0.008514581060697081
-0.026025665075154795
-0.03150778504570572
-0.01447000263735105
-0.022411081143850622
0.003494261304779058
0.017978406197346475
0.029839257100985627
-0.01786070006561689
-0.04358663259749645
-0.003283647184514182
0.05096950314561454
0.006635201759815719
0.04217168827924729
-0.0069625109778066775
0.001378373892226463
0.036157964715780595
-0.005406886382017396
0.0009413831292184681
-0.033448699735786305
0.014925544176764257
-0.07905578328988278
-0.03274652968744793
0.014445147901336705
-0.03741232017678411
0.030871296323818118
-0.022481880459352684
0.035497167470862664
0.06324674272039588
-0.0034244992466211316
-0.05694390916234852
-0.06100604089992523
0.017923383464345084
-0.03448720592547256
0.009217169720554632
0.049024359118711544
0.020800306292178623
0.028464256270472645
-0.0030616158793568965
-0.014341689846844662
0.003929657502992341
-0.005249010042493074
-0.02845285888014829
0.013404196228702385
0.023833849020200002
-0.012178001961941071
0.012032700133663315
-0.013794043922879957
-0.026988926240867
0.005123213026975678
-0.005183574490146626
-0.026543429739832636
-0.006587208826039503
-0.019519971198086895
0.017348404497030342
0.011165338006703038
0.06954407674962003
0.06513624662109752
0.023793643398584082
0.015079174186608237
0.007756936097477708
-0.04685999793883033
0.01893473923812464
0.045041859888470225
0.007871452887795814
0.018413592297588245
-0.02855950126806019
-0.054551975802208365
-0.01736302433450348
-0.01402932126097953
-0.004234102625616206
-0.0003153243453905913
0.01664132034621935
-0.06001006192958549
-0.02179834204528362
0.015027391753098281
