0
0.02667464453781437
-0.04553610836779128
-0.02284371815697195
0.017793813642115453
0.009421905345846951
-0.011033655766761838
-0.03323916146782015
-0.017440158228134505
0.0032915032488177796
-0.110717397953252
-0.04337074456854016
0.052441321630604595
0.0049211991343181705
0.027989842920913676
0.020569916571421085
0.0034734794408538086
-0.004421735536818152
-0.050517934474658695
0.054199622732373186
0.02227190340244219
-0.021357759948295064
-0.012801408688632826
-0.030892419440698937
-0.00039079738064268303
0.035167985638558254
0.004291730988611239
-0.0077178224705577924
0.03202754935690122
0.0019173851115221344
0.009879559580084159
-0.04489505760562379
-0.03610028317842223
0.07415763039963288
0.032936663670894116
0.006752981566189167
-0.023420766239528136
-0.015529010416778486
0.07307579713231889
-0.06507826578706148
-0.11706598867793419
0.007086452794101658
-0.00924837190692569
0.047901459573681596
-0.03870677282460646
-0.0009686641704270982
-0.005505488060438155
-0.0037188258979550973
-0.021443664415935385
0.00014101206290554206
-0.025564937446407084
-0.025735287490886403
0.008920685868836285
-0.010770722184456634
-0.001356700356473768
0.015553238329344824
-0.009204315329685363
-0.02132503411570854
0.009280350744773687
-0.025309121036763804
-0.0268235496153261
-0.011732939376994066
-0.00865969457237854
-0.0043018089194634705
0.014166838200911771
0.004935069079667528
0.1408534632424515
0.20018905764486272
-0.03198894130562094
0.03150856939724942
0.03666901904227987
0.027430854606399525
0.009952208612081044
0.007535446460171885
-0.038152371728948024
-0.10518021510662535
-0.1773897558948494
-0.13952053249316837
-0.03889877614910696
-0.06420621080154482
-0.009777138848851317
-0.026190370082380485
-0.03815966769237458
0.09410427582124191
0.02604244950160372
-0.02844062327824506
0.09960205299288447
0.2195659541118643
0.015281118509621593
-0.05860690699506557
0.012333502716430198
-0.01767304097484783
0.02018612398958856
0.009070034811446784
0.0014065269164641294
0.18156634825777984
0.05590121354570761
-0.055103737336435143
-0.02158295029220004
-0.047450832612860525
0.0262135756814357
0.00078382736844653
0.14420020648847326
0.05536307465258655
-0.02035302095488951
-0.016199060309915792
0.006520202854911732
-0.0037189101769105446
-0.04800720385282404
-0.010557794509014567
-0.02536504106064495
-0.013133875687284597
-0.02521246709757346
-0.010041813659770513
-0.009807187709167359
-0.10787911514781057
-0.10555047210073744
0.00413244420594363
-0.010396794952532451
0.020601416653294617
-0.03367568737981075
0.012213323805855056
0.1094679712784745
-0.0642394666352515
-0.03895076144897591
0.029196285721669987
-0.019667354617824342
0.047717511792386265
0.032856057961121794
0.02739517732617946
0.005118000353748055
0.01728526079019021
0.01328597824992763
0.009518259600686538
8.861131200247919e-05
0.015171399317399666
0.0033643550021160828
0.014315262358952323
-0.05573984963351789
0.025255306798984797
0.025359237771832358
-0.02282777210588404
-0.009963922847551671
0.03131412824271539
-0.07887012623899427
-0.14026352741031442
0.05601556618760765
0.014881633553380808
0.012830388216525872
-0.013400968339517615
-0.0041975176697867395
-0.013795207175752144
0.03133641260808074
0.025304341733344986
-0.025273031041505106
-0.019537160830166413
-0.004541317545359915
0.018657495462720507
0.009649009166400104
-0.025805147684903832
-0.04760453745243517
-0.01178613633570639
0.01848091008827185
-0.0033626704403544243
-0.0043720483842195875
-0.013781524200843056
-0.03665518769298965
0.004995125910019774
0.0007028459462308919
-0.03459960445395618
0.029714370905410778
0.14179589630477635
0.07290242549533052
-0.0017939589685838995
0.0472614377828172
-0.04419505775006094
0.04550853141888138
-0.043138282317284844
-0.055752935061403386
-0.02694370159638379
0.01593706908966024
-0.006643395971489738
-0.004614580885473197
0.0020466147843837146
-0.01857829496449052
-0.019692478029397876
-0.023969042605367936
-0.001822290231960665
-0.032945766055250604
-0.009227462046438002
-0.018016800894000005
0.008301485833855784
0.0038090360338397136
-0.007083478655224843
0.019073699255735745
0.02439771928100676
-0.01970107956447224
-0.02257970129512969
0.016292360279565894
-0.02090045366266852
0.0058377911959063
0.01870387530498836
0.058551006308927296
0.11134796887755243
-0.02430844195869461
0.006919839717140038
0.003614341587866047
0.022563359780285678
-0.010559769394557817
-0.001601083130684343
-0.042811937763119874
-0.0323984805435068
-0.018321271487849296
-0.026084804540586568
-0.03178838653615816
0.021891086662389585
-0.003206348033967545
0.010531225047787984
0.014639294510916587
-0.0132852222850691
-0.04313851933199985
-0.005151968783646874
-0.006176684209466415
-0.011753338702554579
-0.02699205721743781
-0.001723442149981702
0.11757267955473102
0.05661223054133895
-0.03424304734541483
-0.010822256976111229
-0.00103341740226256
0.005355388704006331
0.009360338628595873
0.01106657229887197
0.010776028146124297
0.045179346150826985
-0.016489897963517887
0.02360705588046279
0.03435374972992425
-0.0007680204126943681
-0.027860297715307056
-0.008058470018387566
-0.008448107063813657
0.025763376947940068
0.028001807447524816
0.030893766760141703
-0.03557370878330656
-0.020186771727688724
-0.03107861938487501
-0.032608943271244646
-0.009644014739631432
0.0024749299202110873
0.010477018470406985
-0.032681952285740265
-0.010290070226732295
0.00029568966906894187
0.019326345406617807
0.03992843753031326
-0.03584208685178685
-0.03763132325268475
-0.01375670822718452
0.04317288115577493
0.04172423395085772
-0.016700305986742544
-0.018066603895073908
-0.022628573266883716
-0.041567820566738946
-0.019143457681651297
0.047078310543709694
0.007467476839818437
0.0015074288948109485
-0.00019172333773399797
-0.1620080409148916
-0.03550105412709561
0.005595365106702315
0.15229402570189055
0.13614505776316177
-0.061822184447599446
0.004689024630169139
-0.04481242462102022
0.07905756347852348
0.08725438791677306
-0.029608236885578863
-0.02359850314674885
0.00890980059022982
0.03779690445729935
-0.027511983991717896
-0.006640724808796736
-0.026835934340001144
0.02316286953627101
-0.013306508415434317
-0.012957907905673811
-0.020439620894796562
0.005258972460173791
-0.06628961830756287
-0.07299557349524495
0.004962644539778109
0.01866755956231288
0.04023218885394473
-0.018598867888664106
-0.020720448529510205
-0.008486467051356954
-0.034662679604284055
-0.021257295169947652
0.03547812559724586
0.02407967012696406
0.030122571996740028
-0.007964288535909806
-0.0035275531798122485
0.029808741872017284
-0.02235681406300229
0.006435217370886789
-0.011899900670349574
-0.010697737178863749
0.015884157126346207
0.022373798147424448
0.006799710223789833
-0.014877270560031054
-0.017442102708932556
-0.0016335359467485567
-0.00897987012919372
-0.006707818656546005
0.017269069143520374
0.03390193453826213
0.00585047976575835
0.08285812409364388
0.010348509315222855
-0.021624688509326966
-0.0014794964894207752
-0.003925003138513073
0.003095375297156375
0.01783842240887024
-0.028828221273231425
-0.026768508861241932
-0.011835693423354346
-0.003753133511551718
-0.061821369759854375
-0.01352500070161122
0.037094917874174536
-0.013178083603602541
-0.013362951661396139
0.000643518142939037
-0.008941749739810927
0.052228647156021775
-0.01198197755174916
-0.03080115582876258
0.010845926576195968
-0.0005203823086943267
0.0048305446782055525
-0.030456259966680225
-0.025466778830307263
0.03336728220187559
0.0253195967628335
-0.023671524596032324
0.052357991712112216
-0.153566963755621
-0.12356200975573925
0.0440285579746265
-0.029004553532148394
0.013881178162666513
-0.004801719025672685
0.05621188485134166
0.031603980283508505
0.028431487059920043
0.07386134230906989
0.12556303976315655
0.0077997161337127014
-0.010857486686095628
0.14393700298055442
0.014409011610595905
-0.05973779528693207
-0.08380028708954826
0.013192262120921072
-0.006645308716099042
-0.011433911806031262
-0.00721491454632581
0.00766589585451146
0.003958672839890177
-0.01892204398118457
0.010905352947015166
-0.022261058495460475
-0.012791001675510177
0.0013882290271659244
-0.015356159564944103
0.09736327502150695
0.08348483417578006
0.02966272429768037
-0.004484673844965902
-0.0027149350226335616
-0.13961790021939752
-0.046201403129002894
0.001502139118125086
-0.00689714158166528
-0.006506260520721659
-0.06666674356093806
0.0409138080502914
0.059643155934937124
0.0019974730217191135
-0.025852810453144078
-0.01864741489250672
-0.008809090160690196
-0.012044763142189373
0.004190179057217221
0.03096143080573634
0.008873557401366092
-0.027143661839468012
-0.017545141953347124
0.03625133435266141
0.05908731689880214
0.027257997244463768
-0.011198399428406723
-0.027728957985984178
-0.03849217359501611
-0.0035638880627233962
0.003582879232776717
0.018966652596065777
-0.008548011745405894
-0.01589229715647025
-0.020020446894555195
0.03223476027247339
-0.0611363470686104
-0.13501033919036642
0.009853679975240892
0.01098769120008824
-0.10534132727234272
-0.04551348625505055
-0.012354764718386367
-0.03160004235882939
0.026569253133503987
0.015486503174505287
0.042671374178656796
0.03504641659917239
-0.030835569256549414
0.0072402677500290336
0.009127852930091699
-0.005480803014716648
0.00335346029397101
0.14263975897117803
0.0992033232108968
-0.033426642372272566
0.06279964202978483
-0.0011988485159826288
0.06184011358445684
-0.006575068526816102
0.003870167888225431
-0.019190969535269678
0.0404228080788847
0.045371793785483734
-0.037869688858477184
-0.03947664621605389
-0.0320139583340432
-0.03598311260300299
0.0060003383923139825
-0.019868317444317694
0.027318011258283665
0.01184741191722813
0.005373794486441743
-0.016698852239836862
-0.018487477815600502
0.009958960166797816
0.033150592719720796
-0.026243194464373037
0.018455874460892075
-0.006753344629509714
0.012492187096469156
0.0525083800521698
0.017244821135638987
0.004186184961732093
-0.06136694786462672
0.0015643890628202696
-0.041058348016189364
0.001952473174577763
0.035647588612513784
0.02511823797772947
-0.04779949869235868
-0.03938971342486153
0.026075862245606898
-0.0028524579664149278
-0.0376877013545233
-0.017499179243483192
-0.03074626692379127
-0.024415146137422475
0.010328790714697212
-0.0032332641034257554
-0.0028587448686208244
-0.012644013657247745
0.010539970988816256
0.02260858973904154
-0.01647102212700204
-0.015366375516766043
0.0009532562920315263
0.06731714770282926
-0.00032312262883742854
-0.009528914074077218
0.017494959802629703
0.0434724466344121
0.00031884358342393543
0.003154914087624043
-0.03686648277542749
-0.023071161849403873
0.022070480974670317
-0.020817010225572304
-0.023748652180127505
-0.027733055308003386
-0.047663990048042004
-0.013977811030144172
-0.0009313053192920941
0.08945730018573857
0.06227559765133785
-0.018356759047169834
0.0033489142422384608
-0.0262238492846037
0.004549613189479555
0.010243164696081466
-0.004385277222202725
0.00914869750158284
0.017547095052706744
-0.025956257062558916
-0.009408015067973558
0.0021146456778607914
0.007712197870944076
-0.008534237855706513
-0.005329300531641008
-0.019603054258622687
-0.0014962416685058645
-0.03722215620856661
-0.009263990578309416
-0.007197186292945559
0.0021215840163116804
-0.041215321213475646
0.042076999261186875
0.03715529385159456
-0.021411220020009156
-0.026588315249174755
0.013318028972339494
0.014317664085419032
0.020569091047510778
0.0520695045582557
0.022466038372286706
-0.025824990724886514
-0.06560037009747079
0.008831550705005266
0.056101669511168885
0.012400773835076625
-0.041253844232251514
0.005223771366775566
-0.015335123014490264
-0.009918339315157896
0.04435615396806872
-0.004897623233081212
0.018846321249051296
0.004301807311397753
0.07342420341256414
0.03792740771051792
-0.012700813466554963
0.12812175713486626
0.03317218528938959
-0.024310112837546582
0.010789524093638429
-0.021286184411030737
-0.07989514396107378
-0.06132001147231059
0.022132091865212967
-0.02408641714500628
0.008643758994368854
-0.017541474197979568
-0.021072287628827152
-0.03153620022737672
-0.010273398262645872
-0.021444101881012253
0.02368808382125602
-0.03739404344187755
-0.0007789846407970307
0.004800939737850268
-0.004715346591641355
-0.030847149708003428
0.01344571592946506
-0.014077547971709004
0.02844480326819781
0.03331950988843475
0.006383058182833583
-0.032022374184503495
0.12539216141589277
0.13605674857975633
-0.038474431205346805
0.037124841766204675
-0.002992419289186938
-0.0013022872482729355
-0.030218813214525662
0.004336888565431014
-0.039233036344453645
0.0013664047151921703
-0.043931203560530825
-0.20522154770374737
-0.00037848892185518546
0.03343552409366241
-0.015754500304935755
-0.13689823552443878
-0.0949080255086158
0.02098640240877857
0.0025277220904687003
0.03712009506935447
0.021135976572464462
0.03453789646783491
0.03116618066264599
0.010789669601867271
-0.0030346891104815576
0.02525293097789887
0.01406639039654206
-0.010524420985294302
-0.01545638873773231
-0.016760008315600195
-0.02291693114611757
0.02165159640103961
-0.001863097026992231
-0.01198515310286075
-0.024405120371603712
-0.0014143810756556687
0.048284643456405964
0.014293587941522336
-0.0077622424900595476
-0.05096808876454167
0.031761412602891045
0.09911471947740041
0.0005823567971009253
-0.0516634998519968
-0.003610122538627366
-0.014560813493415196
0.03698136216111256
0.028066037479224724
-0.012995237403699823
0.011348568516307443
-0.008648604540876704
0.016027310344428537
0.02602915336663865
-0.011019008896101896
-0.012763178616067324
-0.008151034904095281
0.048274803230166995
0.020013822819020147
-0.030370455574813625
0.010847382719328261
0.1600912019989133
0.04295814746068161
0.02980669002389499
0.019560413891346645
-0.041004996252792025
-0.026576571944998482
0.00039749090389122306
-0.02128503292768575
-0.07300723953914778
-0.005960652316467584
0.0035211052649831826
0.018651898783628093
-0.02823520442010696
0.016975288593671138
0.002701828796620716
0.007891747980215276
0.05789980704190684
-0.03007416391968601
-0.0452973855783486
0.016711796779080766
-0.0282900138997177
-0.018108143954664774
0.015746511475926147
0.01909421394500512
-0.04296633165403871
-0.03776831585366038
-0.0007611514603096949
-0.06320962914025864
0.07873450246479577
0.0009021819204318066
-0.0086961558691135
0.007350747631884597
0.011247280964356258
0.009386226378878464
0.029984842268808935
0.057050631819595375
0.00755233369615534
-0.010820570074075407
-0.12082689269154202
-0.09588661060140884
0.026258974025031648
-0.01657818693179689
0.020145042745854505
-0.007232453696257467
-0.00736164371362225
0.002114851401554068
0.0163950416375538
-0.004373216744039443
0.008968733971627325
0.0007897868715762534
-0.07956211691307198
-0.023866219046883786
0.09377190558158888
-0.035377707932647766
-0.05407440947277295
0.09114996117826184
-0.1429264044464424
-0.07518819070688426
0.005051487740843854
0.05785226690363571
0.044477943389502166
-0.03175894295251622
0.1370823382502969
0.07621473404827761
-0.01875802160776521
0.02229021848742664
-0.02929058372397986
0.004846679936557677
0.007654270366888606
0.0003145599213936094
0.019138144266374304
0.017795035145947047
0.004195175979626541
-0.0028877702810424693
0.0023132230727193536
-0.007520836811161676
-0.0008348893485645386
0.00570683544389788
-0.006497328715411635
0.016393127437345542
0.008081165423163162
-0.006767942144117066
-0.029702718557172
0.002412832870844931
-0.14933344737240017
-0.10362874417024719
0.028813888764200688
0.027859683148182365
-0.019992584710630958
0.06925957012274783
0.10969716693146887
-0.019512565821852252
-0.030652646755602482
0.039889415893854314
0.01612164193850002
-0.028496511302415782
0.028556815711820487
-0.0018809703663902097
-0.0350140177256469
0.009100029487108032
0.02249679378836008
-0.0031245808658145655
-0.023776470783817998
0.023040019893117675
-0.004884034688301006
0.059123471254652615
0.009299612969062707
-0.029676192922091633
0.001738906561938843
-0.0018259235092206406
0.004549897644380167
0.05826954508774313
0.03834496805266873
-0.0025493400792234054
-0.0003564611979047471
-0.014378188939773376
-0.030991751224545033
-0.02967146106260319
-0.010871368208455221
-0.017946695376844034
0.03176296130378316
0.010780091481076944
0.02351294719244631
-7.425799816402742e-05
-0.033030988653813764
-0.0033632517331608465
-0.007497660668344777
-0.023931769189186932
0.014931547367677109
-0.004716755455525085
-0.017283916407107858
-0.0038456470024509555
-0.04873794120324506
-0.00867938673970916
0.05543115068633773
0.015281073352925178
0.013714329619321565
-0.00201622442287772
-0.01438004716511457
-0.021713241039470487
-0.017916679501453314
-0.04057323471662233
0.006094189851231541
0.018014269781709388
0.12570954525602884
-0.04198239078081055
-0.07326519818479098
0.030802368648952496
-0.006926216980456503
-0.0132120623884123
-0.011126799035091567
0.016356334703402628
-0.0036166399114033287
0.008622178106204892
0.034920760293614385
-0.03546490194463369
-0.008459757434917827
0.024152272968363198
-0.01179336509162489
-0.008071396781541581
-0.020952400382236013
-0.007304114181240655
-0.0016034302113805588
-0.014484399433116458
-0.012898528666885211
0.01214099983466961
-0.019230847526859562
0.020550237199229236
0.04473686898689203
-0.0016881049019150639
0.022840532409237283
-0.006490092872686144
0.04425977584240321
0.04023270022236332
-0.014521190053055598
-0.04079922011070303
-0.03740394109903886
0.007655313832218456
-0.0293629272308842
0.03644502944465536
-0.047027862031365573
0.062229285836978725
0.009435608983285134
-0.00513532319327506
0.0113400450079755
-0.025823619902347668
-0.027150849459101636
0.00045148918280891873
0.004095363606668609
0.025055242629516545
0.0034405212188037193
-0.010829639540049289
-0.02248341913007434
-0.02998316560776836
-0.01756212758250572
-0.004094028360192237
-0.006349378868221038
-0.03950278906092239
-0.0070729728840219774
0.010428737951808282
0.01776237925883237
-0.026980220485591157
-0.011125077039646266
0.021956607949257724
-0.03467659454949957
-0.008842841803940536
-0.011863830902545829
-0.0004956018960024495
-0.004460962856251491
0.0025460568091301224
0.19412339260585582
0.05842545031384133
0.01647572999753946
0.046303215584554934
0.018471325754647067
0.005252811087201112
-0.02112121819634161
-0.005874555959593746
-0.023550647686430146
-0.0283800252996515
-0.03234195777938619
-0.0073063166380581196
-0.0227341320119146
0.02812296329950196
0.00996729353363864
-0.023576731752959063
-0.0309726905202537
-0.016118819974656824
-0.018311082176584958
-0.05277095962992817
-0.001420987623978573
0.025111164609388916
0.051744593031582235
0.054205957613215915
-0.004077070607460241
-0.01073088983026779
-0.006852853005340622
-0.0226201808329685
-0.012188804725253351
0.00528605493862611
-0.01750322657519921
0.0007955401767927907
0.0250020935333423
0.013643416750149276
-0.0012738060981464289
0.009505156948016829
0.0031894109943938188
-0.0022799343646675014
0.0131599192531845
-0.0037558672741139346
0.03423737871515618
0.03742609324172326
-0.02533430441855257
-0.002712267597655496
-0.0035846253110702474
-0.05801399516837683
-0.031317185690245684
0.008981133164673579
0.012477683577798182
0.013060375782855125
-0.00444846725628946
0.03874024922182642
-0.022437515698529774
-0.021126887488272725
0.045757262484095715
0.0012529346216597365
0.0020476990810315674
-0.0002961786902531985
0.03031529700783377
-0.1249558117198056
-0.0820577770788938
0.0545124186688027
-0.013180876932143535
0.01503232870378406
0.009670720203183632
-0.08572560367744542
-0.03042459495124068
-0.001960163239136435
0.04736241853601619
0.03927871621693745
-0.008868149369862155
0.05006208655205142
0.015467379423990376
0.034153799549649
-0.022894874561674515
-0.04299540350195247
0.05632294736577591
-0.01530928261169655
0.024321813528398576
-0.019856137391596352
-0.09472032471861912
-0.052249930329528904
-0.02407097137818982
-0.031639634145190734
0.02784586384698841
0.04692972319352083
0.026725162458542687
0.007687371780992545
0.009504848308135801
0.04048122083545058
-0.02966808701319951
-0.04212424144220075
0.059469604004219176
0.06016867273088269
-0.014259463770678776
-0.005307601790203151
-0.0051258056328500655
-0.01729241507543238
-0.027803358526609822
0.01248344959446203
0.03563493310885964
-0.0009971976619939425
0.001940736970498845
-0.005222392825337266
-0.049014018399897205
-0.08799479910828983
0.05599332833356088
0.16547906221154
-0.014067299333118016
0.03199335630694866
0.01481576859030643
-0.0097178170711083
-0.0036815078809776924
-0.009908751916811235
0.011202643822857409
-0.02397896286946362
-0.019163100211432627
-0.006939366718269915
-0.026171124860311527
0.04683020211303695
0.04847846694660824
0.009845535212824013
-0.007853972561199664
-0.03836072985658145
-0.10947212642839517
0.0065587199312822815
-0.038758201668769046
0.011991567577630625
-0.035873786702025644
0.12884080875202658
0.07338813871111169
0.013599236373258999
-0.07096848749635183
-0.02105468828403094
0.009820797638144557
0.000339488179778535
0.025931344165337086
-0.011988087663159655
-0.019670052049021346
-0.043610097340827166
-0.08909688748679306
0.010123041419549198
-0.04903106242379304
0.12469250635513063
0.14838805853967618
-0.057320135458056296
0.003862838517924723
-0.032754134782593126
-0.008646419845927256
-0.007308055590246752
-0.026819530317585813
0.01788160547695089
0.011230080279902813
-0.006625364080155861
0.015360138670719593
-0.007869403493886307
0.03492523209918205
-0.005120129427645931
-0.00583779854601208
0.0002008391430267732
-0.024697441626900466
-0.0059738905361913395
0.029035038916466045
0.003758804161063327
-0.005598653484874476
0.03013776288482019
-0.007349954810387999
0.005421676631014212
0.043166330567956684
0.00282394679174739
-0.001707569665975421
0.021839991933425007
-0.14845146594038497
-0.2098466274248779
0.0071392959458125215
0.04014317008217615
0.01671157755968903
0.03494608925224814
0.03771212839486786
-0.02182058739852982
-0.023667904149020723
0.030816686094596618
-0.00995281441797255
0.005791805518029263
-0.019905310186046972
0.06908298877603723
0.09647485313541174
-0.04183331189222259
0.006053543260397382
-0.03223631349854262
-0.003305227312808123
0.020745701542235248
-0.0146492184856018
-0.0747109790833578
-0.008771440091033578
0.03702332041610907
0.011154478334840614
0.008105632584698706
0.0428259934744085
0.030216277502253124
0.04958712998130971
-0.012995068627740282
-0.00817053798679941
0.009778103208344392
-0.04934453220213654
-0.11316850402381477
0.021975764900102994
0.0014066333183625232
-0.008968773773532196
-0.01812624698689928
-0.09951981147932776
-0.020461571212532472
-0.007642551284918722
-0.005835756513318787
0.06210227443823478
0.0556710145249626
0.012104832707091317
0.03191021316095287
0.021533612507853375
0.015601731776015173
0.019514727686059982
0.06389773517047864
0.018853392611382986
0.0009095128993044842
0.03905774333052666
0.0031797018961001724
-0.021645633433591483
-0.01733872955731105
-0.011096826347339108
0.004496478527011901
-0.02830201158465229
-0.021283265892993758
-0.0014655679544468684
-0.010245407678826425
0.07940225434445458
0.06263217863075836
-0.057999511370873134
-0.05073135680841438
-0.025971278136028755
-0.04547406384438119
0.04948779237520781
-0.003568599204966937
-0.06125991329904194
-0.024357134967966463
0.029769221588163385
0.03785743126595341
0.03553039764061494
0.00937353950465836
-0.016092135450313357
-0.004656069800658682
0.01282717175119838
0.030063453006187343
0.09730076846066979
0.08163128441107859
-0.015200460721480047
0.061937685712174
-0.1084336033261961
-0.11502869118772846
-0.003977969870728227
-0.06726247131159614
-0.016534180589298484
0.0037893449790827928
-0.0067174634347467056
-0.0004022803152745808
-0.015578545866105862
-0.0027710371257660166
0.005477167902362005
-0.0011127130749447516
-0.11072441328121198
-0.00803695020787299
-0.004663833162375571
-0.018175856812139266
0.006515914963343982
0.0010307797864976666
-0.004719725196927004
0.03573128801736419
-0.001866450778834081
0.025275902270916032
-0.00904997179034033
0.01221710604738305
0.04337026780261743
0.08262130379606947
0.05893027322605609
0.0034152130300423417
-0.022885132958930347
-0.0038940978449440973
0.03427797204337848
-0.016116891508065435
0.02173037345309596
0.010043267585950841
0.025143243450329478
-0.010371522333830078
0.03759453681448684
0.10331089793248692
-0.001816880597300546
-0.008693148340367794
-0.048345164019187606
-0.05089674964699344
-0.07139446481752319
0.05070766902393062
-0.08381239479680483
-0.27732446741333633
0.11342227372644369
0.06648904822994617
-0.025488077411703437
-0.048284834273169014
0.035059473096539916
-0.02385732554785843
-0.02283563114796398
-0.02626015842436354
-0.0008874369504732178
0.028128621643303556
-0.015988713671490202
0.012611655644373927
-0.03281643080032821
-0.003924498212273685
0.047749774453453846
0.051879953319244304
0.06931708814796268
-0.03247109362606377
-0.07424259466342308
-0.008753868951400718
0.0074497897457255465
-0.0378037760326619
0.01844758322329945
0.004220344705963339
0.11401759062070206
0.08929376537745719
-0.020069345009442907
0.011339302810144983
-0.028667139313543883
0.022099704354369556
-0.08413365662533766
0.10623002291038706
0.1392379198467957
-0.04483518513836063
-0.014936263300593557
-0.020916041857239283
-0.038660801875796055
-0.0027275381524796585
0.003652639848491248
-0.01041778453509856
0.012889141783661077
-0.007803535675490729
-0.01683817241252394
-0.018290915098097153
-0.04351749692470724
-0.037489703270438324
0.011962420717819304
0.01811407954153238
-0.008374838566345999
-0.0038972900617380564
-0.010995295821669976
0.040746320308267414
0.02449255416512955
-0.0036766892281133202
-0.03744447530161892
0.02855991056977558
0.05650507008134045
-0.014194896356575119
-0.014193639259570918
0.02472182623991145
-0.044716576397099035
-0.06932814703788777
-0.019272134972147827
-0.004355199221485947
-0.00894097434143236
0.014753950242679878
0.023145140941433242
0.016475489271512503
0.03184902726632275
0.010889220398097222
-0.004421077962740194
-0.050096855365105254
-0.16353642821773698
-0.03304818849927813
0.1883457477026902
0.05376408344642884
0.036832823183705315
0.005881556583881322
-0.0017380381449914578
0.025553802911175198
0.019007667243020936
-0.01477683421175934
0.012905629313234553
-0.049559820564913454
-0.022384551509502523
0.008371369125685554
-0.013194420211204788
-0.04407851787510509
-0.01960084416309078
-0.0031517040412482157
0.042790929611987
0.03134259808786346
-0.029892867956813382
-0.03333430617868722
-0.017466450109373744
-0.023065452252721025
-0.005855091515748148
-0.0009897169536039186
0.05924708249845455
-0.01655387375104605
-0.0053817337573819
0.017518995734114536
-0.02855812854832006
-0.014085938242565795
0.01833808807434141
-0.019939276769076662
0.03211372207204344
-0.03148763583172857
-0.008178744281204398
0.0065357243731953285
0.0480362824796774
0.05896714411808098
-0.00027061795566042635
-0.08969862429815445
-0.07455620358105772
0.02273790319926482
0.009298621327132396
0.03429845877544019
-0.006107705535320815
0.04410762867696439
0.014893310908973726
-0.013607770981116598
0.033289196119107876
0.04278378219319569
0.034123287590441885
-0.006851161502211345
-0.035557446281846226
-0.018434175642756904
-0.0068699897170621405
0.010082507301670368
-0.004663730534725492
-0.010818486085361777
-0.08339939745563277
-0.015671650671964948
-0.029146450117256032
-0.02339655163527335
0.03643308926445379
-0.012136273280971499
-0.005801459465165782
0.00209356177539516
-0.025091109465191597
0.043892967819023396
0.025204421117493762
-0.018389467437047276
0.028611820172264775
-0.013330708743758768
0.0019784645523884753
0.03944433604633807
-0.007550207313592109
0.008544118275614422
0.016035727300268064
0.0025048304954721997
-0.010405311615452977
-0.014189841576234026
0.04316868943614347
-0.02797738674978647
0.009254419238884187
0.03052384951072923
0.027670732903058624
0.0019703650532247327
-0.0088393846408979
-0.007272500708638478
-0.012501627360853074
-0.031518241947685245
0.021496460267014444
0.023804513429856754
-0.008855074792748498
0.009006744441873061
0.0016375071900364524
-0.023804034242340535
0.06423988815112075
0.005333347458193948
-0.006144263954663088
-9.457396251983852e-05
-0.013305536619088386
-0.03241903074983243
0.03532756107150272
0.08446071314545815
-0.012597579511160308
-0.02484163173311396
-0.019703143906559365
-0.008651258408006646
0.0014390947208681203
-0.044348204735202124
-0.02898496195194971
0.0016081305225697905
0.008646292919684277
0.03808107000801276
-0.0653328452743234
-0.10386377785526898
0.07420624836552918
-0.021517190161203095
-0.05827095818924733
0.033501388793265655
-0.003630457133781812
-0.02396367456667744
-0.03079404310205186
-0.02986187067841773
0.02542471685707755
-0.01006530762199414
0.009655288868845334
0.14528911195420335
0.018416356775051254
-0.046280092840021804
0.04780361228326822
0.041872348352568374
0.022841457447599554
-0.074101399978882
0.035259583123083506
0.051970362797632105
0.03536249079279783
0.009853757401813977
-0.07824928951237163
-0.13692197869554099
0.02062316809654828
0.025440268596536208
-0.0013580067870592677
-0.009773650611977455
0.00141911895695313
-0.052092099139451016
-0.045049592813038344
0.0896848856320194
0.03795333991398364
-0.019524445929440335
0.0024588919125894163
0.026883987433760304
-0.005871268907133152
0.011367060009919805
0.005074082138113293
0.02932856226978135
0.0032325730133905177
-0.005662607099370873
0.004244406322204994
0.006658859400640418
-0.03815628569862123
-0.03364867249453852
-0.02799810183210518
-0.01708020806369052
0.03858686030586787
-0.008212185961143072
-0.004088148480868227
0.014208362901726201
-0.0022036988555856727
0.027202580556170874
-0.00782758701221062
-0.012423292001899037
-0.007109364452581141
0.004626066755335837
-0.040578569897639034
-0.058836993484192884
-0.00877077964290854
0.0012187074429345845
0.05250779321998332
0.03515977670239366
0.0020505531942231225
-0.04634813195199179
-0.000482375437678193
0.1697865996960298
0.022918443340345936
-0.03207797810903029
0.0029627747920593136
-0.0377094454594054
0.017767439196065594
0.06669667640895088
-0.026255221310742496
-0.02226213486274289
-0.1032491250426947
-0.168593627663544
0.029461805001344266
-0.013832973694140431
-0.01308618038410131
-0.02716218039451224
0.024770552071703276
-0.010120872119733329
0.01477043451342098
0.08942767210896187
-0.039777143640513137
0.01424060899474361
0.02808761721662529
-0.04168060345958041
0.10407617242746162
0.045589547907430604
-0.03823823102822795
-0.021521514669928035
0.052857283559589394
0.02108860952580363
0.06150759864376728
0.02552605042871792
-0.010574010629313228
0.050049662941829505
0.017071488623393232
0.010230170240844482
-0.03038481554231321
-0.022239564923985544
-0.041539118780656095
0.017207180911417198
0.008177282492848728
0.0004610764914350527
-0.08957770602887531
-0.02143552643245131
0.02709322735876837
0.0032364688253512237
0.024726797320677493
0.02269474063684423
-0.03865893721431969
-0.006976775963300958
0.013410612971143342
-0.017703414896219266
-0.015151676656300829
-0.03714341677577371
0.006905930863287912
-0.007756188961533486
0.010885095742896455
0.03235899616358371
-0.02094553698458496
0.019868889726220536
-0.03168953540600056
-0.042895399899715546
0.02841519870894319
0.046909371360113396
0.043227775704655795
-0.040212581404449346
-0.0038247140379329696
0.027799827739415556
0.005583994995447418
-0.004020129997384069
0.021278026116945913
0.0020815552221243572
0.016847096628822583
-0.04665542572661179
-0.004246426866360193
0.02612600360433212
0.007883994172828911
-0.015420397117049588
-0.023356554509407813
-0.03102218243906949
0.005768318144958023
-0.0020540224625661377
-0.016300292406814486
-0.01992378518266289
-0.03662807368228066
-0.02838139928357138
0.014813979419162683
-0.015649653039673188
-0.04421366163384732
0.05511717028726051
0.06673019198574111
