0
0.009623781774019312
0.004281122350402232
-0.013822245252623962
-0.021936301232169376
-0.046687490595204176
0.00938004969725268
0.030858041760709328
0.03065330441603261
0.09382707784556503
0.08176375143424103
-0.020670548924062362
0.007306135010361351
0.02472221678965113
0.004459639253328975
-0.004553527992136801
-0.011695166784323696
0.013412508220401503
0.009203966762580475
-0.014981919859169718
0.022659783282905008
-0.012089541415267507
-0.0002351727004354978
-0.004640459672942313
0.008184944682974609
-0.013862381204448234
-0.0038539567137048625
-0.01915153634479125
0.01948716459101333
-0.010287791801719124
0.015640306279044263
0.046183155944049425
-0.03227263200970186
-0.002266258003629737
0.03574964568940787
-0.004170500851773298
-0.024609735502209743
0.01318386377650028
-0.015077853039631278
-0.03135800111909427
0.0005376214168599997
-0.001732425953891873
-0.0167617840337131
-0.09348399303254705
0.02831848128448159
0.06413672480180263
0.021206239896703043
0.00804296160793759
-0.08239571151693317
-0.21536452660596717
0.09147318194960848
0.060450582523364105
0.03222726966780223
-0.014438564939711034
-0.02518151518277258
-0.05953410884549676
-0.048279856837525705
-0.020278441055998013
-0.012251194988500923
-0.008070378825238145
0.0065518501357444735
-0.03692960923107806
-0.07055563621100464
0.06599360580453265
0.026129641392160237
-0.04272288906347524
-0.0019086044199371742
0.17031731748386494
0.09791516947481632
-0.03549953020677481
0.03524318121502723
-0.02215347976019041
0.0006612434768983173
-0.000537765630729695
-0.014030457687809717
-0.003693194104392538
0.01521335537049097
-0.017910830648205596
0.022883571905151813
-0.04502623693289436
-0.06150210604381137
-0.019354877353823123
-0.06204206245502473
0.10135218829412142
0.1280586712978066
0.041742657586375735
0.022198585002413646
0.010380720076619379
-0.02432845616810106
0.015481194816813922
0.02053221104722467
-0.0429515796156713
0.06804248638491553
0.01863025378504792
-0.010932987677091614
0.0023147408949474426
-0.021788907906863098
-0.042232780931120206
0.08532836898600353
0.035006672981304617
-0.03320160386963616
-0.04902398258658314
0.016613030937481798
0.059388463539350234
-0.014867172906033194
0.024098604456317178
-0.013604964510454433
-0.0072330645619382026
-0.07142396459457435
-0.04280140437822528
0.017492600796651436
-0.00441817325166976
0.04828799987524522
-0.021446706062327
-0.02793653148536726
0.014841093211405879
0.004827104639125877
0.009482690323971928
0.05116923147188907
0.01633388331279297
-0.1998651745617861
-0.11426872312781707
-0.006934283820382394
-0.028772929803327192
0.010296965348007057
0.04248556714397566
0.012384133579541013
0.059856633872056385
0.03076049613326141
0.00041060070461076384
0.004277201102359559
0.03575918359035565
0.0028012844135134286
-0.18492807697886018
0.010038958880506937
0.05169516924030936
0.006860311088983735
0.07098636169756944
-0.008106253706850542
0.015957848977556352
-0.003094078094791615
-0.009399904252469523
0.0034509289968162058
0.01488804877441148
-0.0023577250465129885
-0.05262115911231377
-0.027049695217449692
-0.009964262927850537
-0.006050200855275239
-0.028989208031334354
-0.11489013317797174
0.07110229891674179
0.08861606223974043
0.013169629889084565
0.029587993890776803
0.05116524779903374
-0.002136318787841749
0.06074625944175858
-0.022980707946039798
-0.03655712000596622
0.05591225512751388
0.03483874296964839
0.04382916997466657
-0.019394703165920697
-0.0072031313248527495
-0.011291026901302346
-0.024994235205108812
-0.01244767011488594
-0.02835159129409638
-0.0195054222687264
0.026357843457098924
-0.0457713214171735
-0.003831734185990884
0.007481449446622447
0.033103110610333636
0.012358327106235151
-0.0070123744714189525
-0.022479165921444895
-0.01815893171117707
0.05384629423705702
0.03486127897990854
-0.01264850361312489
-0.00966353944566907
-0.041139431832934586
0.011092879737603131
-0.029672593116671184
-0.022073516688018185
-0.02696575103432967
0.03132373077599238
-0.023170232376761343
-0.0401577514893309
-0.002594063098942758
0.015956531994903034
0.03125181713539089
-0.0015122521031634484
0.02541806524985045
0.03244552987534963
0.00539595165966778
-0.04183879994037052
-0.02721599424482616
0.014502408220295495
0.0050539025638206714
-0.0280723166499221
-0.03373162985655948
-0.016880269929802683
-0.023792896766293946
0.04728561757892094
0.01672645162041848
0.021505950349106344
0.039068493280496885
-0.049415370863560674
-0.04063404506606869
-0.023347304113741963
0.03233684676814464
-0.019182557605675398
-0.006925533751571316
0.0420468061859017
-0.0074958197459377915
-0.022294507467591262
0.013853134079242716
-0.024716692558826137
-0.0037552376621626912
-0.005499422006157451
0.05175752477217747
0.03300086469265456
0.008981013699424827
0.020034391750370795
-0.00676398091279578
0.012656441088691888
0.025202779497972626
0.045121504809751814
-0.017329458845157478
-0.02108524528556193
0.01177363947013
0.004795794316233734
-0.04214077604129149
0.0897640064954457
0.021495072866838067
-0.027235835971344498
-0.026129984966215332
0.07072518290796781
0.02969663051745835
0.04718869440303782
0.012466797603543993
-0.007658983679052955
-0.017534794816076713
-0.008405740836144133
-0.0013054381077101805
-0.01301321118231638
0.02350993904941516
-0.020263546528514427
-0.03382759607438303
-0.14848771259831142
-0.0721454933224819
0.07298897100389382
0.007430890123477978
-0.06585440795189376
-0.044187747451557735
0.011398072113996304
-0.012126456752552113
0.11191923265270051
0.09164274492663156
0.02481643603061178
-0.005349776972265927
-0.03799006706567988
-0.20168296611586706
0.06652508460000713
0.030597485679091787
-0.009983754400447796
-0.09693267373821716
-0.014804684664203907
0.011940119908436323
0.007438982480804963
0.003959938891738409
-0.0014298840476841446
0.006047683552277943
0.024960021619836185
0.09322219350880907
0.1063915738191962
-0.012638824870948966
-0.015638106840137746
0.02290377452667743
0.037130262620852304
-0.0033996442866125803
-0.03831125962833715
0.012045328942222142
-0.10997799746889174
-0.03045351616421778
0.018838161654167945
-0.019160339422512645
-0.010095763235741916
-0.0075950200015807
0.034155631248718746
-0.010934538514758348
-0.005304129025260857
0.03208387495879956
-0.001665752363052496
-0.0239409947901318
0.0031877428688522006
-0.001640396254303737
0.01382462003984996
0.006927503991272278
0.005511723424792956
-0.0031826893232914156
-0.02843093179371305
0.0573649576447913
-0.18095345801910717
-0.09546903016760956
0.038321757871512936
0.019858995513075507
0.061105794830309035
-0.01874369268664123
-0.011169034217459087
-0.010494834340686668
0.036195942906552286
0.023493805535310167
-0.015687867467026943
-0.023643844333051875
-0.008228346518470181
0.010235920686724076
0.022152659986818975
-0.012770142727112327
-0.0038825980084198197
-0.01616603485571263
0.14152431286182815
0.06939758976043868
-0.02297388989650155
0.024164117174850903
-0.05514582904165459
0.0012006442408829987
-0.03167392565480648
0.01034709627021127
0.009076473806917514
0.03083827688149526
-0.005056642086806424
-0.016684427657428502
-0.007867737462355561
-0.03988878465232526
0.08954732723956912
0.03896205720976911
-0.00465070752814773
-0.009875681421976987
-0.00034293356739605426
-0.0069961896942804715
0.05262658713387106
0.01500562075215749
-0.029902163486457134
0.006300694108362278
-0.04227845139125265
-0.030056593195179403
-0.005625618827393952
-0.00822051145833425
0.00041963814536049107
-0.021947711209871136
-0.002820763305241852
0.030876473732298054
0.010856173871970227
0.0178893160605513
0.09698364757887006
0.0004635187588076907
-0.05138174340423707
-0.01571699337945226
0.00983249662594862
0.04017929971803124
0.03557416948327964
0.007435583211768876
-0.03827195972022196
0.044621567814079735
0.0035727357047562586
0.03523440815314492
-0.061553760389723426
-0.012288395410053755
-0.09118503262341864
-0.008371709026769123
0.051467099185431624
-0.0006423992263313476
-0.013069722609317604
-0.017380303658755227
-0.0330468778427085
0.06659482654656378
-0.010475022292842721
0.0023831842481616245
-0.1572524976960016
-0.15641227156318538
-0.022652578932549586
-0.04036900316581637
0.05211956229811011
0.019586017869244594
0.014039163874251344
0.01204167416802667
0.01069512781739075
0.010299067839290387
0.046280815223575356
0.018127618263075938
-0.014453973111857015
-0.05099442255855358
0.03808305699134084
0.01564227037319246
-0.016073417853523075
-0.023358921392491974
0.03760054265295227
0.05066013188693438
-0.0011745421794576135
-0.010930925299153236
0.004289785860760221
-0.009986766377145607
-0.016910927661021955
0.01852272007867572
0.010300199304179424
0.008301684695083475
0.026918501886291184
-0.003800758646303616
0.05959345717333088
0.010145868678240426
0.03857138852002421
0.0210188569921591
0.01712373361415406
-0.0015182216613004223
-0.05560213632949878
-0.015609636704095473
0.049017804954203666
-0.04327389944248215
0.060468230777763
-0.008826902466835516
-0.07689895327138822
-0.00564522619452652
-0.003859537829775748
-0.0171056932646234
0.0038912026571045954
0.10566097373234241
0.02786121319599334
-0.01960193804245291
0.01880102145304711
-0.0014543164991802058
0.005564113127554566
0.016465647155535577
0.026983133320286772
0.018066652462811434
0.002700981806856602
0.04419629480623779
0.048331096855598034
0.00918289787163053
-0.017639389216804666
-0.17337507256045573
-0.028245662328421163
0.0689691870243995
-0.03913455187542777
-0.16773707729225476
0.011936821743684774
-0.0018698625416030152
0.00476369685556932
-0.0291196154127003
0.049616369275634765
0.007116150761609641
0.011410634559255282
0.0043212185430412725
-0.06578841180971616
-0.012936762370163078
-0.017872338381455116
-0.01592429165035036
0.004545378175312262
0.010459667427183137
0.016605865309690437
-0.018686206181335045
0.025406316187263304
0.046496309954175065
-0.03442700540929387
-0.0264091589151845
-0.011536240586294008
-0.017077289864142364
-0.02103262423137763
-0.033180500292799335
0.01542686154539929
0.03784384775776814
0.02741882135037741
-0.021787125496634772
0.0568878420375158
0.021468759026011346
-0.02717806533893094
-0.019847990703758644
-0.01160996926804627
0.020581752153577552
-0.008876260766221833
-0.049501262835879
-0.04197931395510547
0.008984660509297722
0.026154236359391902
-0.008391168828020403
0.0034070386673100213
-0.022370761440318708
-0.018739584019593854
0.019158945667323297
-0.07118030267130629
0.13639459080523866
0.1017748391115434
0.014929349713133176
0.014197318222771904
0.0395447533232962
0.03355499092623907
0.05042826225215966
-0.014915419199191864
-0.0024401664344751847
-0.007115321108420846
-0.051973001126589646
-0.02368792100338129
0.025418867684512216
-0.003186439358248409
-0.06641192343061564
-0.03510585621570337
-0.0620606827229334
-0.032610835384546386
0.00736597836210365
-0.011344850911710865
-0.019644851634676747
0.03378573086969228
0.07547485303931524
-0.0267403282470917
0.05671616437763072
-0.03506853174189574
0.049677156135845585
0.06937576030851855
-0.009974158685293423
0.03237178205409796
0.010212565842553322
0.03135466500525089
-0.005935803823776547
-0.01063977037139773
0.024763033822388057
-0.041066442686698366
-0.03595947050487161
-0.015961346815356037
0.05066361356157044
0.03707972662855571
-0.033125451343204375
-0.02913554640569665
-0.05552336646979473
0.018931008506699844
-0.03994300995125685
-0.022577116209395676
-0.004717290703084921
0.020520540503279318
0.02284059775561391
0.04117992544380404
0.001623578791722011
-0.03548517633415825
0.05183843731478536
-0.02038738617335059
-0.021657665780489187
-0.004502591338189555
0.006415367876383258
0.0028866989979367207
-0.05803703769197188
0.009997939441451654
0.02793838967073105
-0.0044823181816293755
-0.02819599757083622
0.025658122881188114
0.023758706299839817
-0.010924643637176698
-0.013207727304680271
-0.014918067915025979
0.036935059335614535
0.019954485355473423
0.002772346649809319
0.0012784553032029182
-0.016929719708521213
-0.0100811137433444
-0.04343364033492965
8.654182053064188e-05
-0.04964572425146075
-0.012655626149631295
0.06709703372809078
0.005827162280916502
-0.009630873538180817
-0.02392724938220681
0.011289333964245443
-0.011790481097963618
0.054570136974378354
0.12764256559941395
-0.05859951035840355
-0.008118305950554579
-0.03756421124600759
-0.0069694995681431615
-0.056729940802728085
-0.025793425880927135
0.031025086015220343
0.0020245155567511137
-0.03373446463405763
0.02310336671209329
-0.01697215752338017
-0.06727356571708266
-0.05778213066685452
0.018522387165403473
-0.02018990211902771
0.0017025588074190002
-0.005766493295482965
-0.017631104803538713
-0.05782229746765583
0.18146065541011477
0.09517093933831419
0.006848931147026994
0.08297783707921325
-0.022495485031101357
-0.030036468962824293
-0.01019980161374903
-0.035319261906521036
-0.017233926311727564
-0.03384747297854896
-0.023113175915822546
-0.009127659201035563
0.024374700847367953
-0.01651280402737482
-0.044247398802812594
-0.06672918952328973
-0.1751662552516087
-0.014472775215243407
0.1636389104951479
0.14609981096653807
-0.06970027175754481
-0.01767240661353368
-0.004516614520042499
-0.02009797540891628
0.040380717031822826
0.010179686342768939
0.021399858326638273
-0.06301632477885147
-0.03736083412692697
0.02577778123852563
0.020460653438588144
-0.005093907037794735
0.04853321073457801
-0.04248506646913378
0.08356773918176076
0.2915303186959746
0.03658056514088565
0.03351444789691906
-0.013114356326115378
-0.0007791225514678101
0.013071605511801372
0.015037751509967253
-0.030685474977182388
0.018993151491133765
-0.06321337499266262
-0.01734089052895291
-0.016270084487967632
-0.0031906658894162456
-0.005331589754851604
-0.005631850649748193
-0.03301885830798548
0.02180476437596946
-0.0314100867255716
-0.11995451515481177
-0.037131132499534994
-0.07669020121245075
0.007728243661248102
0.04276381438251028
-0.006391657810049433
0.03055893152755254
-0.03655857711775976
-0.006346625921207687
0.03612786293361508
0.008973846098045456
-0.05217139555308134
-0.05487950919562823
-0.013581335777510726
0.03804972660250146
0.009496974190593626
-0.013578385741558523
0.005794535689735682
0.015579393540581146
-0.005426141919258743
-0.006168850597975267
-0.017233780535291184
0.02531640398857145
-0.000992191729872605
-0.019723841500668953
0.005679676467134457
0.033492412720250914
0.019417833038993266
0.01807485272883034
0.005583727107051496
-0.01640704732876296
-0.048974527286914614
0.07613403144281738
0.04203887030689342
-0.030855474149727533
0.005820625674329624
0.0255945233442741
0.0011890302022987346
0.016288643482574586
-0.053546892606343474
0.01012835028115849
0.05137786852259951
0.0401900227243575
-0.002582323168776643
-0.027420081299867675
-0.07871255064978155
0.0010031207185775494
-0.02040635740943169
-0.0059960516217413265
-0.015449862558921888
-0.02412731195680224
-0.011912913938524934
0.05547950706213484
0.05526061438291301
-0.059455995323227734
-0.11677228859648463
-0.04337733942713529
0.009802819643077052
-0.0008261532205298636
-0.0031845748528813176
-0.02007082683738389
0.02960922278426856
0.026956715860517646
-0.016404261581064703
0.043001254397411086
-0.019201469052851174
0.021613166553445914
-0.00654705048023756
-0.017920125488377698
-0.05797884751393919
0.14851136900860515
0.14504352732845688
-0.02383724498279918
0.007917759693730321
0.03599208036091945
-0.0022386861897048605
-0.0008162410948502914
-0.018677128803295147
-0.002197350711017257
0.03733344818556169
0.045686373585230325
0.042337085102964876
-0.0022045665158295256
-0.003835706504836607
-0.012803985675611423
-0.036903545955025305
-0.058157146756967176
-0.03982285185841827
-0.018470509808509162
-0.04348532480185977
-0.023696671725799385
0.032355347459451504
0.02646059963253794
-0.04238342228893592
-0.022631216475202526
-0.008217596156771388
0.08505837007978172
-0.018203997176846308
0.002043901320257059
-0.009822606722294326
0.014667128200397346
-0.10045323055157752
-0.10612559182376474
0.025283862402513894
0.010486164254199144
-0.0069541754421212
-0.0013189934402334062
0.0032349627365436335
-0.049633178718324684
0.06632891843756177
0.0095788304795082
-0.019774406097585493
0.008460310457097909
-0.0034336996025361847
0.02000291716797426
0.04683458720382742
0.02190724535294611
-0.059118471212750615
-0.00556396608692685
0.01319373797097951
0.07566678257764352
0.0909769432125678
0.016195454628886073
-0.04738636900674155
-0.021277755391056547
-0.056851862027842065
-0.04139151908310775
0.04503078060447673
0.0057210065057549326
-0.003486829856045282
0.04038400244458304
0.11396518293913216
0.01263929229353348
-0.044872149703117245
-0.022954920348070028
-0.008738324253388097
-0.014437293891000335
0.013709825390882668
0.05111561224802054
-0.017522767713796315
-0.06565419473321395
-0.029218487808726917
-0.01036350271975907
0.036189010202269445
-0.027053963741877272
-0.01121913418028554
-0.0030386880266180987
-0.050870761659093294
-0.037148067424158646
0.04360621652903212
0.005713503010771556
0.039050578921012116
-0.005052002564390569
0.047941532872382
-0.012940644889255691
0.011163957125897626
0.02405207910268244
-0.0253464331624831
0.020039768550767497
0.0981334333745993
0.014103374075670524
-0.09835763656413911
-0.0647344421216379
0.007555189605998895
0.0003552979758203603
0.00579371433272965
-0.020821804835120375
0.05962366143949232
-0.0017220792310227795
-0.011292181794168826
-0.05095962678851779
0.04293838825309246
0.04839750007635682
0.019263663963881263
0.015634656332977646
-0.024871708790612953
-0.04016426864352553
-0.006916775945171364
-0.023398539217496357
0.04153883784974847
-0.01219078656564017
0.03436980269404468
-0.0022718635072201724
0.014982228500181678
-0.15266882001754423
-0.11202637225824082
0.0014635265829345604
-0.052350954118691256
-0.002499930225438291
0.012971307606314297
0.019793893122346914
-0.016539252193004374
0.06721570593825484
0.009017139893914065
0.007597171197197084
0.006309444410703265
0.012023771439348227
-0.04724538049234805
-0.03133919407772653
0.009221372391583191
0.10972476851771472
0.1514939354787993
-0.04174275345900364
0.005503376830460037
0.014404149657800104
-0.024741628507766664
-0.04273362350491134
-0.021954870110230697
0.013343788181750839
0.02473695385170335
-0.017811213827655225
-0.030622525465155325
0.02949453607656403
0.01941193097383983
-0.007088997075054282
0.04396107829119555
0.04579304887097018
0.023249740697582243
-0.02683735147712551
-0.029961776153663414
-0.06438934436538296
0.040380084821311876
0.00967243490307496
0.023218009831186097
0.030231660309527862
0.014065210010453551
-0.023320479784621772
-0.012557546703557885
-0.01612876599947856
0.04186360649455398
0.03217850751299641
-0.007078440503384348
-0.008114811511918089
0.02698429745217633
0.08066185782188089
-0.09487652656074558
-0.20425030318498408
-0.013467468278178962
0.005924693467197278
0.0007219490454969578
-0.044354893771391554
-0.019058299019439187
0.010383397694555648
0.00194828069160832
0.023810413168543293
-0.007348895089857775
0.012570976657149515
0.007759019007389257
-0.018897649814454447
-0.016322040860620814
-0.03429764809348226
-0.016024037002594603
-0.029069363894667317
-0.004332945933607471
-0.005689902390458565
0.017971914305361106
-0.006444456155680177
-0.014406747044467549
-0.04052865440606083
0.04532965972795082
0.13615597354303188
0.09283550391534905
-0.025269025131124695
0.03250384759303498
0.0006683518306189572
0.008058525773364359
0.006540251358337953
0.014714796799111375
0.018516431951155224
0.010235876417893888
0.023777245201961936
0.014835807793022003
-0.04550562692638464
0.02671541948668439
0.010710446599204552
0.017941346510323142
0.0282612485311595
0.03815513813736912
-0.013517932595564023
-0.03097122445993377
0.007207879391786518
0.01739237605787545
-0.018863214609620836
-0.03218071418902588
-0.02594465797443274
-0.06324912314052973
-0.040961764415048105
0.012032204840093428
0.020685153565231443
0.009779142376196445
-0.017338274753151816
-0.011037457027937504
-0.013119195704031006
0.024988687018530197
-0.02153574090411646
-0.04361271234984807
0.004521831063863991
-0.00775964042264595
0.04405106982323408
0.013944061755682339
-0.06875725074922731
-0.0017650948399209562
-0.032545714217333044
-0.012648299487719531
-0.03179816117279239
-0.01703677415746343
-0.02098108949966663
-0.005605099023151529
-0.02101661044454172
-0.04162962838160704
-0.01423170365681003
0.00036918959103439
0.051877892680736004
0.06092779720647744
-0.04327362904201552
0.13546851661483697
0.06771991548021872
-0.02694919446024393
-0.015872267016415587
-0.040352593804573386
-0.008951342077706342
-0.02325188642569508
0.05101803383153101
0.11091989688626307
0.047484575434198914
0.02229579522035215
-0.05139971665364834
-0.09779176461758794
-0.04778773199688701
0.01173639986305969
0.21410163163342047
0.0074099545081464996
-0.005016269830336225
0.009940033997886946
-0.03236025220427324
-0.05549046693542776
-0.0033912369732926693
-0.035528512863741014
0.06773611363421132
0.03669794355751841
-0.008959545783534901
-0.014977467741435335
0.011384231674472748
0.006631486044667023
-0.010442055691934004
-0.015101222010274062
-0.015909923037223092
0.008363368405220744
0.06003148062514598
-0.05875087564514004
-0.14106347261480534
-0.02137297125642377
-0.03183883774501936
-0.005550606409916459
0.010690993864633255
-0.008481027490619695
-0.017653783790921966
0.0028171059838036634
0.008044950406229559
0.030600757775831974
-0.013053071845448756
-0.0160680843388791
0.026401545319801312
0.05407171273716337
-0.0037786278625807426
0.033170399994493005
0.01083127602084607
-0.02832340879089359
-0.04584277327029611
-0.014545721592302954
-0.027636196514074497
0.05935985212265433
0.029039713447588156
-0.015270449121133388
0.01403324565674506
0.00808737281877001
0.03438523560216388
0.043441958122512454
0.032686439032611175
-0.0055371087556709735
-0.0353510298945717
-0.03745445807256623
-0.008544023838199853
-0.01655821536445377
0.004442131689500814
0.0065700876649713615
0.010207960577671317
-0.01780595304589154
-0.006555178011600684
-0.002888984623737606
0.034004210115321815
0.04047785959884123
-0.00879613796998379
0.017435798417703777
-0.03513349426558271
0.02528440363852612
-0.00027919501315982575
-0.015293681723726108
-0.012477888695923917
-0.01614302697310602
-0.03771762780176791
-0.04076489482064257
-0.021293944262873427
-0.007625536318063158
-0.06172002326796442
-0.0053245962370991615
-0.009656606247042116
-0.01858039191127226
-0.009111006071543113
-0.0020074988052625
-0.0016408067938256136
-0.01840884327769291
0.004124635928452624
-0.00913007100708529
-0.06639460167996837
-0.03961650694801793
0.022726455392211433
0.021509548803117142
0.15364271036111946
0.05027595334081499
-0.007846476987869638
-0.008104296894855657
0.027503421561809547
-0.017950225451867807
-0.00951433027610635
-0.019457597059249602
0.010733956936630448
0.009808130867729406
-0.011977144299331624
-0.06035993827138058
0.015164930910228957
0.07205974126991121
0.02090326305089295
0.016500114808056122
-0.002636080375164192
0.06318086512580412
-0.004851575724016956
-0.02506093143103241
0.008603178999850249
-0.028900546855152528
-0.022387649563423883
-0.05623221891146604
0.0008426298831960847
0.006688939997741896
0.03382329122213376
0.025207431675249005
0.015038132744215525
-0.043677320302704575
0.11770466091151756
0.13028376787285875
-0.0015520462891636464
-0.006327136304598936
-0.046231839124069876
0.020529549689597446
-0.02301538360609952
-0.01898133295748701
0.0906077410479414
-0.013673695648854213
-0.04778490027122201
-0.03202983968874336
-0.045946130327585696
-0.05660634005589489
-0.02286670339739042
0.02447419608842589
0.018105885246663404
0.019498177500380232
0.013414111361092353
0.007303308720134817
0.006605990687453778
-0.04591031248364269
-0.023865362075697602
0.007203658934809469
-0.03071647567229887
0.002461811163372724
0.047541114740599306
-0.039315924036905946
-0.007142538987899574
0.002961488487614471
-0.028151795220937244
0.02935115770945761
0.0245386846707117
-0.08473660616265918
0.02063502137805149
0.00757581208859519
0.001298944694151869
-0.016908277505430665
0.009598534928003295
0.00046962999604028817
0.014987686282631574
-0.05591830129427608
0.01720991747973766
-0.00967240436429875
-0.0401576968852685
0.008488488787190494
0.11208574485802227
0.056339707986524795
0.01861564986326404
0.01052821532667725
-0.018943624078923162
-0.01700608350982002
-0.00545580376231843
0.014205596645460717
-0.016997349939284874
-0.04173176865829849
-0.002725662695416238
-0.008855838934870458
-0.008644560947677533
0.004366612216617446
-0.006051177021157264
0.051677562955239474
-0.01497327025057713
-0.0009953693391759532
-0.016809390168280806
0.04371081675602028
0.03350777677792362
-0.007744905472468244
-0.03342066784723127
-0.0168340985060456
-0.005050265007302492
-0.008277871971309856
0.007155960157305409
0.015105458357795578
-0.026851751975065265
-0.047957969388004396
0.023824793908678303
0.026770118822468904
-0.027159093194433218
-0.09044175502923127
-0.02134246391456776
0.03663703370199657
-0.013306183758738648
-0.0027286345500955136
0.019302730489883697
0.03585380165848272
-0.03266222842768026
0.05656364688709404
-0.04378199572003603
-0.039995918751210356
0.061213858493162354
-0.013485136493544289
-0.014945229781337561
0.004358941468692897
0.008103199417880047
0.005901713665756862
-0.001872767341955017
0.047698600463480866
0.012361107737568728
-0.0374004265189794
-0.0035771772369941703
-0.006203285497562922
0.0010768939426385523
0.053501041467689504
0.015629434585920855
-0.011904420401772267
0.03233308937563969
0.0293871476890018
0.021172297763127342
-0.01777413533082666
-0.05358699207563526
-0.019430439650725214
-0.010619569594875089
-0.03558119992327819
-0.01583851470491882
0.043277726503010115
0.009574553319273003
0.025494138688308153
-0.002106863100167906
-0.01976768772551323
-0.03119202958484584
-0.01817153163188848
-0.027433586906618342
0.019130112665094224
0.010514414575051154
-0.0022855921735349034
-0.009070719828443184
-0.023046212574283846
-0.010853307120743987
-0.01180395097167856
0.030407375843786687
-0.019053476728264202
0.04978638575450539
0.09861165517377087
-0.01950369925507866
-0.005902488763563314
-0.012332145971269278
0.03769361928388376
-0.00964369117492934
0.015339165170351677
0.06663766552814593
-0.04305048982734309
-0.03635921183872781
0.032084531106638586
-0.005057114192602891
0.036986673391753856
0.04143895012471407
0.035494891562915326
0.02052049810346334
-0.02858480593824222
0.00013485434625782114
0.013848303989851976
0.016013763268200438
-0.016902320221780193
-0.05043758358993814
-0.1973517713275158
-0.02387755958005012
0.02086796357603851
-0.029194063295487377
-0.021967474610207413
-0.020498646058363847
-0.0113617209285534
0.02627099913767518
0.036673357527469586
0.005903330614055388
0.013761726107772335
-0.040930821706525594
0.02946485677462512
0.04636306991410032
-0.06391744619965807
-0.013418260493913026
0.017204162960964397
0.010259692951559287
-0.027901212328571106
-0.009989952066148671
-0.028054615633426327
0.0097594256241794
0.07516500982911482
0.10932610409852488
0.006420970070493132
-0.00967678561828561
0.03827463944860246
0.0016880871842936624
-0.0029164491469811627
-0.02707141422524211
-0.01239034046473388
-0.006482930584811939
0.06657190912830503
-0.042540630721314726
-0.03147475178239347
0.03460372755779998
0.018245967137319744
-0.006255615413907356
-0.005398747708877099
-0.0003717191010591896
0.0009817736765855315
-0.016080224949380936
0.005576797876887662
-0.034001590862658776
-0.13172573119808806
-0.003592422529618052
-0.022666836955754624
0.03017886179679543
0.015276856931595157
-0.0064831244287763875
-0.0009002045547675005
0.025519507048071616
-0.004046665251736267
-0.011354653898705495
-0.06202751874734625
-0.007858035136897788
0.002706367276264597
-0.017722515838981694
0.05703430871159517
0.013125608526352773
-0.014077915163763395
0.08919474156011085
0.043417801432579624
0.04516013775793661
0.02954586683128643
-0.02919345209277169
0.007539775263254623
0.024903316381744117
0.024651591221067158
0.017320675656639584
-0.07257722250430973
-0.02722241572899994
-0.0002812311579693386
-0.0163404389122431
0.012093378897809436
0.03276427545488928
0.0035070248063690064
0.0036704059277967004
-0.054904974340330856
-0.03708467671407869
0.02961976718210458
-0.03100346504340057
-0.10366916241232624
-0.025596434336044825
-0.0008280194848285423
-0.012887667806017425
0.024566663654780968
0.1481059837584805
0.08319459019667856
0.012040865123446072
-0.004116261142360302
-0.046901060983928856
0.043730868307068384
0.010993354517473833
-0.014754091566589023
-0.027186609337716276
0.005297455941882121
0.11211228784073222
0.05007125126548894
-0.03698204088863796
-0.14269278572918753
-0.02062821684696397
-0.06008812099597511
-0.043630863565210405
0.0024572368603809898
-0.023100890210214723
-0.026512496248313207
-0.010748869267641209
0.010705792006562095
0.017935064400972194
0.01232135950595542
-0.011293154296280958
-0.009622391074271784
-0.006440889546409918
0.033492720804217696
0.02654446594619219
-0.023649838542467546
-0.03555927727459124
0.0750650434044512
-0.021452494185672678
-0.05193051428347982
0.055149558165379156
-0.05854568990246571
0.010461291439996597
-0.06301290208483866
0.02170291002233972
0.05453917789377236
-0.05311654599006953
0.1616734617272708
-0.002040070441571889
0.01272603040774565
0.016677585703166294
0.02045465872363495
-0.011312924532421663
0.028609382249639076
0.0350596927199772
-0.0033324786772891907
-0.026931820746011727
-0.04846954482038233
-0.004244812059728146
-0.03857870784429829
-0.00026744746470568407
0.03670266702776477
-0.01668667122856771
-0.006438952667608323
0.0026258639217251654
-0.032078709911398516
-0.02811996428699489
-0.023321486177329896
0.05824833342220329
0.0009571760661500706
-0.011309879767657354
-0.010869180201389597
0.06401244044354598
0.02613336895164163
-0.002215349609437326
-0.007256421199540377
-0.002392277322986714
0.017039984373628827
-0.0018815901285792718
-0.009831155455312867
-0.004425848331222119
-0.0052166686165078585
-0.03665445160950328
-0.00890961086443842
-0.015045860444669414
0.003556712546342519
-0.03407495110734676
-0.018481589180235194
0.013128580698606446
-0.037641702783915355
0.10269044940813646
0.02336532147348677
0.02450174127060938
0.06835797384475632
-0.02657463317466515
0.016933716919309796
-0.02807361818008296
-0.011857679284026956
-0.061820377074599295
0.014210310826023614
0.00973220725682756
-0.05082577824303791
-0.04806787988968796
-0.007795156330970136
-0.020680543599338443
-0.028402389434326596
-0.021506194344977653
-0.025428330921434983
-0.017155037517273358
-0.026579164978672624
0.07738782279707972
0.02289298604568933
-0.05962603016468549
0.020194936230797152
0.1030287046505733
0.034508311737684316
0.0188264294620536
0.019479495672774853
-0.0625536069677909
-0.04188061283167456
-0.04065801988184202
0.050082690046537724
0.02417448124617971
0.015850411290701902
-0.04532225301403504
0.05608140481372561
-0.13042479182011307
-0.1273431054270847
0.010118344124025423
-0.055752114385885516
-0.022469381229707545
0.006859137959742763
0.031180930275181647
0.16219331019346658
0.09029082152417353
-0.07644585062518498
0.05148750573048238
0.08815253708413523
0.0026867677917256612
0.0424614441128543
0.1370851514561599
-0.011735670447920562
0.009338858705514399
0.02644404110475982
0.04950585890782624
-0.008523014771308783
-0.01902115893831148
0.0070534111201681115
-0.03261885655652909
-0.01986960011778844
-0.03383677101018029
-0.006363193408072735
0.007956317089503695
-0.04449038875598427
0.03384066177195933
0.0032832012414865316
-0.027946148612356968
0.034887098609664956
-0.005255076595879619
0.01789123253440439
0.04947945692384215
-0.027715207328725327
0.008255655442139794
0.015469697299091702
-0.029020430620158574
-0.05959700041407641
