0
-0.030404435627404646
-0.09406077105900079
-0.10417784181660888
-0.10206341503334838
-0.12204138708169993
-0.09044584767827302
-0.07991843586517419
-0.06777198474721495
-0.05519032660257543
-0.02429770802444191
-0.02867459616612472
-0.048021649598399066
-0.03598505208430889
-0.07360926653542503
-0.07416853002900392
-0.05593587061880876
-0.01627971996516597
-0.053680589399802275
-0.03203702145307462
-0.01993521412235006
-0.05341487964325235
-0.030965013994084422
0.0002028099086296319
0.041046581426097455
-0.0077102772917790685
0.008492425954879297
0.03575104962615414
-0.06802366571275366
-0.023206855679362048
-0.028604591269070445
0.02288195604727435
-0.018337303614770643
-0.008591955955900352
-0.005878127008415865
-0.0763098460189562
0.0052845950119516545
-0.012937217315913671
0.006092346655837295
0.006256012621772425
-0.01817462335728078
-0.015174490721217406
0.0382466225936218
-0.04402000001364629
-0.022299085098910237
0.03461263953515315
0.009931854957603714
-0.01915878332919391
-0.00890623610960576
-0.019481130102423246
0.011406324369757198
0.03297062198600157
0.001801498693626997
-0.043741028738892664
0.005472664963119862
0.029421571463665527
0.023166463894676262
0.11169955650050296
0.017200464160405604
0.07259343771204946
-0.07442922261891263
-0.028571706844559338
0.026497410222540832
-0.07462303643788826
-0.00215520818776701
0.007058867095469497
0.026097110198872953
-0.024580668310719752
0.04534302241155636
-0.005507114810270847
-0.022640933007344682
-0.007514662359852354
-0.13343050312299684
-0.04810800387228387
-0.012873132533135738
0.014678853848606996
0.1452636101592986
0.04395246731423822
0.036619448554236905
0.01251720030119958
-0.0018721619992424835
0.0017558000064289679
0.0688765811512792
0.042568068224878686
0.01533504343185546
0.012962637895373387
0.0037794900050737855
0.010846193931683706
0.04040944561493682
-0.049116094080590936
-0.04699080854461893
-0.036593376013329584
-0.048440074888747756
-0.0026217258723538438
0.017550323446171964
-0.018611685000796796
0.002090064319370103
0.022052095844906087
-0.03392234948728896
0.004733406915100918
0.017699707813343034
0.008356660711719506
-0.033868114636316275
0.04156727395551266
0.054983237708803256
-0.016923625888998154
0.018451268653609226
-0.027612519980252923
-0.06591587324168159
0.00395026512134524
-0.004039916002559723
0.032159278279077164
-0.016320106132177273
-0.051876541440041835
-0.023202063984230446
-0.0004882378850662286
-0.01844447025089358
0.046204498972815825
0.03236219180778377
0.026582300163534203
-0.013979825578244138
0.0001315266841232528
0.03868860085880598
-0.0758388326167848
-0.0025543061593708604
0.020546384644406654
0.04072938966811065
-0.03287203720451836
0.01931692303726066
-0.019016559348764013
-0.001887108823672528
0.007956329779996848
0.008803273656512
-0.030942042886770695
0.1125457288553829
0.14399025440501428
-0.011119868905946254
-0.0727199363392076
-0.011891077773071326
-0.026217270125731846
-0.11413021072579131
0.0596717271834862
0.010282449172158134
-0.02352614837182265
-0.01766316319550102
-0.07779524077675577
-0.03051232613324179
-0.010595431207964776
-0.00882568546585271
0.01616630291392009
-0.023786433207201568
0.01233998602106326
0.06788751247441262
-0.021285844234446613
-0.009384656610981725
0.00037466782049955125
0.03020701385982625
-0.001808313103405418
-0.03166502546280556
-0.019140401688291602
-0.02553104198163072
0.03245149687881042
0.01843789899046082
-0.0265429911849897
0.02696904807676509
0.01292223341443092
0.016981177749963924
0.0739962837741053
0.046496030439516785
0.09128322494118402
0.030661201534754535
-0.01663969048905196
-0.018578890472999206
0.016660105090307402
0.0010705985719010548
0.0034436329065847537
-0.02196276735738193
-0.022100979934612974
0.014112343380602901
-0.027715017448367615
-0.008923123203746882
0.02514681227459737
0.005361569995194603
0.01210829001211034
0.031205038214806347
0.005255103183775819
0.0261382028639002
-0.01747043393002802
-0.023542637955575475
-0.014333801633010224
0.019340668991527813
-0.17768144692864998
-0.13705231088834238
0.0026462693681492564
-0.0017076503692616
-0.02229783596779458
0.005376775483047909
0.013310009591359521
-0.005498585985441541
0.015596483055296435
-0.006331016783006345
-0.00228397769913304
0.01086700026155644
-0.04026885224016519
-0.011559564050467024
0.016085571897574397
-0.005635191474655207
0.010566771833877203
0.016422225144151145
-0.0004690403881808058
0.023255970721607087
-0.005340880421485962
-0.05497891107785668
-0.05052615234803275
-0.01837018660748696
0.13546713009394923
0.041709537926083014
0.01172440966895604
0.06431700808080819
-0.041469882154331485
0.014731645737157881
-0.01907000245300201
-0.0009559808289349962
0.0006838971819355534
0.04987745926012908
-0.03554973091137877
-0.03137150245005916
-0.020884574062475545
0.1582957155533147
0.08432117754167974
-0.038317574476530315
0.01578900805075873
0.010594068552703726
0.0019806233220152794
-0.02038638572743331
-0.009677597197318269
0.03755921961111494
-0.021160790953412563
-0.05420159693314591
-0.014928673851091452
-0.003319217210416615
-0.0015465547818888927
0.025225950972700768
0.02468778846508606
-0.04747653142097504
0.0042619387892559
-0.027540622060129957
-0.04387631115239563
-0.023813728140671897
-0.005600243866548267
-0.04329462326891316
-0.04232557932908511
-0.018496146898310795
-0.011349157417789878
-0.019421700036780787
-0.0422244405716979
0.0315559153726914
0.001329973104031539
0.02636878903659935
0.023334041856420577
0.02611123274891146
-0.01036184781883169
0.0068737228443326625
-0.05171595405733772
0.00999008932306216
-0.027319958468916022
0.05625227749843959
0.09433340503148054
0.056250975247680975
0.1535563296439243
0.025031392788424388
-0.010529732498885
-0.019867742735476857
0.03700286246546854
-0.0454811342791927
-0.03308353840541323
-0.020935182020419624
0.03645528483178526
-0.035194521856887095
-0.06384061850911596
-0.01106116082172195
-0.038758701780495286
-0.03180074042200637
0.07719235542494986
0.036736990118751804
-0.00628382362562251
-0.04072777166687687
-0.024356670897481277
-0.014662150726009118
-0.01151533996840559
-0.0212481278749864
-0.05816811877849401
-0.032497394279980524
0.03556507980812312
-0.06835518423560853
-0.006715834870141229
0.0854998276727035
-0.01929303442479512
-0.07556333083488484
0.0004397835830971012
-0.14753792063607157
0.0319249506949235
0.03717613284892691
-0.0011408097590832967
0.011142004653457716
0.0004186553821361085
0.03878759608028042
0.053798145669412614
0.026234809540905447
-0.040288319509189
0.08441046220974105
-0.06746227299702685
0.07675190323764107
0.10345815426327257
-0.0019673565899398066
0.008371663132465035
0.12739092018514742
0.05305988457289972
-0.02960577331216145
0.007297124169770784
0.02426696351596879
-0.0023686310073320386
-0.025471918846859475
-0.02127902474209237
-0.04127644815882047
-0.0245751074970009
0.13222169170301473
0.020611893883697552
-0.07716833172190782
-0.008973256270318386
0.006270217968684186
-0.049628807696180686
-0.013421904872807304
-0.011930137773398535
-0.03784608821220451
0.016682808660457783
-0.011783092263161401
-0.02049027191107471
-0.04034371310851266
-0.0071294056046708795
-0.03223319987141923
0.01343004799566924
0.061377665887388265
-0.028238507756144973
-0.0040350860368210985
0.007433521000743345
-0.013078659394316114
0.004072867489022764
-0.007374559577535653
-0.0010452038214825478
-0.01770469829688565
-0.06090442077071635
-0.06970175845719197
-0.037846328422542805
-0.009116221059423227
-0.019296766521303712
-0.002518072503376285
-0.0030621439829243025
-0.0028774196217372545
0.027655252050576867
0.006065988967110881
0.01542399053401149
0.00017130654827776374
0.08159658469651648
0.019242887373949847
0.0325041824145162
0.0343313606000604
-0.016740633026079154
0.012369478262649752
-0.048200270261217724
0.004438056534950008
-0.002079169513961989
0.07425438820668408
0.013221828469631785
0.042534853624960914
0.019293176871054325
-0.002355689943776724
0.019207991844303603
-0.00456628912747511
-0.01623548406928609
-0.013157413252309519
0.014866034485517198
0.00981613521428261
0.04544854692959295
0.05991965173566893
-0.055070783221156445
-0.005902247536424022
0.0008931219574794284
0.011439338157284856
-0.11382617065065816
-0.11460353051421242
-0.0013722325161580192
-0.04338675350174827
0.01565042161744508
0.017883066837942465
0.0003794950426627936
-0.026462614318373785
-0.02087434652761706
-0.014352081241466202
-0.017992143354752493
-0.0346262896936572
-0.014274714890041005
0.015234132303705395
0.04010398143947867
0.01508704542565026
0.03167056515860373
0.027271216244606628
0.028452603990192088
0.007525922876203801
-0.013409175195339648
-0.017950967634861568
0.023391033264266132
-0.0067146403568460215
-0.011715618058254098
-0.010735653097981001
-0.0029063324712439082
0.04580341886384739
0.015027602687284577
-0.010735412631073022
-0.08152280760630877
-0.01316304237776846
0.044902879424349174
0.018257973358662954
-0.02041052298136419
0.1560772114844745
0.04670413120349005
-0.030513659399038884
0.005674893022427465
-0.011417900151877908
0.012348567205032992
0.06307658293198665
0.07946117020586893
-0.04420934816580652
0.005700150145974614
-0.05983303483632831
-0.002638868261513624
-0.0048892026634428775
-0.014727576831741236
-0.14227441138100214
-0.04804064254088514
0.006568796017412068
-0.0007766875781373853
0.05632859395839895
-0.009959613400998588
-0.00013977098143942452
0.005442108429503523
0.016091708336037593
0.005557585718291609
0.017922020509756872
0.003015272793498191
-0.022163650450085434
0.04168666557009749
0.01481834129992261
0.028842996032380296
0.0474234422329378
0.03320278213703748
-0.028094434959433413
-0.040790320721875536
0.006836818949912322
-0.020111810509475712
-0.18337965629807387
-0.09769317881408279
0.022909195438513788
-0.01988375096576566
-0.004422286493311847
0.01275699934891084
0.04709644193111109
0.0641532397559413
0.017322294450317226
-0.038303406099867966
0.0772831282899707
0.02059752826836374
-0.01676872340658059
-0.015330796171342911
-0.02940244995334307
0.01588849035148216
0.0023819249136345735
-0.03649968283303802
0.02035991542026071
0.028834228602194693
-0.01845208939657262
0.030762804986289763
-0.07172888166224703
-0.020405269764384452
-0.03463588365955849
0.03737351600728779
-0.014015294385946661
0.022926001955517507
-0.04227556537361476
0.07953031246167962
0.14240478667425793
0.0603665824480957
-0.13593009036990195
-0.11175976635174378
0.012671850523192503
-0.02430977905955505
-0.0030409386686098532
-0.011284594600496098
-0.012340894501801732
-0.06596302957808697
0.015207613886733017
-0.00799177322832761
0.029671272828840477
0.12591007938998114
-0.010604762738945457
0.03660651248754989
0.13140537763722243
-0.015822719892830597
-0.001207170316779063
-0.00035529942607006514
-0.024791214988858508
-0.037989957429589216
-0.009313627614509587
-0.02041500404095165
0.002214345931230333
0.013946998047431228
-0.01724769568840186
-0.06173930753611868
0.010270126460939851
0.02509466947203855
-0.013725755172563844
0.023153911807155054
0.029865544273389347
-0.02243193198241181
-0.008385848478816568
-0.00433679623305304
-0.011196568902175534
-0.01911603669746137
-0.008679968703701189
0.14482996927990413
0.0699998361762713
-0.03294692221677316
-0.03016192704488875
0.0028107488283206556
0.011614941385525365
-0.025730692381603963
-0.007980345232908784
0.00842394124196596
-0.020310534563703516
-0.01533213802988842
-0.018265632689698198
0.016505869286688915
0.004656302459259958
-0.007760490891217079
0.037216145963654086
0.01270291901541178
0.015497829065780795
-0.007851454433690248
0.013041429637470807
0.012769913073247275
0.02147567433484751
-0.032663562932688225
0.008415867724947247
-0.05974072586019646
-0.16002644927750664
0.07410514849591535
0.010103944496070582
-0.014265706787321317
-0.09174382361329701
-0.10221202681749318
0.031072719083148813
-0.006293120054967656
0.05481329442581942
0.033591222181397803
-0.02110171486266239
0.009313642273363133
0.008158999612668744
0.0012338332893640678
0.04554464499911888
0.009355439413331959
0.009831180584612843
-0.011481768610413728
0.01209838431558308
-0.0071798112996674995
0.0499613389010701
-0.06172305068555686
-0.06125871019928767
-0.03238514884064424
-0.05894390236218312
0.03884519048581777
0.009568490438515155
0.01025789142252114
0.13408127472835787
0.03800651739046174
-0.01746835184071266
0.03322783084338473
-0.024583993821780153
0.0004696411501792739
0.00294323663895723
0.06979275251567882
0.04616555316139624
0.041971417996887375
0.028549448105194396
0.026490761685286524
0.02357198982390606
0.044978471918508275
-0.03044751705543111
-0.09148981278912154
-0.11737913824069433
-0.0719270627463874
0.012206681132137591
-0.040656073786531514
0.0070044155104800445
0.004912650867508621
0.007512910581453993
0.023981576729069545
-0.08440928050892257
-0.051892309431897175
0.05661284087405847
-0.0379984623782193
-0.006047249863099125
-0.01104362810186546
-0.029706126621365587
0.026486806026002552
0.014669778474522081
0.0157964890199586
0.06466314025789537
0.012577919652095489
-0.03150071837053157
0.010177306174977559
-0.011612230420851794
-0.04331336771259922
0.02478896758907054
-0.009183574941412583
0.008399223822466342
-0.005891569011763454
0.012231364760349965
-0.02247193112167952
0.07880637077645333
0.15080869409496955
-0.003061156085383636
-0.026690605846340292
0.01691004746801482
-0.0036071258588054626
-0.01771040896391674
-0.02177286975733228
-0.019843708870536086
-0.0024145380720137066
0.010556049917302836
-0.006582713005843546
-0.0032955025437076397
-0.005691473385036672
-0.10661957295196559
-0.04718602841879449
-0.044645247920250604
0.020597449869266964
0.0074935309365378915
0.006713084940971493
-0.01685523443228451
-0.05190590119406126
-0.02289906719188924
-0.053380512736864005
0.09073828940538524
0.0904912960295322
0.013806551566530588
-0.022096331646791527
-0.009285527793377232
-0.01855643496871407
0.013557759234937539
0.046059619862099374
0.021214789580330032
-0.07796043441829757
0.0010372543929750052
0.029130531826306604
0.02748263540949516
0.051544321990657366
0.010351141976688152
-0.0034512472584634275
0.00903706317783663
-0.013332421760082732
-0.0025930452480836456
-0.014591993708779082
0.07957173794697298
0.03593971442296144
0.009323843108674002
0.09096246578516531
0.002423714962448048
0.02474234769067909
-0.04660825701285692
-0.04178800262169911
0.009082702595242369
-0.00716596042595183
0.0025123179484265873
-0.020769783529586056
-0.03517986181243416
-0.015658289059074647
0.009539616570699905
0.019794398990705887
0.04510824294314185
-0.01983203582655481
0.02891328860748748
-0.04699606752442966
-0.15210090528990444
0.014828473637847284
0.03600348447406717
0.015072718454479814
0.0011779462417395672
-0.012658441065276516
0.021952767516433252
-0.0023393693855021445
0.019393418481207278
0.02411471810585086
0.01213729464830994
0.01151164827397333
-0.001543568627612132
0.0064661625364085444
-0.02102552472689323
0.014139297037601776
0.028829055882946153
0.030213258844130824
0.03244664339883461
0.03372504177467968
-0.029270459830442377
-0.010572046349448697
0.10052957869647129
-0.15039693440326052
-0.13865018896049458
-0.006227677425774396
0.06067134054571836
-0.20862371499329344
-0.1452638245190896
0.038098310950102125
-0.07468851576987873
0.017005049776698738
-0.0002408964871351816
0.030954617816171183
0.03690791459877416
0.036306262227385394
-0.01310227097382137
0.006364170432040677
-0.010891366471596607
0.05101657134960764
0.0493324510494315
0.012832990648899402
0.007971506884042336
-0.004562851395115326
-0.023992357862479385
-0.025241906700069476
-0.0080968354636134
0.07971536125713895
0.07697545244015866
-0.002443106244504708
-0.021211440356512783
0.03269871297150476
0.019227612172672288
0.01480869346967892
0.03275025040819118
0.01823331364945098
-0.0038549551734156154
0.02452306128808342
0.08450106282360821
-0.07588230773367145
0.0012700236339239321
-0.005402626394134072
0.017426844058482206
-0.02132717425466976
0.0042709447869105155
-0.1048151361539641
0.09589215053451752
-0.03318704239403179
-0.09217991828879435
0.02485379488634803
-0.064246067275481
0.015535014620457956
-0.023064994480831144
-0.00195803023598686
-0.010870838733430444
-0.012837850782143166
-0.0050876538112093715
-0.019069861654804343
-0.015410072170427844
0.03082790335997283
-0.007755428378297014
0.026519525758970226
0.00828628171197017
0.011254147143903074
-0.03128844458173111
0.03899997365461115
0.018163454852612743
-0.010676025499495166
-0.0020013952945878415
-0.018871153147185828
0.02641205333568782
0.005764112344393742
-0.05396240950151096
0.15089990472260767
0.07035676298854904
-0.036803552313908486
0.0033421233326194535
-0.00707961784937278
-0.014482251857079232
-0.0020818032188463917
0.06046224797995191
0.04904135791531577
-0.050513115445450146
-0.020705257546516927
0.011772409072419452
-0.013648100185188623
-0.000620691724997335
-0.03154366978937312
-0.028335126329920808
-0.04976469189871757
0.016051163072040166
0.030323752406721034
-0.006663744088041884
-0.002374635126558012
0.013099719142151496
-0.02682885205273965
0.008677768996603372
-0.028914150971088903
-0.0016983442719358884
0.04137391226070239
0.03940119673111455
0.019310479001408
0.04760903440549623
-0.01202748590061131
-0.05763570665823598
-0.05711419375288889
-0.010477359545278658
-0.016499014662402528
-0.006535547107095357
0.0021064518924214124
-0.01051200163760384
-0.015982524998257037
0.12410383376720947
0.0013044673069926216
-0.02538693770515854
-0.08753618753226845
-0.02197147071081163
0.019108648020204785
0.0916605020045649
-0.03526986663886775
-0.08443997014062282
0.04152607997242595
0.13413140494709833
0.0468134213749559
-0.0019065938347502466
0.005932540132063068
0.007173302017678207
-0.05963586632086017
-0.04680448773699322
-0.038240361370119116
-0.021713368160590215
0.011330428450359732
-0.030587924462927834
0.023683965067376203
0.02540154899822908
0.041395443386129625
-0.10299608138745323
-0.01821401588494578
-0.039304489034064166
0.013677967560132693
0.02791123036277888
-0.028611664616688477
-0.01311125445500599
0.016567535075193117
-0.002212509601552775
0.054208864878194214
-0.014700946490533847
0.0027533917410459516
0.023638408264448296
0.00439259088466463
0.01753051519090838
-0.016440269957831707
-0.027281463161615987
-0.0025020440284329354
0.03687900202697629
-0.02404077776051702
-0.1405443803032744
0.014068170831069258
-0.016343201909746346
0.025890094841036732
0.03450054506348909
0.01923571668920642
-0.01769580343496372
-0.009170750245484069
-0.0036845128794359082
-0.006685442909945444
0.010685049956234092
0.010662659720856685
0.004269220724177719
-0.009037047123082927
-0.06815453160181152
0.14828788126400447
0.03198229313690682
0.03144761817566161
0.03221818963403045
-0.026905175194922082
-0.00864056192461925
-0.010790660475637648
-0.014378279994191034
0.002391125030017577
0.07352967631434534
0.057363908201675994
-0.008420952389928757
-0.010627122896745026
0.029163402889808607
0.02188367923469907
0.008287927055739722
-0.03230266081263046
-0.03042985458194139
-0.04822734146409064
-0.023640672642341543
0.01361117124329062
0.005838856851287431
-0.03732975045673503
0.009088914590692833
0.018610269993496326
-0.02124178710994341
0.023224449211363168
-0.014535187052018285
-0.016349654858885638
-0.06732757183042198
0.0352000898677111
0.012692842854484286
0.043244698953456305
0.005873696269438643
-0.02549776018030209
-0.04345430025820298
-0.018057754402516942
-0.003494614778445244
-0.04146718135565855
-0.044476300427940284
-0.028981794456433292
-0.001867397017163437
0.005987233895189373
0.01276956677593384
-0.0039318945452115174
0.0027742152894519156
-0.023517714646170255
0.00018570152185211824
0.01133174540500275
-0.01493716779247573
0.0062226482336001174
-0.05281132319324028
-0.006580176555357423
0.12129961744156571
-0.0133500501669593
0.026354281789229446
0.058488565253733804
0.15640409394410307
0.06273224404129828
-0.05922824373329949
-0.01028063650071682
-0.013170596894702423
0.012746036973688113
-0.024022064297856298
0.004637903265176341
0.0008575261865616362
-0.0779933599453321
0.008497299822699084
0.006671777902982966
-0.025132681679375168
0.016173568108320054
0.03884066420226942
-0.018720632474756162
-0.02489450647597361
-0.03038025978192735
-0.006707275463539342
-0.008505731959000352
0.0008846322815694149
0.009931262200359827
0.027746729812644446
-0.007956344044809648
-0.026087432522480494
0.018992026807845112
0.008293366277381706
-0.13680561176378866
0.011624652348209981
0.11817549623557194
-0.03089088299380077
-0.08493928379078937
0.10981088839109066
0.05744073594241474
0.020183952495348437
0.0011331119218573318
0.0016809717880416845
-0.05158514622757401
-0.034880781196371474
-0.017473700170150448
-0.0028904451635498587
0.048080979917495555
-0.0004989517256028706
-0.012854679998691507
-0.026953205656989557
-0.02389394474458824
0.02720982411200098
0.044491821330737466
-0.012287827494268636
-0.028665463748955195
0.006581726601788811
-0.057991676540628215
-0.030748026651446027
0.027438631530185817
0.00660972424534971
-0.023278557741187755
0.024163751023231487
0.006246795558173659
0.04990403918870448
0.056214208233823115
0.0028163362769011244
-0.02929912945721344
-0.015321657799911353
0.004846847323352107
0.02143823593662057
-0.009870061939112029
0.021812432380407937
0.04228200648785809
-0.010647837510607525
0.00828513176487488
-0.0013354102930176936
-0.037775375912424955
-0.03539736999492375
-0.013814868029674642
0.017038348304639166
0.039882584717268944
0.026715271873569802
-0.039585712574245834
-0.0024817443952748737
-0.02772848686629532
0.002797044077219416
-0.020106260929013024
-0.0026972983961809707
-0.027024545095251762
-0.006311734172338906
-0.013882034463541566
-0.0261415698985679
-0.017764709294134907
0.009139703909478153
-0.011546308059382917
-0.014503288728526348
-0.044910062755251494
0.015201492762061493
-0.005690535899494154
-0.011215951537939825
-0.022097098223248537
-0.02919668171232418
-0.02752239484996565
0.13216846190677684
-0.016343523466755598
-0.017773116515714362
-0.01833013904046302
-0.029690721607575847
0.02715546096231073
-0.035364188694562065
0.011479969238714006
0.0877823165000988
-0.01350895327285323
0.057180761679993745
0.015436326710665714
0.0017735145634679365
0.016840157362140853
0.02178439220630103
-0.010418848196735764
0.053108466501510215
0.06326624585811254
-0.04896676482803223
0.11238445279920714
0.03558814531450337
-0.0617478283253632
-0.04000936709210497
-0.016412450282267826
0.03131267163303825
0.02273406132449363
0.0035396201031484094
-0.022003941347442324
0.016738083355058584
0.0051839238405754435
-0.009296834350546443
0.0027667935701455957
-0.009232964263212847
0.030931494427783146
-0.07239716180156863
-0.0161445699005488
0.06617548525775917
-0.04857602707700821
0.009198114918859867
-0.039369960859509896
0.04434062354743389
-0.04137122349805805
-0.10850136137764003
0.013054575574710205
0.016321564259532798
-0.013837661370971685
-0.005105957099251031
-0.013093867724535593
0.01327214543365974
-0.04305514408571186
-0.019260097271044604
0.008185754687952117
-0.025821210678344954
-0.15951982495410386
-0.033551198860655364
-0.016109676913467905
-0.0020820176963655813
-0.0030968933365538927
-0.017150815957500763
-0.01925930683379799
0.19666718544904116
0.05236672612962874
-0.0009171912272857187
0.01706474951013028
0.09342712540595413
0.11279672582969456
-0.01820859136415036
0.1310608010262751
0.0006879006058197805
-0.016252644841354965
-0.0849653701249145
0.030331139509683615
0.0178943452957315
-0.02781612743848268
-0.02914356129033588
-0.0037850246138167003
0.023995022318459312
-0.04282678182748894
-0.021298848402486862
-0.007668285327008487
-0.010503765417235479
0.008244184076250603
0.01717887089647936
0.01662556664127582
-0.014936688016580945
-0.011853973716194266
0.0037970319890543256
-0.007393165412062466
-0.026991648325603728
-0.008371165778826146
-0.02417434160404917
-0.02955482537600908
-0.01852049253704899
0.01688230934706715
0.00238613029106561
-0.04776041020721389
-0.04928609126151976
-0.015982202390443664
0.014051904290341801
-0.0013353318274334923
0.013422821481463293
0.01540194882964699
-0.03091776857671599
0.040113207401787435
0.006935391166705069
-0.02313782108115908
0.045161087268344426
0.05215455972292185
0.003274433926914071
-0.015685853134620068
-0.022166126592005165
-0.1181981203707149
0.0030371270132796414
0.051133638472712226
0.0029552067926964464
0.029831663921347187
0.013930019592600635
0.047290938144894705
0.014516405758998494
-0.03190343797874378
0.029044549467792925
0.008559277711222195
0.02392273177741731
-0.07911063567014792
-0.0024540401630475063
-0.018409029865863475
0.031846821443459516
0.0451166541249018
0.0038990666966013353
-0.020455321060843485
0.06371873279305318
0.011591241666045266
-0.04460081330775906
-0.019720598578314808
0.036204565508771595
0.02949335278595165
-0.01412906387528038
-0.023964638561756253
-0.03798731012273577
0.035584254980964396
0.02650829397564296
-0.013551740548624455
0.016590812167887086
0.008717536241140094
-0.003315425367045064
-0.03557559403954108
-0.10700702368575254
0.00695528261328074
0.02486728425451974
0.008489694198495606
0.010169393714622556
-0.0021446347761977513
-0.027742210736150415
-0.03791493996779354
0.021522247057270176
0.0636029934669741
-0.026693774057314757
-0.020923373052124272
0.006035825817768623
0.008165281460682903
0.009153022805473098
-0.02946543869809789
0.10248520574288296
0.01561954251811431
0.01656562598979606
0.0761329817133535
-0.02570447451509354
-0.027786462261240076
0.0033022362455578224
0.0021442294896528878
-0.006488922910500188
-0.0054975913448460185
-0.009385963805527413
0.011039541744729068
0.009665618273179464
-0.0332985628400426
-0.015106574262000317
-0.07460229056355709
0.0010338456983178621
0.03200848076104938
-0.01218422722692024
-0.016146480292884565
-0.09275280918224656
0.01799275877235192
0.0052201985504628295
0.09403160098416348
-0.016249391769841984
-0.10782540562357605
0.04989379801107919
0.05552170891922313
0.007011139421667414
0.007315667263585316
-0.019528131192376404
-0.06731317772314688
-0.031887718392896114
0.011796546546745956
0.027112480500687222
0.05979842982323452
0.008034083925009828
0.0164628502020683
0.004693242559025824
0.007574288771558777
0.009593625352916791
0.01187819048328748
-0.05016701244345651
-0.013424701153188494
-0.006508999759297592
-0.0025527879459713706
0.0016189767875210907
0.009871870165830993
0.019087929617983976
0.01717211535209105
-0.002924726940686545
-0.026401125207676172
0.03665475413214587
0.035151668145453834
-0.002721256569203206
-0.001245278564411932
0.010393299751886615
0.000526099399930605
-0.005008743112634634
0.020633969243759983
-0.013150202427888774
0.0018754336490874246
0.0036332435947901026
-0.012112542211558674
0.026010520811734605
0.015388304745504594
-0.011717952379944642
-0.06054221257387781
-0.01137761592030069
-0.008782436453296147
0.10606425331985941
-0.04984849000423425
-0.18239101079735615
0.029021702930378458
-0.014481381343486427
0.0194160216497984
-0.030594154610945327
-0.0018383287790917485
0.016471829610243547
-0.008650599759946564
-0.00656514572035771
0.01570503975108445
-0.051173082791830984
0.060270300627980264
0.056765586937206444
-0.05880500681556987
-0.0024174083023057184
-0.04560549781642553
0.01159776745052745
0.06116081562384259
-0.041575645050885346
0.0035837846132852095
0.0017584501311865904
-0.03828551629226681
-0.004593123851010904
0.013478034601509504
0.05214925396386612
0.004445522166174429
0.07459085172903836
-0.02614516596649915
-0.054496227687843846
-0.022476184415234093
-0.056877203041529434
-0.01966350659076908
-0.020071704327396148
0.050725992175669116
0.05045925205197834
0.06629984882563054
0.005575218772878372
-0.03438337902508357
0.04313311842961613
-0.03790304223879545
0.1412656945632701
0.08631406239317843
-0.04215532655483603
0.02216950407616158
0.01639450368539528
0.021868463916083755
-0.011543554311754847
0.012486870859687834
-0.01093247431645907
-0.0397374628663504
-0.01030142810811767
-0.0016173020730978218
-0.008997706443765388
-0.0004449549012881923
-0.019528163999004304
-0.02591638213705438
0.013891075487002247
0.018095090637329832
0.010830460431615663
-0.013075733867604064
-0.049156208463632826
-0.02484221227837261
-0.008379160180966884
0.006020973023840983
-0.029463611900603273
-0.02130763886825278
-0.008095144426774892
-0.0030947551805058883
0.015182428824667193
0.007992717358581987
0.0009919470470475475
-0.058777589212691335
-0.012618352945191568
0.01912187411718632
-0.0002034398644743713
-0.028013505465412248
-0.07334652438359632
0.030947774403168465
0.08547104035097229
-0.020923015708734487
-0.009695853171199491
-0.03134130884198216
-0.0008212046856696364
0.041654869429464295
0.019614264741480366
0.0032966709313561227
-0.014710956515834114
0.006685816558915312
0.014751349221593912
-0.028110409321357114
-0.008853444730435383
-0.008917651816323062
-0.015484254261307567
-0.04645907044010728
0.04640875084523949
0.07087567591032426
0.05366317675376778
0.0034548581795462103
0.043702727230239824
0.14533506900277413
0.0008219069917064634
0.018994656233078305
-0.02899654669020881
-0.06412227079202105
0.008180294119945175
-0.0412852496203012
-0.07548955643406281
0.028405222240358918
0.000773119342796015
0.032826946325638394
-0.030189713655480413
-0.00445871703028544
-0.008631747684048303
0.02504374809333714
0.013052236770043612
0.010961862250401447
-0.029185161213634077
0.002387920807523881
0.008870951534921295
-0.00961206752530096
0.007471102362562508
0.04003673634173207
0.02177426413710493
0.048329679397535776
-0.011024405848349132
-0.00024188499635853606
-0.13778779267509828
-0.039065274689761065
-0.0830055390791437
-0.09580823115748681
0.08625857053101267
-0.00856672015902694
-0.012315349731116745
-0.011334742199061177
0.016670974968218146
0.014760704581082184
0.03857273321395137
0.026448504789745024
0.01860036624879768
-0.013628794311999213
-0.045384185691388926
-0.008219904851535615
-0.0013979464580060263
-0.005050817964203668
-0.014817254463729989
-0.015424626740562334
0.025657588328505395
0.01149228715882826
-0.03433794580015084
0.0003532193481155736
0.042184765993292225
0.04393983271952894
-0.03393920627911597
-0.04374659891990134
0.010355657000431935
-0.024818066410636965
-0.05531396419174134
0.009150173383175085
0.03497579442529407
-0.03905404135395861
-0.012440141859279507
0.037695343796012734
0.018702864422558464
-0.12166530016683724
0.010101202850617177
0.12738425484992943
-0.039698054613614725
0.012026474490449262
0.018193102479440077
0.022970482164785814
0.01269589203529881
0.009914033898768652
-0.0031440032916851463
-0.027227327219058167
0.03488974404823976
0.06229340996309464
0.05552510459382454
0.03566623983649297
-0.0462735755237114
-0.029972483931341134
-0.027026303641694265
0.0050481690005716486
0.041673349588595913
0.06900563808057837
-0.027346858341685487
4.1733613733230715e-05
-0.018619079018950612
0.020482778730444587
0.029009617573369284
-0.019533416914040928
0.05704822209735801
0.006479238132621273
-0.01679271714068686
0.02558515490422469
-0.009043318474597651
-0.004588385894651723
0.0870289214453236
-0.0025613528165952097
-0.06080372058834889
0.04146642979533771
-0.026380144791229684
-0.0373058032320261
-0.0008177742275607696
-0.007954643808250741
-0.023966564841542463
-0.01595239384216346
-0.01129638121475116
0.028343738923293307
0.010772514958278077
0.023239714628419002
-0.010048476135566657
-0.00411651321194968
-0.05436283801462971
0.01942667393941297
0.005692371357384033
-0.012116356497626504
-0.0003368233721076051
-0.022540462635673785
-0.2213844977896281
-0.01126703135438738
0.061205542223915936
0.003939691299223618
0.000678734759023892
0.03817981167731757
-0.033483498473855934
0.03482096832719665
-0.1178293675797864
-0.10285236231478728
0.04803546056763202
