0
-0.03544844430756298
-0.261971516233973
0.08254862361884861
0.06378710526338008
-0.021804522179662347
-0.03615657317091616
0.002875267657127779
-0.005270628120967575
0.02845321960394137
0.02096631829272923
-0.012330931597279991
0.03416678998937638
-0.011246859698382277
0.003828837760954993
-0.06394920368225074
-0.005148557121398532
-0.008696424276672297
0.0029216825341224504
0.031842966272590374
0.03654481549294939
0.008020766613812194
0.017819158076575293
-0.01829039525806167
-0.013467733318218598
-0.05124729376096293
-0.0038999895127317156
-0.04233844079892991
-0.05904066929629391
0.019929822842425508
-0.02444148611077323
-0.011247281167145412
0.1017778196467966
0.04571545777742955
0.003648672025132354
0.014310847533560163
-0.002591339489025113
0.0707482668945979
0.018913512959865233
-0.04626599850310439
-0.03216725206427621
0.0046920305638794985
0.002988303611184486
-0.012037407311657975
-0.05538598650809447
0.058359431081965514
0.07788310370939353
-0.018441120312771835
-0.017345003066226314
-0.03211674086237706
0.06590344643182433
-0.018887768131883625
-0.024718519401427632
0.016998262193954696
0.004141078163465796
0.02642653885023418
0.03818950705980806
-0.03500866032163002
-0.012055237209193787
-0.00012040374276979473
0.035603713745199064
0.023607745523466013
0.019073559513225674
-0.05293766778945357
-0.016910354188844862
0.009880584644407832
0.04758679032502918
0.00587423626433692
-0.0034432607368000377
0.01024581141796474
0.009183441818110646
0.0018149198058602341
-0.008704070929486375
-0.03890000184448773
0.009019842307953477
0.006962221538656526
-0.01311384219674647
-0.009040000376825237
0.020123109516405398
0.002197812554925505
0.005483271570696685
0.019963910431040177
0.06784863834522355
0.014065937024847456
0.013649110688143723
-0.11134046280040484
-0.017319124826641347
0.01125484156078414
-0.045070584782920586
0.011988465194588802
-0.001561160331652309
-0.0009705295521663337
-0.01234923063038704
0.006929502714381332
0.00932865574046056
0.034644405440784815
-0.038533631555902385
-0.19233682308823655
0.04021232313854939
0.03009011461390947
0.004071187226385812
-0.011207397044157134
0.0055052954879863565
-0.0025945022081386927
0.014469506568849226
0.02065909898586013
0.014455499912856508
-0.013339445713435847
-0.002946082675821926
0.0297574328324242
0.02421630450001173
-0.007662413554918539
0.0471062600828286
0.022837325361791512
0.0022972162464666443
-0.013126394151994354
0.04347595860445652
-0.005287986485561168
-0.012061949077529562
-0.15115733588519548
-0.04475509676110062
0.04869852052533
-0.013214267440538706
0.06400483845710388
0.011512452012701081
-0.022288623793588883
-0.026510961721490086
-0.004216964339414962
0.032175480381652015
0.039672495252845955
-0.08385744879602135
-0.05449565058125207
0.029210257783878785
-0.07855161855585403
0.007527524835742776
0.003298046449342792
-0.013376125196371522
0.04355471602530144
-0.015157282565293775
-0.024678318660094352
-0.009370449445869273
-0.04054266571905322
-0.007801484197774635
0.01257499198112515
0.014729346707051439
0.012908817784506178
-0.021296996470224778
0.020359904370766187
0.015819855579081794
-0.004787492181578298
0.040932722392053277
0.038822250660504695
0.05091682191290878
-0.01649954997658653
0.0018576078684093133
-0.09204138418377407
0.1437088903659114
0.17455684024938892
-0.0536324892527299
-0.051144397309951545
0.0032048106749564594
0.14475530539636502
0.019261800606745462
0.006776306553691918
0.010002105963119437
-0.028836701633423716
0.009178615098309757
0.005041660299907354
0.02444252306888316
-0.11336967676445252
-0.23639557996007826
0.02723941332954014
-0.0006155650524909089
0.036732515692047135
0.025826085107105018
0.024183430055016813
0.024133857032251696
-0.027897586408325722
0.04188440109532385
0.022630435605764578
-0.03833337557232587
-0.038631058679032326
-0.008822445732638982
0.1087950287751601
-0.02669789684390559
0.019783005960436216
0.03189785304926716
-0.03529084689029929
-0.01839549936271489
0.004383123420528239
-0.006661328220958612
0.03312264975179399
0.01178727974772839
-0.051553034463490896
0.0163120632894024
-0.05532026762281285
-0.06034856780196554
-0.018504309823004203
0.02084505003832224
0.01597637351414505
-0.008678826554455189
-0.001979248042151898
-0.015004590346223897
0.02780058286527249
0.01217331189278764
0.010408470591476338
0.007118741882695669
0.025264650043106355
-0.018535168793181605
-0.03938887804176064
0.09169148122286472
-0.13476506895111862
-0.13066699826621506
0.03437355410072703
-0.017774814270170886
0.04036506350877791
-0.019903676656169635
-0.013085529272032029
0.010479382789847735
0.01729725924369172
0.017798671069417238
0.014479696713241948
0.00602668536851095
0.04947084780482416
-0.009948746025959217
0.019301494395987478
0.013305442140432916
0.013478879297599902
-0.03684631013770091
-0.026895902512138064
-0.0053971342084873294
0.056861177633135175
0.06979239055553958
0.04947700184589609
0.04396576726273166
-0.0586402966778769
-0.02599341440652288
-0.03210555426729542
-0.029310239923692073
0.05900035508279249
0.029069188876462065
-0.004239951987952778
0.005495103800624789
-0.032999625422652716
-0.021423540673442435
-0.010846139353940182
-0.02453940217164154
0.012108304616517572
0.04527707813728059
-0.0396946109571534
-0.032450242294708394
0.05086956467781253
0.0330754747528562
0.05655517728906744
0.016301831640507736
0.008657459721990439
0.010632858187427936
0.012966047333316907
0.01375867922866966
0.006607091046495408
-0.039457714068751676
-0.07572638721448088
-0.004536587704860971
0.0003679322804260908
0.030403884741680987
0.015223231607780493
0.06114357357963132
-0.05188574237808194
-0.14467544058846538
0.005381868585553095
0.03398208229702742
-0.016481748476253253
0.04085388335080799
0.007378627997904486
0.016842407426402438
-0.20928530335131534
-0.13866674732544965
0.05373853801454434
0.010964258437240111
0.007830554466058012
-0.011656693819959183
0.07598468336333025
0.0131778908229659
-0.041305781378624826
-0.08948725682561047
-0.0194901709355097
0.0429706962141393
-0.0009501607369789282
0.008317379089791976
-0.004303147078939983
0.005584442590602788
0.23097780076607777
0.05782149918857152
-0.034802580530331466
0.011615428715893269
-0.00869444251806363
0.014549792446446065
0.08248562460315279
-0.021692731569048
-0.030855997206396542
0.0012763300519859672
0.017280079647371435
-0.03495301219360066
0.07879726447293042
-0.024684194194147437
0.008675115796150728
0.010119689136511198
-0.022856591498347734
-0.003935684933075212
-0.03430286171925772
0.00030266770413108954
0.0010750974825756167
-0.02320671062482152
-0.07746769482314239
-0.00896584804979468
0.002312111190536189
0.036975061235907034
0.0033454240882859697
-0.009043246627876549
0.001000037465147186
-0.014616105859865993
0.009573773110364852
0.01981175020853802
0.01400456585172749
0.014938615233870089
0.04486606523421644
-0.05780569772229398
-0.06010748853870794
0.029487838651636306
0.005515353113659754
-0.0245551197839504
0.013608244121662831
0.020883045321947236
-0.041690183706231135
-0.01654009876448266
0.010008408431022865
-0.009270772734893531
0.0032126196412423924
0.1317311392243282
-0.007749758285063936
0.04600458575300057
0.005505713216635062
-0.10868396663499927
-0.035495361304219715
0.005874298467575659
-0.08029361497356781
0.06124167285644836
0.02477980637867616
-0.012380192126165758
-0.01817841886805991
-0.028534162024749028
-0.011886436453397878
-0.008025770400995651
-0.007901653644890943
0.003019797970103689
0.0019076789962788822
0.04055678350582315
-0.026338211629642182
-0.054813699752492236
0.027210348893578
-0.000321094013046603
-0.023365340871405082
0.01717455427782249
0.04374712374549514
0.02924526345999859
0.0007862831875568689
0.035474491482218706
0.027881300718761815
-0.019458234188110966
0.0028741318897506822
0.008522841783216266
-0.01811806080047198
0.01880130969271295
0.007148069710642777
-0.028450088603294274
0.021806343655722274
0.0005692257358583864
0.007427082719077481
0.05022670261509581
0.04160588298019857
-0.056946991236716635
-0.012791096739179672
0.02071248649716099
0.011942546937764125
-0.021823737294966908
-0.026582136937171055
0.026743448971494773
0.009311977944636686
-0.015476364752222827
-0.013166013033645828
0.03534092735893917
-0.0006109810684602451
-0.02005796096936776
-0.007109764854107991
0.013276885237101717
0.011219579640554297
-0.014670986071014207
-0.018761783762224662
0.04279114906504216
0.10902150263505153
-0.017607552584935383
-0.03440793626518092
-0.08433104189832837
-0.04846989262835879
0.0074392138375405205
0.03319158889964697
-0.024114440938271392
-0.020794212972838552
-0.016466027963729753
-0.0024200757307038896
-0.014719202486007745
-0.04018195832533639
0.009550600265363985
-0.03536210752120209
0.015139750767983564
-0.029574203389399145
0.015384104181117682
0.0067140151406989415
-0.00448237024307225
0.003105923640460665
0.0008131282216898208
-0.015254442661595462
-0.024421545153194585
0.0009101923885915264
0.006997488415269517
0.020253807511494016
0.007997263478758166
-0.0014675985339139008
0.0079909158853851
0.032730964196795234
-0.024476269997424204
-0.01792986242159435
-0.013554578758507425
0.06601611848235847
-0.019702466976700632
-0.017068933291578325
-0.03906058069721971
0.01746533648370949
0.04033752057477189
0.00401091303422371
0.042786269286158515
0.020427667297244198
-0.0009713823519065318
-0.042618544510754364
0.003725338777514536
0.026972540749219294
-0.02550155719424076
-0.0017124350182085126
0.017219486478835484
-0.036938902912218206
0.06019110802630881
0.06205692688711697
-0.016567617941117965
0.010380751114241858
0.1285331962992371
-0.000521136209102211
0.03465421800233659
-0.03284782892986214
-0.12740361571372374
-0.020668925617957284
-0.0035628054816274467
-0.002511282268505761
-0.0014619833377090407
0.028657231915656743
-0.005518196079223017
-0.02088608103825809
0.05595405665230421
-0.011307797675475389
0.003353980363053892
0.06943695922433243
0.07522521107752381
-0.03385691732702199
-0.040498730289026966
-0.06424062014969786
-0.0705382275269078
-0.019226197433369195
0.012068867763808833
-0.11980674298272771
-0.06410590767303674
0.010326833489928617
0.02631851295842246
0.06699815211102807
0.01620538881174626
0.015893898382659567
0.006254285379699576
0.023170650257078273
0.0007159503644423136
-0.00922390523125724
-0.04856117424941182
0.02361410414429219
0.011528096086889298
-0.011942330477245043
0.003105048783183568
0.016668096233111072
0.029373093955632132
0.01932917688196415
0.006687637650802241
-0.030815099774688732
0.018564203041270846
0.028604825653644746
-0.0417221990748818
-0.02587251834693237
-0.04589947574665185
0.007883312095678531
-0.00428806233641912
-0.004063804235791589
-0.008195913273669463
0.010962031071869292
-0.0006155399756212243
0.011179505844771903
-0.008667743130207224
-0.002309603242635809
0.008206516476067006
0.022534491644560416
-0.011059906523631698
-0.0028512541509177983
0.014125722147780162
-0.007396093396151944
-0.01912554620300455
-0.0335358910927969
-0.019496936094602735
-0.0049975151324194575
0.0037181172874712924
-0.04460583753228145
-0.012992932797713033
0.014077333373490637
-0.018016167292565537
-0.014101864311239453
0.1674105810305408
0.05759056381964954
-0.012439661266276499
0.02477468617717615
-0.003627809063601984
0.005069453266251477
-0.027573578784268228
-0.00786430055599372
0.011821638184580789
0.020151081832699706
0.005686940476208583
-0.010797263514927519
-0.002365365091183184
0.007482166334967531
-0.010989281027099045
0.013477560894925824
-0.0021188502343386247
-0.029944596398663346
0.011230728339860102
-0.002514767009720726
0.009983004448819175
-0.011262270028256903
-0.002836873855051818
-0.1773764488750914
-0.011353567586575755
0.015614041165469748
-0.02137140593232046
0.12575657872181692
0.04085234621718781
0.02264852729227933
0.022085236092270755
-0.11059512659348614
-0.02005362157015316
0.12999337167177613
-0.02470284257616757
-0.027812293049282302
0.006834835070085709
-0.03652724009294408
-0.06974913639179153
-0.021370660559852976
0.001679979081706774
0.10173315053512359
0.08165959136052263
-0.006477954692128766
0.018740804401615713
0.02567039544220777
-0.03280024249522254
0.037374988390316465
-0.011109410500466651
-0.021367070232239268
-0.0025074772627502115
0.02056819923734765
-0.026371212185470214
-0.0053856236433084265
0.001442863448526427
0.032227713610011456
0.0017389604872018352
0.027037715258630152
0.008030079730591366
-0.014224152338247939
-0.00027991806932431884
0.04939733719982716
0.014785371593205024
-0.014832016923626474
-0.03105489596438214
-0.043659207507575445
-0.036700101152189406
0.0373316605848361
0.022662625078000098
-0.040618674484910494
-0.007887354395915215
0.01447103565739598
-0.04409773607461932
-0.027790844682327433
0.04783331867965711
-0.11311802562699293
-0.09808412549490512
0.02786366983702694
-0.0767186341037819
0.07604718229139928
0.043466934197142384
-0.01582819481363473
0.016962765410980813
0.0023056306924051895
-0.015056668503574603
0.022076289915111368
0.012706688583913118
-0.007083526025194239
-0.026889920853494044
0.016639593344785077
0.05781420823272241
-0.01575556299118722
0.00884554223811174
0.034130193825471465
-0.03632582148696621
-0.07802401258549202
0.03688526551305134
-0.02329143909697081
0.021082721090271244
0.01192344123861494
-0.013475871488676303
-0.025662105784213768
0.015500483511423614
-0.039866365728838664
-0.011982868941615188
0.10875039046189662
0.04405701037133433
0.03623795978037235
-0.0010530501492642414
-0.05252817342813062
0.03667182901084292
-0.035248848552946604
-0.01591841169427119
-0.02078171954633047
0.16608296940041395
-0.015903868747416405
-0.09840394286872219
0.023006442081393682
-0.0470540923156521
0.028825900391502852
0.012764797332660458
-0.01949120176930654
-0.050367105042973405
-0.01635639094795295
-0.01491481776486189
0.03136779118903336
0.18092496235159647
0.02490703275729873
-0.044356555017988054
-0.011562862757985432
-0.025862436789826356
0.013513940192654915
-0.015282146601850247
0.02216993982868153
0.012049709401874125
0.004733967628521262
-0.02624418483034529
0.005427280258833706
-0.020687256989893855
-0.049882759921299466
-0.005546334554696245
0.022323778184613223
0.0029005970917983454
-0.06483868376337207
0.028478583523996594
0.004681397332948696
-0.038469617315545344
0.0048906268687467815
-0.007412947963576448
-0.0011878936939220476
-0.04146382700378503
-0.021027884348117393
0.010552543805572056
0.006838132358494061
-0.07610162674450036
-0.03723140528990896
0.011960296264863458
0.006294384489296928
0.024506894565089397
-0.004279494767460622
-0.0112685069983378
0.015506226218658548
0.04515360615855107
0.02259890302000546
0.014178071101521672
0.0022226047290399213
-0.0038329491110732235
0.04136647395195284
-0.013419870184502872
-0.0020298566042603896
0.005799523877656422
0.02003598475307201
0.018578797594700384
-0.020489372500386117
-0.0006528844071264941
0.07769466402293103
0.06909939635983862
-0.03522594036230277
-0.01867577839562905
0.029175547772999764
-0.015701525213373375
-0.02770620001253356
-0.022851433758892904
-0.01850941420400693
-0.0002482248213839491
-0.009569397090091398
0.013873763300484511
0.05513937990652733
-0.022793843994917747
-0.06462426946795839
0.015935186569267686
-0.0007449419117474118
-0.04143250392194599
0.009410764641850238
-0.025428011230410042
0.014110019871422302
-0.016750089432450772
0.01340415032266695
0.07743154587019783
0.047031004693060666
-0.006641373171146919
0.02212597856915961
-0.057938064433099956
-0.037501798579292284
0.010914401310749762
0.020211370217354634
-0.013432952109356288
-0.021494846747656213
0.013885927165395818
0.022925153217598353
-0.01758592129057654
-0.03246763852610026
0.02107779597376183
-0.000671757737623535
0.018838514357616465
0.030124507654785637
-0.015340091770917323
-0.04598576805395746
0.03299888419358206
-0.043311326822605564
0.013975022743894257
0.022590104564790058
-0.012744259798303452
0.027702144984166666
-0.012863789680343449
-0.020939929222405312
-0.009481431033679563
0.00236414064144456
0.005367935320340573
-0.02158376636018777
0.005559551540020018
0.003392888897028291
0.014690792858191174
0.01277893701726207
0.02432100288516261
-0.031056965579901497
-0.02793315790004896
-9.88362120471419e-05
-0.0015204535183170956
-0.039987931159713566
-0.07549146509585603
0.058697860315972475
-0.006970829060091171
-0.05682264071172527
0.026861151241263478
0.019352822396939966
0.032424546102744776
0.05903602399035979
0.004798202597715946
-0.005458482293813881
-0.009992971450426744
0.0149281964193211
0.019938590927488502
0.003899938332420344
0.005472249661485393
-0.009802021062204423
-0.03293741498076264
0.020481581100283346
-0.008660811233388091
0.032033463706352884
0.002201688292840607
0.008824933865786685
0.011500441086033372
0.03337912013758713
-0.002352925477523147
0.013192090090861633
0.0018334857190959732
0.034589890897858175
0.04318001590119372
-0.03497041511460445
3.3447584380865056e-05
0.0016038960318649344
0.0365490377925576
-0.08406187056596366
-0.012322362921852228
-0.03263652517881421
0.04425532129978754
0.010722304143117608
0.1349191299005787
-0.12633802430422877
-0.06262245841784113
0.03210670084007178
0.016284376435338886
-0.13327871987821144
-0.27125654334580246
-0.05367180559985372
0.07721716008560381
-0.0019809267104784595
0.03609207538321791
0.020693154645606275
-0.006409333755097008
0.02733953020874143
0.02521692283622967
-0.013300274528721196
-0.022955403844773993
0.03096889449666018
-0.001183734790228263
0.07013706696866782
0.034932524325964824
0.04337887512292179
0.015113943977131766
-0.06614360449564612
-0.005550878584082343
-0.04176197828273851
0.04043174078863833
-0.008039681344257593
-0.026949926673867527
0.04385814439693253
0.025961628996440927
0.006042090708758954
-0.013481326938257094
0.00543232893016729
0.01601192295257633
-0.0024780166492827304
-0.022069688598992762
0.021691850083227743
-0.008639010694064028
-0.0030763317541459907
0.016139921127231588
0.03908608917384014
0.033132307778392996
-0.0638503653032781
0.13432924902524063
0.13640170172069213
-0.06732143413688586
-0.0042752088530563295
-0.025992946804738133
-0.012087517965060211
-0.017007303346220012
-0.0017853502447037599
-0.027184672196281436
-0.0779188100518255
0.004376375464539949
0.014914175917656243
-0.006381254088671912
-0.025831909778481224
-0.008029497909612276
-0.010793148796495776
-0.005009003512134493
0.02282776452259492
6.86915790886917e-06
0.009477536363508841
0.01738664693884284
0.024804145932743913
-0.005504566824346139
-0.0209382552051323
0.002327127109161342
-0.01924167252646578
-0.024384504089028345
0.005872916783117315
0.0776660607038859
0.028753528641441487
-0.029624806171541226
-0.0018363844817454213
0.005412206049362286
-0.011303731089642664
-0.029960964272375087
-0.03848813307258091
0.026027340375908568
0.005239251382057237
-0.03518775625904406
0.013744188756420587
0.05866523455567761
0.05139178109860334
0.030586926764101515
0.022203180999065604
-0.07780534130929494
-0.09201525860962269
0.036988615638399724
-0.002759385822040925
0.03125134345328612
-0.011678436275664039
-0.01010445680574635
0.005608913253907142
0.02181636406993851
0.004076187080264757
-0.044386396870357024
0.0035186945026699744
0.008375213981178378
-0.0629937013957823
0.026317282546164056
0.012455558660227678
0.004887057847568595
-0.014532361656884799
0.0034175968719709236
-0.03147169392436747
0.00012059298529046728
-0.02791250353712998
-0.027181926786869905
-0.008925158826791704
0.02108034995408088
-0.03566569423629869
-0.018888198194761893
0.018223856246688774
-0.018181059549785775
0.01922799432810453
0.010707747948714586
-0.002940951172056272
0.022887276572814252
0.009555600646970698
0.01480802286509258
-0.01115267004014584
0.0021206574616141056
-0.008632436289927624
0.033844839367482726
-0.03055787384432721
0.021550263963992986
0.036885712076126266
0.037570853262931775
0.039889824280993684
-0.009062881901422626
-0.04732775719562676
-0.01564111958335719
-0.007950285343778516
-0.017755622709059216
0.006338518582200198
-0.01070244589612181
-0.011923298887267232
0.015986203160126247
0.07336577215452374
0.00045151243472781207
0.015993342538974123
0.027996085151528766
-0.01571631533328684
0.01729814500312428
-0.0027382786890349786
0.005509968322570477
-0.0008067442562881952
0.032583326532472784
0.0012987716151688863
0.012539096020390945
0.003910044448150583
0.03705792435184488
-0.025658317096298327
0.02771371407887233
-0.04712448318886135
-0.08117117732578139
0.015066291554936837
-0.043823245020582005
-0.03422246060308415
0.0011420650042898296
0.0030791713214868392
0.024098388351076912
0.016759681827104727
0.01629179229155518
0.03643090095115462
0.02857031878651439
0.004430526697869886
0.03751485990249845
-0.1092861796030356
-0.05919685216259918
0.003952868488419583
-0.21535384874160732
-0.024714414693514174
0.03133019083470164
0.052297679122307594
0.03241660999615972
-0.009106266646061928
0.022233754617434154
0.03969126106448215
0.051427602518356014
0.004843909145960584
-0.0028255591335339014
-0.029271971791219986
-0.04344535187230224
-0.03548906961851277
-0.01787766669700148
0.03667986076890292
0.0031148765436236747
0.02890997212187484
0.015101847971727256
-0.007099158938465764
-0.03394656993489877
-0.0398781973328176
0.038479114718437436
0.051868319273208896
0.017281821906170024
0.15179801874571575
0.037940626612742584
-0.04034493330449232
-0.01800767566909852
0.007249502088400597
0.012319190234836677
-0.0022043772295795494
-0.007938201708204404
0.024427935698666307
-0.01742792164605095
-0.0059776010567352735
0.022970955079049265
0.05580646531758758
-0.05325693333396044
-0.02501789464456279
0.00336825514736063
-0.011493850392262955
-0.014847056851097185
-0.0751851907099546
-0.06209511627830884
0.004053953427838379
0.0013269181835619487
-0.0016887858670823729
0.004419199278299485
0.005110690057543678
0.030771181499124892
0.03389702913232578
-0.00854560482354227
-0.03455750007514877
0.025881190698426853
0.011234034964659656
0.004257018438644675
-0.0942971638757299
-0.10333158851381996
0.044877484317728276
0.01975261682196882
0.0459260327971813
-0.024698577619188044
0.02331186368272068
0.04086295687638316
0.0020704277968527584
0.00338133734816859
-0.016856108064878278
0.012042302669793432
0.08056554522313011
0.029614458257134938
0.01304345587069528
-0.043826500005581685
-0.04391722498745172
-0.007043098813502471
0.010542616681389907
-0.02351350745522676
-0.07506400321111412
-0.028816431722788513
0.004185503908903081
-0.02252254053244757
-0.016431884243688143
0.00763546362199102
0.0420896598381777
0.03568656381016866
-0.014044985411075009
0.012759846820596039
-0.005189080217275922
0.0466246344167689
0.015674555410950187
0.0028581420252727823
-0.013860941310610296
0.1131630891363982
0.11373843851152464
-0.026803840228191884
0.002487692147237962
-0.06447952997528404
-0.024810316452194486
-0.05317015262321355
0.016329352705444375
0.028854508515838338
0.005176654218445899
-0.02960420596042942
-0.007527735805230709
-0.023312248465258825
-0.0129525334477087
0.0005896173507020402
-0.014715808197247389
0.020173652312036633
0.022105791392849707
-0.0515942301450488
-0.024494526721647817
-0.02909726765574851
0.013578084899301235
-0.004778891760916886
-0.005337727895303245
0.04661056808229144
0.004682467127805215
-0.042948637050872165
0.01967873243387294
0.044245663099459244
-0.037447615185489835
-0.016646893663570424
-0.005804062552896489
0.0038095746143320492
0.031534528005228525
-0.013600356205263823
0.034853873364654515
0.008730271340142145
-0.017950292235057508
0.015458784278504346
-0.0013738965660902364
0.008273105858739235
0.02596724333406167
-0.006796457101940293
-0.06106589180895255
0.0017075649396766973
-0.0013163277039805747
0.02713624494677337
0.033415586159127486
0.0027979482292143495
0.009971370795649996
-0.00878306642362221
0.03236529630409505
0.032904181074370605
0.01388894989751347
-0.04407579623615322
0.03853314252073869
0.0260745209790045
0.024071780537041995
-0.04661260630546286
-0.2444895606576207
-0.030320423032339852
0.044270975843705
-0.0017862522353582235
0.039642183881936785
0.024225710699084812
0.0413086674264188
-0.0011373096328609735
-0.008427947963556337
-0.021077159012353196
-0.054710176686043485
-0.009402650184204737
-0.012126485905576152
-0.02501162523298163
-0.004272636595081449
0.004437896901968107
0.02669446699494338
0.03363628995465418
0.05041665304776843
0.03017957240144882
-0.008492478849347408
0.017821181502356256
0.026359491044607018
0.01411805454697206
-0.0133397411781224
0.020955559645495045
0.04343441978317029
-0.013982778029057688
-0.005315266194726725
0.021840561132391755
-0.001425171092967986
0.01551085374299242
-0.018062777167987303
-0.011630652903452637
-0.05344792789093125
0.006528172869588734
-0.021202342275598866
-0.012608720558819425
-0.025829016141083305
0.017748971326352534
0.0032221937187512347
0.047007154556221044
0.0381877361444172
-0.0071069078945879445
-0.1416795977141778
-0.001720943628624793
-0.004181087119634774
0.031186484049655374
-0.0002462327203537048
0.0960552406242022
0.07407509171650783
-0.028451491929597613
-0.00928324192350212
0.0778713404647044
0.01047170404305084
-0.000491207259782078
-0.1442322334456516
-0.11188261932233755
0.008843287244835739
0.012631058511200853
0.04112344595561816
-0.02045175684001106
0.0067627795299371385
-0.005218186558017637
-0.012952267413574099
-0.0041737304542898085
0.003016678438570651
-0.020295494429519664
-0.04754249868546817
-0.035956110787859645
0.015107723274450887
0.0408888834807796
0.02602866110357805
-0.005963243690442331
-0.010017532932131859
0.022894424918156176
0.03370698978484544
-0.02944849192058438
0.020880006196096333
-0.0003404718207636471
-0.012039355319996128
0.012141339213400892
0.023302658783896327
0.0006689001226534636
0.008188371347078342
-0.02714196457987352
-0.07107211348961807
0.010652865148935008
0.017328611996402666
0.012122672103637964
0.004417258102554953
-0.06646490797727805
0.023679367897534238
0.006678823852145607
-0.004589176176878348
0.00597359332585841
0.02802159918569643
-0.0361940454065998
0.014810275146794142
0.018528406656100546
-0.00015670490160934173
-0.01917605899917669
0.056974336057235495
0.09932643033571693
-0.015054711830681904
0.030405191480362345
-0.021617038758245565
-0.02255500153694131
0.042413400938908566
-0.010368015214491277
-0.0026344527950281894
0.03700796289951993
0.008803440753370362
-0.024886923211024904
-0.0019338957557440827
0.02829339986482242
-0.02891048476887185
-0.023553335562048684
-0.002821583510167112
-0.08257594738293322
-0.026634845667240645
-0.00024350175955905248
0.03580838695983489
0.0830777265096707
0.05785131300924506
-0.039729446757724995
-0.030244223447733143
-0.05016371215985384
-0.02965846403021798
0.0018014359052249812
-0.009757111166160858
-0.0311379627244828
-0.014167169623312197
-0.015919755897604887
-0.12971441402827688
-0.04124277606939656
0.0011042680274931742
-0.011530552066250569
0.09286412716372111
0.06445422113495555
0.00027047606725850233
-0.016893169156907382
-0.024500059366344976
0.060306359070200294
0.0727052405092685
0.01335410581848854
-0.02568860262146348
-0.006367413530864334
0.009404168385834282
-0.0020875370773640145
0.03112406402499414
0.09539199529864537
-0.049070944567463436
0.07825256452507687
0.09986786428465262
-0.007860412219881046
0.003332714937932396
0.008083810230127645
0.03402287756234735
-0.04851612784276096
-0.053326079425544536
-0.12248160720034708
-0.043700727910977254
0.00812248695889771
0.05307751726861274
0.08574482853080242
-0.028905133412643086
-0.0029441446826261966
-0.019278450853040256
0.01684005985783281
-0.09907469971469748
-0.020833510026907823
0.03693938989307694
-0.005791857234108299
-0.023262737287129114
-0.005295396304072621
-0.019144064031266363
-0.009522358084749372
0.02112154495185587
-0.07098545796584536
0.029202403659475764
-0.009517166356721634
-0.02446949134204361
-0.03026898161564374
0.027217574214124372
0.07759681944482474
-0.016125858826875287
0.06362414056576687
0.022457019357679117
-0.037070569459761074
-0.02099549043484555
0.01925375603864854
0.0015462372664241516
0.010810961545486377
0.0006824341053485455
0.00802110200586339
-0.018618351054955413
0.010255496940069306
-0.023353279210981688
0.0701122433726075
-0.009390929846053761
-0.14079438904938263
0.021791810268618244
-0.01835732466759303
-0.010023729095984903
-0.0367011909671247
0.02592481414375799
-0.026023330684109208
-0.015729141109134308
0.008646257126045899
-0.01996042328295204
0.028336712449575963
0.02907291146797175
-0.038921187330585784
0.015100103554131859
0.06495886908641596
0.06570297003639437
-0.013359213147995316
-0.040101670874911836
-0.07864499629034315
-0.015368379417819246
0.031316146764939844
0.08004201383663193
-0.015368909372751175
0.0037013966062605878
-0.000875041544004269
-0.0018978416966461465
-0.024383769364407868
-0.032706793983207055
-0.03121990520427668
0.034591419828861374
-0.0016663840281302157
0.0053645135933382965
0.024964632508889823
0.03837752262226199
0.0008511149907321741
-0.01685092091298784
0.010777660147378581
0.05804047832495065
-0.03518255860581067
0.037867323663130274
0.056766155609973674
0.002330352521119448
0.01568066355245214
-0.026934419758546317
-0.03634495071274455
0.04500956004019501
0.05829440597767658
0.02034342738465311
-0.02079898141870213
-0.017583004059469002
-0.07551297439420247
0.014190732905765141
-0.00462058105692539
-0.06337230803731299
-0.02087803171398891
-0.02341101810624103
-0.0038502458988953023
0.005210788521946325
0.01173140396786306
0.01440721824587253
0.019888673021345716
0.06772061079538191
-0.01001725218838167
-0.010791357892202126
0.010546953742527504
-0.017812452091574817
0.0019206155176280323
0.019835805618715778
-0.025384288054934905
-0.0004920966908677522
0.009304991037690715
0.018092067947309876
0.0053513586910576266
0.031897902685637934
-0.018711070099295547
0.02391505974983966
0.03280119531395311
-0.07930332766766154
-0.07055250123314741
0.02036948072449762
0.06490273891230104
9.197850677941428e-05
0.038886041586648205
0.0025870140398120867
0.004017539214417058
-0.037241802546121035
-0.023366520316193656
0.03956536831556823
0.0032286624931394154
-0.0073175175932975066
-0.031703763822246274
0.03667622903184144
-0.03428712107315804
0.02066354636909006
-0.08595766802811451
-0.09986529305902542
0.03170485199277545
-0.05903471354728612
0.008143949941930073
0.006211751251885783
0.008905200922599353
-0.06375814683745905
0.00867591277696711
0.0012356255373236805
-0.030163765525824632
0.013815787699138469
-0.046237399746707604
0.026199818437697926
0.03373201110725894
-0.06902233890757718
-0.10222999590032636
0.09176824330398572
0.04863898805311416
0.02407555120051933
0.0031383780831675248
0.03587079806661456
0.04453315898046984
0.014061521180261383
0.07069632166181335
-0.003980239293655997
0.04291957303965464
0.02892584575625958
0.0008402160072159841
-0.11510869479190594
-0.07102553400613272
0.017744544195316538
-0.014212676607577673
-0.005948156965287409
-0.013037448548665578
0.028722917857486603
0.03811033143461925
0.06060591084775697
0.019328698559648423
-0.01744146558610019
0.0043570510780598275
0.10039212936699357
-0.02639178296344435
-0.040764622414456324
0.006377437641835356
-0.004523441694403955
-0.005422684036965497
0.05197436227267492
-0.0057082459740898294
0.008539511032080421
-0.04616658388487972
-0.018801320649911052
0.04184278062474072
-0.03543445106853155
0.02107593459638877
0.008342121830824011
-0.015134070737357964
-0.009137411478433416
-0.021584083253249686
0.030906023794412686
0.050649285278163876
-0.03980294178281592
0.029199240337341392
-0.05085962709477901
-0.004693139333899662
0.007387840129174494
0.027733765025504214
0.025248461228506908
-0.007238982006881957
-0.19717365352408914
-0.10908920400358986
0.0014885532735195843
0.04220686212526586
0.1264548754312584
-0.00454656952674964
