0
-0.0230875998091396
0.017632108931649078
0.015477878894279018
0.01232141956025919
-0.16235005926658863
-0.08063131471273027
0.004758578956383794
-0.0017374780616742922
0.09948766064304124
0.07214934699159035
-0.022654121537716565
0.049960473635252065
0.004717311735931899
0.0025618363700642844
0.014915342443534827
0.03447072191783963
0.062481618859237725
0.004307900520365887
0.05342254957228682
-0.011388188904818098
-0.008701744370694316
0.02017815281758037
0.03936318658494616
0.034758819715944696
-0.17060755359830476
-0.06793545082871731
0.008041565946093005
-0.055224035159565005
0.005857238179679514
-0.005296497615734208
-0.07511896161409597
-0.021441462455511946
-0.0001212279414004291
0.007839978823922884
-0.016895631290387476
0.07791881111529537
0.05526487787173334
-0.05662351633262591
-0.03434544829931121
-0.010124237768777744
0.03665803803526381
-0.003965551310750736
0.0001640992907132143
0.1530586660295146
0.06534480666351092
-0.027935421322703907
0.035145678857014966
-0.014232683740093363
-0.03948644536528204
0.010100998928762935
0.02787151736051396
0.002010009899303326
-0.00953388640058564
-0.0023101633575005717
-0.006401054261894412
-0.040025678601710385
0.01569522006692829
-0.0710385953362014
-0.003318362210072434
0.035753675661654154
-0.004928642302665143
0.07020956173155392
-0.014131445651631585
0.02672971902320974
0.055207069812451055
-0.09074405664453603
0.01895348333074718
-0.04277579884178381
0.03487317013277389
0.022170536117401295
-0.06623169178287297
-0.015911829348709442
-0.004320815276381145
-0.05031109584285114
0.05098642853469329
0.042279355171465124
-0.02503118502758938
-0.02881445056754998
0.03726332306310062
0.1628884274078786
-0.008756554960106295
-0.052899307161381415
-0.03931991469230452
-0.026137479120175746
-0.032512675295855616
-0.1369276866750147
0.03107279011995745
0.10103222784138201
0.0297672350608937
0.041127902733458684
-0.04623144795655424
0.0019374114495507948
0.001099942069786105
0.03577365330286974
0.009925877534230512
-0.03336237520095306
0.014590098929486556
0.03466892161444062
0.026052705483671453
0.02510897107002923
0.007258400864024316
-0.015995641732181428
-0.006187812156761797
-0.058041045871753995
-0.001019594001431822
0.007754829960726825
0.02243754647302695
0.004271553474584178
0.053327284287564065
0.010796452712180313
-0.023334638360119158
-0.13791191821764018
0.006668790931360468
0.033612592565130765
0.014700333277845446
0.030564591274789797
0.0035538616935201937
-0.025914584881035607
-0.008306884659436038
0.02323990974806609
-0.07274798510352981
-0.22373380192126827
0.025357423793202816
0.07467823525351351
0.033807086290622096
0.025728019969007226
0.006419919731592332
-0.04872982473773349
-0.0069607160543424425
-0.03427068670644684
0.0069726187227686824
0.015163162486585094
-0.006722128183396121
0.004135219177698813
-0.04686392288197199
0.00902022624896479
0.015054086303896897
-0.06041385648160949
-0.03365866179017825
0.06299673088005656
0.018878980634266473
0.0015654140497531797
0.00454335171999986
0.0060818884186514205
-0.03156284956111885
-0.02274514551565892
-0.012992457134771108
0.012039388192076459
-0.00018271290576445543
0.047632044011004265
0.033631953729232826
0.0012227011121323265
-0.034404201477881396
0.009552391218537857
0.030555595951383883
-0.02302833840056686
0.0008099240808884808
-9.61099220170308e-05
0.047583222623707025
0.01950316346484729
0.01617671388239553
-0.006396222665288137
-0.0171039064150921
0.06179920890067494
0.13909281229243817
-0.019127903326124133
0.009536432763911116
0.01883216463698899
0.007351723905803802
-0.0289121781507632
0.05507914905786824
-0.00478614488747167
-0.04286012481600671
0.048169047652157716
0.005984207908926294
-0.044000533422281725
0.019319443067020707
-0.008937272957712392
-0.04395930110576984
-0.009292693620123638
0.009234143867257495
0.029003834889391098
0.015719954504525405
-0.00018204169422474334
0.049590075507965445
0.09652929104921384
-0.08993033214060767
-0.031499830840740164
0.010758515222192601
-0.029095082673381904
0.006387029558768769
-0.02901221095775442
-0.16463219863154496
-0.018248251147675608
0.03358601870195331
-0.00539048118233872
0.01669021152658626
0.019730742125965803
0.008950961439145418
0.0069809768234801875
0.01608473672628831
-0.07217097225307754
-0.019879421152658477
-0.07533165742068167
-0.029197344758343968
0.03535817251619082
-0.02251434072296089
-0.049717713676996754
0.023319701407309337
0.01716289866114431
0.01708278593525858
0.04146099832001421
-0.019706069481740432
0.018506389340626542
0.0191822263358598
-0.00020026191984811375
0.019568656904289508
0.005558338481527708
-0.007875568940142444
0.0352006333202736
0.04336404541146335
0.01400830233465351
0.021770598444896753
0.0160917443631003
-0.01584146471739105
0.008002600163114465
0.017665624686179167
0.0021694144842378904
0.04489022293080172
-0.10469232111219041
-0.008364109076134968
0.025833994581933313
-0.05749227256729079
-0.012129996981674497
0.004073631359852397
-0.011757039874029387
0.03975280683398513
0.023672172821622473
-0.024863879296715685
-0.04147384051912031
0.005477329288945717
-0.0062108603944299266
-0.0056134060141155035
-0.0076144403239749485
0.027881301963662293
0.003798969759208989
-0.029430524561017104
0.028943531326285826
0.009922447261949028
-0.00842810137649466
-0.03235916953208155
-0.007472944401733798
0.013708030967123884
0.0064790872087420286
0.027729155080114348
0.010861752012217405
-0.05320544043248719
-0.014624148321567925
-0.016474300371408495
0.019612321524633932
0.047450818228017055
-0.04525336911476413
0.03137975525524203
-0.009931783183339277
-0.0609678912595641
0.0072525081472308885
-0.005231466340239646
0.004813196935362969
0.017897795658517242
-0.022292021614956425
0.012443962136890648
0.016309830109771536
-0.00046385377666777964
-0.00021388217179853897
-0.02779058933762949
0.040513981849632966
-0.012217352967068143
0.014394302009131266
0.0798309095732349
0.02108945770320711
-0.051063380817133824
-0.01690430273011005
-0.01256855315842818
0.04112877915903908
0.05477659680106351
-0.017807270053827616
-0.0447552573629529
-0.05506788988104675
0.01538405132257795
0.06840686249207233
-0.02066406328538009
-0.036091718816957594
-0.01869810274962706
-0.03226228217783297
0.03641712205490478
0.04505354012147686
0.04602196271160597
0.027650302031419327
0.02352430766681475
0.0175474681451021
0.04310864241476785
-0.012599851624151073
0.008697639317433946
-0.05150832516508411
-0.07880109452685102
-0.004498600643368551
0.02199851688434616
0.010826433147186336
-0.04439503052213817
-0.0672753702001793
-0.059049491100752693
-0.04041611930216036
0.09979323165079178
0.030858361769348384
-0.001113721648586321
0.005749875146215745
-0.007685199862396432
-0.0028059185215463436
-0.015973049224729
0.027345483365425957
0.17271371592298623
-0.027025713416986924
-0.050705345495090766
-0.0028597315931850236
-0.04101023783053305
-0.02584069780844713
-0.04011269645769911
0.02889783051369848
0.01797638717281095
-0.011920499570631902
-0.029337710743770586
0.016386503334071767
0.015547961120891993
-0.05175213314527186
-0.02007122998403748
0.030190211226168807
0.017164024799683746
0.014545426219278805
-0.04048618801317692
-0.03769659898280232
-0.0051637447272346515
-0.017092696793807177
-0.017849959181802513
-0.043556807526133015
-0.02736073501775465
0.0057143113756926486
0.005270021969975619
0.06189545548613304
0.1557854895766229
0.03827096522853791
0.04434477604230091
0.005104949483559576
0.02501516266439438
0.06851973380404279
0.00310127805212389
-0.07541722882338946
-0.01307070735409918
-0.09424484441578684
0.01839120650885321
-0.008247158513478771
0.002515699752341667
-0.013416628596268838
-0.03015560387347323
-0.06219788526486875
-0.001463058927306713
-0.023136142286213912
0.003526836205190519
-0.02001734754232685
0.003635979245198024
-0.024145797816800044
-0.03172796622066061
0.04681509708442402
-0.002554121703898904
0.06792468579916719
-0.007402898845182063
0.03025476507308323
0.12395231738475579
0.010159215154755074
-0.010741485514150766
-0.055816871737710036
-0.0074249226808173275
0.04093873218092119
-0.006440924161970002
-0.04746564107744579
-0.021102264624065687
0.04093182491962056
0.009544611885907673
0.03330028653444428
-0.01779399475091454
-0.03241884920802427
0.023657122587356038
-0.003497855647565007
-0.01270153898772116
0.04534729956986538
0.039288412525062766
-0.004196307754483457
0.0014628998795569587
-0.015294205905409884
-0.004633827041526905
-0.04705873527264375
-0.015936768125927373
0.025688541328092927
-0.03214678177010851
-0.000898388902978945
0.030109713015570406
0.036679236032876227
-0.18860706367891542
-0.09819559517380683
0.00749474099341175
0.013661703927410736
-0.07234420170023231
-0.11636526378994122
0.09730501627360082
0.08985431648082325
-0.00460511801228827
-0.03303938267975635
0.037356364637848805
0.007668383963341285
0.039208363497923844
0.01734998193449935
-0.00689222164176666
-0.017102885887479467
0.004993036780716324
-0.012745347926920588
-0.004382235043789323
0.02114570176638821
0.04230575392546288
0.02834769842143213
0.026062531273714704
-0.006929338402636891
-0.03962011855483772
0.0032634961762959534
0.06770459837880263
-0.004812704141903942
0.01889821445121897
-0.01917057457930689
-0.010326542620198314
-0.005966887875805326
0.0008296710036274113
0.021644796375083847
-0.007112377548805916
0.014883236455354044
0.056186743974940764
-0.014093290951763503
0.00676593622729421
0.01260286476692948
0.04349338483810375
0.01051612755907249
-0.017099519126409255
0.03020996366779149
0.005913799884093517
0.011281085240271407
0.017244693432317118
-0.012906204285279848
-0.023754471401619733
-0.12195157525874477
-0.0582844032460797
-0.03626178776046736
0.0037921333620027464
0.018059874569768142
-0.02159660359914356
-0.012103093327780945
0.028772998677928156
0.04869848028863902
0.015082527778290781
0.030537136390046824
0.022698633635150876
-0.04374640797285182
0.011947940597090709
-0.021775321378276546
-0.025992096423751474
0.01446002899500442
-0.016493506274202527
0.04896675907247057
0.04480801212325387
-0.007394238114726934
-0.031124566043239404
0.009404761992018097
-0.034594427541291016
0.03632059205237852
0.056758234289685926
0.02801586712509224
-0.010859249282785918
0.0005939713764753148
-0.049498449751163846
-0.0372491800014825
0.016826104228154008
0.016073194601465092
0.013828054671635078
-0.009691789160616823
-0.0011284151778551692
-0.017892771126943596
-0.05603240153999026
-0.05164355045022997
-0.0427858088782725
0.004790489822674783
-0.014654754266486665
0.0209459017423042
-0.016017595052290123
0.020996070529631015
-0.04798129703079346
-0.06554622058646177
0.04600098955835425
0.012799611944702588
0.02089991704644321
0.008349508523753373
0.02410773223028981
0.03417005594603336
0.05885763017232967
-0.06363584779251226
-0.01639968506291757
-0.014167002596302119
0.005867417011872035
0.021724879122130947
0.024238887204467638
-0.015193680689391515
-0.027901184147593537
0.028688646081968926
0.01027853413845399
-0.0439042530928839
0.02099824119172696
0.05756277638349533
-0.005180122354213377
0.07909852890660597
0.05944300840964515
-0.04908789850467039
-0.004199172890811614
-0.024494375404285673
-0.02365219139805961
-0.015122048136025263
-0.016266752284756273
0.010631588995936369
-0.005048894405485252
-0.00013206249451434203
0.021159510439618272
-0.007747015255035967
0.009817067772254134
-0.038949458415711576
-0.0020037627258799743
0.011352355799448082
0.038185758614870786
0.002378339446588355
-0.09272057067432812
0.0036687730460740913
-0.032032412275827545
-0.059079351270790385
-0.000583912081979475
0.0054523299252581545
0.020664537505106616
0.05605337464268031
-0.0036406885707485326
-0.001887550053848636
-0.04676678636053913
-0.008016436323805219
-0.018322951033852453
-0.006552084974212393
0.031145000686114883
-0.012355914103957302
-0.0006067203868754861
-0.009315605306799804
-0.02216463879301973
0.005455674425592682
0.027678010466790783
-0.010092484973590131
-0.04499990447614772
-0.014841236271339625
-0.013852048221789091
0.036284099501124094
0.15143381058119776
0.0050149281185936385
-0.019057181182037346
0.01579752154840749
0.003708158689846576
0.07781820191442647
0.039793114781346166
0.03000167262685123
0.016409648855904513
0.017456720951885572
-0.012100128333153656
0.002896990089346101
-0.010951410617411733
0.0045342477199492096
0.016819294598416395
0.01170163828727101
-0.020857128715743724
0.076941913554968
0.014422115507980423
-0.0008727735592962505
0.018981653272136054
-0.057209340108965556
-0.020254319456255786
-0.029536689508513358
-0.03210855479392147
-0.023462368933236968
0.010201078858525624
0.02298605274928206
-0.0509534957909146
0.027007000860452
-0.10557581420756684
-0.08812699567441362
0.03482021770339797
-0.04516086506191974
-0.035753627634590536
-0.010113919855561567
0.018113888766871228
-0.02400756929104667
0.011177425267045564
0.05742771576081891
0.0201601539718511
-0.011510950130264649
-0.00664220919821235
-0.05723475919978616
-0.0017443220594094558
-0.02982428500952297
0.009859681143694565
0.05058392678796027
0.015872939059366736
-0.03253447257769709
-0.03855002355766835
0.04732802531487476
-0.061673032679716945
0.16208846012522993
0.13926956529322526
-0.027698773019078107
-0.02107375329935716
-0.023256525657761297
-0.012946684802284714
-0.008131903978859762
0.03492969023221677
-0.00920471377150383
-0.030029497643296214
-0.004929830367953755
0.0052840944316690525
-0.11022875752361996
0.01038796432210067
0.009222468180425603
0.01173278852278454
-0.0201793198176415
-9.650041197195423e-05
0.008181730816121937
0.04418221569083444
0.00794714221241146
-8.025618566857783e-05
0.05386715618893813
-0.008485789077126812
-0.001008589432592645
0.026801622132844566
-0.015564721937365602
0.01874843701645899
0.00994759002600219
0.03641720540226528
-0.07986606806165152
-0.015535002613823005
0.026233314212982733
-0.008936854633072363
-0.024014259558274312
0.0010006451228428727
0.02885372253178016
0.030118619867762854
0.04004989505635673
0.003249368624555967
-0.03588165596212105
0.0017170987870853834
-0.021642286764728045
0.010850222377579825
-0.17023652784046728
-0.07099981134962875
0.03456958284801634
0.012316503805097434
0.032346064985032
-0.02146324930475062
0.032576625666388886
0.04614908860484682
0.03644869998706223
-0.0002704150291390539
0.028321887041565005
0.011000687085646806
-0.00821076549042771
-0.003574288917769878
-0.016997211436128284
0.05419807841690374
-0.07333291403480222
-0.04558204566851939
0.01643575587158386
0.0007020816709500427
-0.006225871787173242
0.009187115305156104
-0.060627925942965524
-0.01743107543397077
0.005467900273569631
0.07942271774541196
0.0559298136255983
-0.00798906162616226
-0.013906161421944016
-0.10118615274027341
0.007615868299004156
-0.03339258456237735
0.0297516100514214
0.03461467207457425
0.00058788501410622
-0.02416555115103747
0.01571142405043714
0.0006420197186464648
0.021675252744852633
-0.03528210067929094
0.028368066544184042
-0.0013841263116113201
0.038513388336659
0.07963566499594166
0.011606126114811878
-0.02845829475525771
-0.009515128987081588
-0.03448799321589818
0.030404135013998967
0.023907973656658227
-0.017152317679770483
-0.07663801171001049
-0.019847169461433393
0.018715515737159925
0.006684040040288703
-0.03107585340361575
0.09795985490089983
0.03739161453466816
-0.023259890563341157
-0.013546238921383734
0.031212550285855085
-0.05959404821179522
-0.05639734141979899
-0.03646759789288398
0.03188010417951122
0.050569985980423775
0.01558788614143126
0.004036335781714888
-0.022566655592311382
0.002378262190086766
0.008879393191521924
0.004048479111621744
-0.00826551596486888
-0.016000349841516416
-0.00027982379269919194
-0.014263365072039763
0.014208436614159879
-0.04268641686453529
0.02889686556971344
0.06198671824696161
-0.04234324691107892
-0.24006234612477245
0.014266956680415912
0.06760998853907996
-0.008932901572327314
-0.010875234199916482
0.01010677364282818
0.018001041163255984
0.032292951187579556
0.025539909190729886
0.03540579904489989
0.04043874387604783
-0.06304672597080585
-0.039338717341354884
0.017005721887022276
0.017387286537681793
0.04816234082092563
0.09525950322173252
0.007935518159416288
-0.0009933114754045967
-0.15064873240778415
-0.005381247771732366
0.04680029386675628
-0.027391953340225303
0.04767077539899835
0.04503832363141684
0.05754034193950268
0.0772489664708884
0.055558198642042665
0.013752299816695736
0.02261746923503442
0.04644852957551489
-0.014503266010588545
-0.027994525077822883
-0.009310100580795077
-0.013879696391860456
0.008877871926364989
-0.03325113502444793
0.0003874362425125323
-0.0664317763157848
-0.04655292478510467
-0.05563588719988203
-0.04681744681598618
-0.001375253622569709
-0.04176802715379343
0.017392453473151236
0.004572644811941084
-0.019711143747978194
0.030000799951674345
0.04813936074782937
0.04683678684973734
-0.07672740373967116
-0.07292581471496287
0.04051498124751657
0.00787435827105687
-0.03509051954079398
-0.003368599914184495
0.07227030081584643
-0.011472064939546472
-0.011557397367650912
0.015195311947584379
-0.057953829794425794
-0.03269799196442012
-0.04293918157141656
0.005211531742774683
0.03708655857548132
0.017504017973224525
-0.0032460690898252925
-0.041471131073618904
0.06012153306802083
-0.0016322354392355983
-0.029145593182867628
0.0040453407828988696
0.021681449796316005
-0.02117532346999581
0.00631732766464584
-0.02588321487732697
-0.02336811686987009
0.01639433865697958
-0.0052430774682001415
-0.02042864497968928
-0.029083373935280012
0.04636480952216256
0.04879887633539065
-0.00216643420178812
0.030875510591215495
-0.005075219623857271
-0.013849273596999535
-0.03401653740416513
0.010451628414186584
-0.0215472570491073
-0.0009015062842806757
0.019969571395683477
0.07425012191011887
0.06623911710799535
-0.031209818148726944
-0.0071883767818204216
0.004929081598876047
-0.012779426367687051
-0.00427947675440564
-0.03695000507915695
-0.04624426898439195
-0.052390927065282804
-0.03346050853911907
-0.009037112092301028
-0.028174649982111683
-0.02052603392101168
0.004634953597271047
0.1586842782214477
0.006441812496599858
-0.05150888734196466
0.10737236338016981
0.032738005509817786
0.008404240975394037
0.042125395156330674
0.05640138013563826
0.017001073528718404
-0.024093709940744907
0.0016022421992748428
-0.01052503200788315
-0.03493295053569633
0.05127838100782456
0.023372685510100914
0.010357294169680653
-0.008686176134502165
0.00599143487400633
0.0294654304024105
-0.05386088287152337
-0.07817363816241281
0.055631517896679895
0.06141468078599499
-0.049095091202196885
-0.0339240364396963
-0.04303336608219197
-0.03912942231977672
-0.033267759709185656
-0.0067864462911426384
-0.02761183764266526
-0.01687046439961467
-0.010880302971752518
-0.025039014272244323
0.032849263607579615
0.13241866961850854
-0.017148215353962142
-0.008113317949103653
-0.03731552666963316
0.0055594618958969225
0.02071439181103046
0.03201817246980475
-0.095684224842268
-0.05845703163644345
0.010749438878532396
0.013958532939822353
0.008566952344272677
0.04592019221766066
0.0162822008969384
-0.011048249113191862
0.012020105513936964
-0.010142605293073747
0.019110018637121237
0.0015112699133853753
-0.08159906785028524
0.0049860145616275895
0.006190410377171356
-0.015787772408465642
-0.0028006376256999354
0.0004498189682715989
-0.019424655569408106
-0.00754722340988804
0.016124724667288218
0.04498889423730412
0.04192489541798534
0.010575203722866248
-0.025648693923791533
-0.02444997960460112
-0.010864047558918495
0.022573921839794883
-0.034798891504297526
0.013640115715232165
0.03216622364813845
0.01862816424002848
0.03685440615632543
0.050417801814365774
-0.009540374611411193
0.026468573425863166
-0.00237550065614884
0.026118005987931226
0.01314959877459956
0.005351168403237585
-0.09568333001181951
-0.05096556408532757
0.034480576007690465
0.009119376446449405
0.006582987805574662
-0.0029463330325052405
0.0689117517453915
0.047574928501971786
-0.020062780334636057
-0.019466344995489833
-0.03832492451174261
0.022150991130743862
-0.0006472144558579407
0.003931799375078948
-0.17513246195788193
-0.09282391196043588
-0.06343469098662938
-0.0009641514315627186
0.027713825413612524
-0.0619437339610098
-0.0067200233531652595
-0.013508910753379722
0.04151416641199101
-0.0013633163713104727
-0.04439407899103727
0.035106669097149344
0.07554764348734692
0.009435632147639907
-0.0002842104240016944
-0.0041313350260945665
-0.022004746927180057
0.06580234110675752
0.18809645237541994
-0.027727044714760063
0.004356191912820624
-0.04334001905122261
-0.017303347298299368
-0.02011625734849709
-0.014830192019541753
0.0004957563673577794
-0.012793577912368561
0.013310872686992999
0.04903300074805742
0.019873108056246775
0.004029879549246348
0.08063636194139148
0.07627140112006685
0.004591925439549003
0.06152783950053996
0.043787138779995766
-0.03246575244617753
0.0016880665688928003
0.014328460358527813
-0.010177975868434592
-0.07860779076877644
-0.044339539200591666
0.025079811713435016
-0.03055085466179759
0.009292371734832418
-0.1052711450719355
-0.06396385892003337
-0.005760932944690053
0.02701808752395631
0.04330095196967036
0.034165262242468436
-0.03367623909184629
-0.08936059672771729
0.007059772544718757
0.003612620358606932
-0.04337341934707515
0.01922101949842732
0.05532281154052002
-0.012376841181778266
-0.0010946301317014708
-0.018304603262768133
0.017942835614652593
-0.1111991497456717
-0.0946827436524189
0.00377280979647271
0.016364877208955905
-0.0013075650890000512
0.017091374866882874
-0.013950377444659202
-0.023785449378095014
0.027073961098548344
0.004900404859953646
0.03128492611913977
0.0004063064805495566
-0.03586223617393338
-0.05071901364203537
-0.03453744576829953
-0.06661099546205988
0.07572896382250881
0.09233499369774052
-0.02579048202863307
-0.009506320827941195
-0.037140306891460105
0.11026916559626326
0.08565307080405753
-0.020849134442459023
0.050872423606436026
0.06199942598092625
0.13023823823092462
-0.036241128413981666
0.030011886519551417
-0.03712649705206724
0.01570125915299441
0.03658548429548045
-0.006334427034396794
-0.03360523265629437
-0.0021392670963652468
-0.0074220763637177
0.031148590777388924
-0.03888394592757247
-0.043297793021558124
-0.045246951219008444
-0.014529186559085847
-0.017393607004467838
0.05087963638748178
-0.026051204764274163
0.22501610062236554
0.08283408890661702
-0.016608686317776625
-0.05757440366946812
-0.011059399540476855
-0.011142519422925724
-0.03625209168688083
-0.03109373881847847
-0.05404251171172171
0.013152905475631506
0.010427374307904351
-0.027728234387098646
-0.010998270842375408
-0.03248670490017032
-0.025971943833398098
-0.047385656303624006
-0.017167286616390432
0.009990743441944075
0.059464979895197785
0.010235992511831259
-0.026088908863765563
0.007283464417929454
-0.018721232519868545
0.03209631138051628
-0.012250843214523948
-0.12349267127630051
-0.040000312470214815
-0.02343136036773631
0.03588078551294437
0.011341973460446759
-0.01734668276722763
-0.006059469687764983
-0.012829525073829217
-0.012611328184979873
-0.04121593649284587
-0.06441810355725765
0.04191591387277953
0.02114335695223509
0.06969586128265387
0.07464899718945488
0.038181327955469024
-0.02085037253084409
-0.021906898377243026
0.008113799144784333
0.04334963392091075
-0.029932880298870763
-0.018979559600159762
0.008158185304742533
0.04899466895918169
0.039076383827773516
-0.046567726184976246
-0.02460029408420289
0.012565494968366522
0.10943491033271027
0.042530812594874824
-0.06226024155227308
0.0436159572026371
-0.03507642663258384
-0.012780173966310693
-0.1212642163384229
-0.07909150208959344
0.042172345329830656
-0.011107934918521106
0.02720406927529251
0.0020575685111357796
-0.019813185463851732
0.04497364722397805
-0.035493481803503445
-0.015775259569846108
0.07967356913160056
-0.015474474425629138
0.006686370577449556
-0.04078762961117411
-0.033953018814816244
-0.01231609975982748
0.008523321666095297
-0.02365044741196295
-0.010380509614978602
-0.0025945196240024825
0.02632948635480413
-0.0501669083692438
0.18301399069453192
0.09817716089763225
-0.0354977007149706
0.047106533852930496
-0.018974937266644135
-0.02011631867271581
0.00624574310400566
-0.04401047955518626
-0.021585839048504335
-0.017548008950135086
0.004649848819229394
-0.018240577361297725
0.021601011921828162
0.03624693959101937
-0.0022243886538696658
-0.004241929862351693
0.028742380196800317
-0.022298358513232638
0.10475054475660715
0.037267302169582774
-0.06082107711103609
-0.007542578822547055
-0.024833773340992567
-0.03679783029999104
0.011121720940788896
0.04339792547623644
-0.15121164469890666
-0.15623252629770373
0.012358256171239897
-0.022526073997585144
0.0019333798403456893
-0.021691886922271555
0.12944371413877806
0.07205450130667698
0.004661295691443104
0.03643796419734872
0.02462027953170252
0.031056066255729254
-0.01561287156805195
-0.002780563380868979
0.038376591821810996
-0.10830455013123538
-0.12280017313445486
-0.021539343948417167
0.01581721302629344
0.007456327553038897
0.10703084384883549
0.040004855437041395
0.052610531753787916
0.003517442887238098
-0.03989439227241527
-0.0442984767028606
-0.013057245007808322
-0.013360222135872466
-0.0023900402775044963
0.0033347249770571967
0.012852288568154391
-0.00466393603589969
-0.03866260011192943
-0.014183491255757515
0.04383997058228916
0.045120640272354934
-0.049010094269213295
-0.0028279852928033075
-0.03143953230637495
-0.04164920509985104
0.001027476589341902
0.022629960342174155
0.0021647673466317126
-0.0017791158249945117
0.05848305108290647
0.05762045532266259
0.0409324697975571
-0.01590970264218701
-0.026511386192996544
-0.004266230610841454
-0.020714447616724155
-0.028119301570851785
0.0016964325583593398
0.020548921502052498
0.09641164521038287
0.05366526322738469
0.008880243702622723
0.017849281543667484
-0.04511223170209156
0.04197899043830036
0.08191525988557091
-0.033872796579667075
0.01041104799590606
-0.012868733013432129
-0.0358973420464492
-0.0690505973934068
-0.010475598935095693
-0.03542322435724747
0.012959041118779489
0.006243107319561555
-0.012911714435623776
-0.062651153067353
-0.034894021515605875
-0.07112627653972849
-0.011125477417164027
0.011876853325992667
-0.0172061772168451
-0.012281909747627575
-0.05812002224352488
-0.010302221762553387
-0.009701312288543576
-0.0912680018862196
0.10677487828864866
0.1372432485042587
-0.018816030499585416
0.0215305133137549
-0.05386329548529176
0.039041462270466294
0.023443118853093785
-0.003568736044472269
0.00786442562769505
-0.010353412070126739
-0.000977224622405078
0.005799054990239707
0.043837178854432446
0.016066744988899893
0.004434985319560345
0.009114968216047351
0.012952724264834993
-0.005407608725942527
0.007973388397121266
0.015375554445717874
-0.057500674568446965
0.014172894991054395
-0.008279218985908363
0.003338379922170834
0.03277489940032595
0.015085322326298022
-0.009753391795775513
-0.05428170822205386
-0.06360795479569843
-0.07672477189141942
-0.013524749650481314
-0.01409010060378402
-0.01246800649752424
-0.013215897439140034
0.03314401637250658
0.06819106903345375
-0.030942710440398213
-0.013528187267510386
0.006023878936303202
0.034631760726706935
-0.01749351852772307
0.04520848231309906
0.07143723366106586
0.020282873833670386
-0.08964362078628543
-0.1057403754044894
0.08077981632640144
0.18946470490745076
-0.0006748502355212732
-0.05487692009348083
0.05939303035556477
0.07578984526055979
-0.08388918863977156
-0.01395299131908184
0.020505298624470918
-0.01905918843732111
-0.026560768515831286
-0.02199432069086352
-0.03234766217622898
0.018965413216223036
0.013037856799922837
0.02797165037607647
-0.020166405744060006
-0.04250809590362447
0.025983301118585506
0.022318356779331427
0.03615166800240574
-0.0025446265675068925
-0.04146665115060727
-0.00911923638217108
0.03455458518801505
-0.019099891077767425
0.02267320058730774
0.013680301698340076
-0.017888147666727253
0.012875397782501007
0.0060855579874900196
-0.010902325268424155
-0.026367791017863053
-0.0015146220356448954
0.033719534623108866
0.016507270358697725
0.023626392154813797
0.008073720298963753
-0.0670945257228894
0.04312519910606185
0.010328594953262979
-0.002433743355775833
0.007321354120703377
0.03325939497557969
-0.032213260410357554
0.001626791449424049
0.0017209475356823394
0.015595805215658926
-0.13362160000184653
-0.13574413424157913
0.049853267903240614
0.0048733830320957985
0.019398582482299524
-0.02066567614174908
0.04297083146526498
0.013571620082162764
-0.01312935199581282
0.01554667473908832
0.01186309288077867
-0.002467801033987773
-0.02447910323555727
-0.015633159354047292
0.03360717697741578
-0.008369101688154463
0.03006737159882713
-0.016055228611037333
-0.01685474730762429
-0.052272420258437945
0.01810107391297716
-0.17353220582265025
-0.10588306777571942
0.018700082154852315
0.02258967402042813
-2.1554544913462655e-06
0.0726965629026221
-0.01084153487318121
0.09433090830358672
0.12881096546241658
-0.03392081782595173
-0.007979983953512754
0.0075491383231726375
0.008651178041650522
-0.048432472661475344
0.038013944809994246
-0.05419160808422984
0.0737068178781907
0.15186201818506329
-0.018220488927252084
0.042924816283503586
0.004128051964817278
-0.056096661175314685
-0.04911141138937842
0.01067929033913677
0.03807470046636021
0.008808641162897377
-0.022662847832063855
-0.01701741972257179
-0.051334697703259616
-0.06357084692953457
-0.010474348625243612
0.0063735606367203435
-0.0889187240677584
0.06883809422864884
0.061793410990151044
-0.013796019536100703
0.03169478098839161
-0.039561936895829694
-0.035473943858513275
-0.03416476593454939
-0.04507807493478377
0.06016415321154062
0.13822731414962208
-0.02302886384839946
0.0130534867000844
0.02297852334237681
0.02030892757838224
-0.018943552651897726
0.012004340343336261
-0.01899404429279975
-0.026050419044293643
-0.05185623082882576
0.00841111332830551
0.01844975465081991
0.0004879881717991534
-0.010095349290801504
0.04439982648259115
0.05686803563346243
-0.04133844095647118
0.004959914339245528
0.017165995053655483
0.063453730150464
0.0021138113411635663
-0.0024300457520056782
0.030643873137606043
-0.03259754546962266
-0.002312957667420361
-0.04071532113734111
-0.07857321038156734
-0.04786875886963692
-0.016309522330307122
-0.025536301403235224
0.027118233843290224
-0.031059577562439336
-0.00629077642990561
0.15453181169275979
0.020176567276252375
-0.017091277163092517
-0.03319633845386874
-0.029581854596426184
-0.0073756575964321934
-0.025105661015516773
-0.0003742711672968754
-0.01471926783035423
0.02670669537107129
0.03754468413200796
-0.029943965198918576
-0.007796587596701256
0.005285990026072169
0.009515115527397993
-0.011140908583439286
-0.012732823091730152
-0.02224714425764084
-0.029911430078050853
-0.012229144591328036
0.018703716829953972
-0.00825986320973191
-0.015441782419786708
-0.03987695155890535
-0.012950743507299101
0.009888326806956449
-0.01895133192819107
0.05990175572328916
0.20450275055161612
-0.046956336584867704
-0.06921268700591406
0.009902168679708865
-0.09232518543446981
0.004202029540886015
-0.0033811191947418166
0.08438589036779545
0.01824277315154265
0.051916936728095144
0.019191476003913768
-0.014937679736302587
-0.014377545720779528
-0.01196506735861513
-0.03822121255638686
-0.1328487168701681
-0.03862443091903066
0.008084680649103747
0.024749295242692756
0.03026874221335558
0.032773016758160425
0.003844285613674955
-0.012853946523100642
-0.021588603307179478
0.017358329180511306
0.04978671896548719
-0.03725446392854555
0.0006397470388372197
0.011057830672765613
0.035644004097845294
0.021989829182829997
-0.04064455190500705
-0.07612647335352202
-0.007334038059175573
-0.06210671196532144
-0.014311312332260082
0.041797827598353376
-0.006961479795622238
-0.004155088879235197
