0
0.0863408642465859
0.0008143043842661277
-0.0013741394123889022
-0.01920892724729109
0.04772820266630634
-0.037987110872934694
-0.029947822978766074
-0.020597463478037648
0.04418522906098389
0.05485140044742855
-0.02808621717482286
-0.009815866316643721
-0.029864757330982303
-0.014383763451912904
-0.01733134184345723
-0.009298104306103328
-0.08521974840015512
-0.03055552114959767
0.0009422894938785633
0.009526423325928209
-0.02254928374856722
0.0008841140617816112
-0.011621668565654473
0.02776012317676589
-0.006338081423593481
-0.01889571197604434
0.044192894759077804
0.017566481323482576
-0.015958225302778715
0.0012124988271658525
0.01821738733851254
-0.0072895316190448025
0.015933155347511243
0.017292937837958294
0.011485239021098458
-0.0023393405159290045
-0.01511079315251136
-0.001963304057312704
0.005520658904689505
-0.18077647599548893
-0.017591814804174804
0.08930422279309591
0.006213463888503069
0.04014274473493442
-0.0055066288950793236
0.0036404098413223146
-0.01141503243699847
-0.00293144848317403
-0.016468380068144467
0.02501203576355274
-0.0018191816871813778
0.0009978220703947198
-0.012687095532421883
0.0035320561274604823
-0.006390781299927893
-0.015543372152699235
-0.0351114891193793
0.008610300873081237
0.042931001848290073
-0.02598569988216421
0.006607004974299135
0.010885132724040045
0.09149725668683714
0.045262799659309405
-0.23051683537393247
0.006796291932884766
-0.004897131157187919
0.007008229488006392
0.004883788033740774
-0.02727813968434676
-0.006582453071450928
0.05660906147976417
0.07524285532895103
0.03054315759685688
-0.034401570755685104
5.5345499923614275e-06
0.019049119573966142
0.01633826486489053
0.04172269201432948
0.03256926109455411
0.07215345359933953
0.04625794314685806
0.022928331278658915
-0.009273508983745645
-0.004011907929105686
-0.038743638949055574
-0.01712656491076066
0.023362195264689363
-0.1843131778198178
-0.05612112397201194
0.01712504708909193
0.001437357026104554
-0.011725217274026811
-0.006370224116916159
0.01835314379223354
-0.021118151209188283
-0.017200713576799403
0.0013148487531911704
-0.018346512195821472
-0.006184053762134513
-0.007613598307891133
0.028628350513385647
0.06262483915648237
-0.0521787177534087
0.005676827230751729
0.0560594833932981
0.005260589538489951
0.027912326819073074
0.029889263124887256
0.017413582567931716
-0.0003097257600713747
-0.027494280478302865
0.03189359768843986
0.012633820685268112
-0.026538951804032047
0.001643329496924996
-0.025518419260141686
-0.0022455602228303563
0.009182676582987217
0.006037471364483259
0.030063997830400743
-9.566440733149853e-05
-0.011213225949398246
0.037551731091289745
0.045929533527401464
-0.014521960216678825
-0.03181434503709234
-0.02569222001043264
-0.035484997250154506
0.03568573064316414
0.007259783556436272
-0.023570244451654884
0.0183380753410437
-0.005694747758168111
-0.026438299853656932
0.010695582743520034
-0.026306902668728906
-0.05360408214785604
-0.06989451154006296
0.055417469940106594
0.006731212515365411
0.015691556902080486
-0.007239415180268259
0.015732241728256387
-0.021188862760050272
0.04397178405348524
0.01551718084408239
0.041640122525846986
-0.06486709518981557
-0.1587087449963314
0.03523848414189639
-0.08970651906679769
-0.0053275262839378905
-0.016465020669107096
0.0166046084908251
-0.054158445700337954
0.018363620951013616
0.14286196928982492
0.05463658652532956
0.0630771000686499
0.03383446100351552
0.020734300873479876
-0.04315098689281968
-0.014078368963886713
0.029970119381564884
0.02506171049355134
0.023730547051624216
-0.02575839223121151
-0.02649620407818913
0.007264729214105548
-0.007214749253595243
0.01078059241759835
-0.006831003424256035
0.03816219362097753
0.009727735259217812
0.02647992538635866
-0.02075205359158383
-0.025718802896622216
-0.008064869203007028
-0.044196314169776325
0.011333685354689099
0.02502649028502404
0.0047083756807641385
-0.01154568991980358
-0.06957463995322488
-0.004637566541280555
-0.01182327087785502
0.02077887403958904
0.0032065558596205256
-0.021284089755352568
0.0001278675178662309
0.010554463455605623
0.04293865619904501
0.01326748182682122
-0.007124381719042181
0.004683479419549873
0.09145892712886572
0.014118080016749532
-0.03277785265942239
-0.000253197417176321
-0.024827105942166087
-0.029872283251602474
-0.02295758558173952
-0.02927730037830757
0.025362274741247165
0.03817306560454807
-0.057925635304718885
-0.08997718115553142
0.043341096163071184
-0.014115656554991496
-0.03782357188679993
-0.06152770016522303
-9.26159115014794e-06
-0.009642228381259586
0.032753580959618896
0.054159191071751475
0.04133882226063026
-0.013321634727616955
0.07362698707395346
-0.009761143372297483
-0.032326143269810086
0.046458697388296236
0.056289183364895384
-0.02043811972969706
-0.0010204886095289624
-0.020063980222753956
0.03246304175085735
-0.07839810624012232
-0.10140869052065055
0.02847880394662866
-0.008348624173988434
0.02983612780805824
-0.008326404244557536
0.0021543835385774853
0.01889399191157083
0.03701565960076187
0.07195426170044338
0.017646831543130657
0.047897432269713644
-0.03181817115690002
-0.02054850173148501
-0.03703663537628158
0.03824863924843887
0.018655309806759966
-0.05538951876291961
0.010100537857784583
0.002617214430934965
0.01609019341585768
-0.019961680003564547
0.02020791265941061
-0.035202071332510416
-0.04514744006176499
0.0270229415994332
-0.01630986930118307
-0.016157656821802417
0.03975613614981538
-0.0073811373948206626
-0.03805873752681486
0.012119115955732491
0.044085457376752055
-0.03569630289465852
-0.004045485032098682
0.00024238677692970856
0.0179770398604219
-0.029890398820188818
-0.07524667717775084
0.06856074694361755
-0.0008476542479066646
-0.01065857720909777
0.021132124806142003
-0.029072589091413095
0.017891404515155994
0.01756830539028668
0.01894699815062939
0.0013360833348967475
0.03171883444962803
-0.02350728272579729
0.03014177495078962
0.007119229032056955
-0.003127701986262308
-0.004574866672473554
-0.00923094707791063
-0.015483601753638783
-0.0064748073379726
0.01613909686789438
0.02360706652709797
0.004387578518995116
0.009553599908182905
-0.029027435747901273
-0.054290427421330875
0.026351208297021065
0.05999475235601646
0.005845173317216989
-0.017764600574387664
0.002821461275942413
0.010846397517699587
-0.016973906136494583
-0.010905006424081076
0.03875279995700052
0.031357571019330316
-0.0026408817239367294
-0.022418582438104878
-0.030935274486876232
-0.01546348443943311
0.022879294282610107
0.011895026031581856
-0.002268434914958244
-0.0020300682028956086
-0.030949445224278407
-0.01407580181332872
-0.05507495087147446
0.008889840905772956
-0.03107967882746649
0.02033089043988328
-0.011131184830423498
0.02913889872206113
0.002815519334246856
0.0005741127155806111
-0.011173586667117926
0.010070194113228369
-0.18610399987251808
-0.08871863702294049
0.015114663495071972
0.028385468429197116
0.0908935569857403
-0.06623036398583204
0.020919718109227346
0.0027787371334566566
0.014347610124005167
-0.036571837204772625
-0.007653188488061225
0.02589233600239492
0.04320939310245622
0.0016480356418116936
0.0005295877086207097
-0.0002473533077692979
-0.003114677352277091
-0.010541800974867921
0.11996085053924088
0.11186809624470875
-0.0607089526991567
0.010649194022069803
0.02759158388697531
0.032154941581888176
0.052967742422071855
0.005712924244001547
-0.01525944724648685
0.032790762147659656
0.03354447944763077
0.010685936176285129
-0.0048679666117093946
0.06172008910568738
0.10699065385021772
-0.046367266133146415
-0.01881646252020638
-0.053311586136810404
0.00503968037709823
0.047371021087312656
0.055985183878433445
-0.03060692960311504
-0.018619959124325618
-0.027244519568000336
-0.007746522690202817
-0.07663343797483248
-0.07842904303286254
0.027629096381981702
-0.002471172597900612
-0.2189149191580173
-0.07455570230329982
-0.04994365527230247
-0.0006493060633731252
-0.1050887471354402
-0.0012712271500026893
-0.004702551058306896
0.09844999387051576
0.04938081488608752
-0.027194357749882464
-0.012594527522591641
0.09711371236978107
0.05431042245482641
-0.04249963166075054
-0.04877375048597168
0.039682551558190636
0.04532672025976765
0.039069281932436035
-0.003880198897195064
-0.010007046115172044
0.020814519608394613
0.01779718736497147
0.006616849327514025
-0.01024745499817938
-0.04755621162276498
0.024925261981031354
-0.02650047284787158
-0.04334679956868265
0.0004221940246319934
-0.02181272610083182
-0.024855405900180892
-0.01254597167250711
0.05665194092693069
0.13694088475402832
-0.025834949696104694
-0.0017683142938460174
0.04718918321264733
-0.015312965675679826
0.03214205604863133
0.01077637508758194
-0.03950935595903827
0.0198876730465605
-0.055986678393027844
-0.00937979623025039
0.01298375666534183
-0.019419242903632707
0.017090182496200906
-0.01575098857262331
0.012434557758062284
0.022911424010354033
-0.01624782898433401
-0.011869094771771007
0.016866403928221425
0.0656532770116448
0.032934319902700605
-0.04832157591419595
-0.013258294582647415
-0.02745150670674296
0.005568187388064198
-0.02628028943728642
-0.023594121701473226
-0.016720590924717643
-0.01944029676333406
0.01594620004145527
0.04964308289170535
-0.08091572950198081
-0.019014189964641142
-0.00494864581726725
-0.019605850493367265
-0.004409688075506357
-0.009592688511525121
-0.017596914577827742
-0.004834577019327746
0.05303942043816288
-0.0016181631093023152
0.008700415815226894
0.024357799975973742
0.0028992334872650627
0.024116847215878603
0.16912388163605818
0.056771931788119546
-0.030751296403405414
0.022903270447246073
0.009788423064416794
0.029635475823291894
0.08169368561964291
-0.007073226600831593
0.03997225545713057
-0.03510614990519795
-0.03450050064273658
-0.0018786237551925479
-0.02448890370048199
-0.09866968428910253
0.005381289802076771
0.01175858152041106
-0.06655890623576888
-0.08814241332846688
0.035802573818799865
0.07190798510613018
0.004589476074453628
-0.04555880960527596
-0.0830743101870652
0.0034143844864183348
-0.056573417395608123
-0.09774485144718154
0.005504225078021785
0.05838779702112498
0.028635091376494573
-0.010479788179719956
0.010453400572422005
-0.02591799213214014
0.0019143711012727894
0.00011641973010374601
0.014328135426638135
-0.03495930774523697
0.01694577576951766
0.03243117382263614
-0.010869506427666402
0.01016277337662421
-0.009678365383097744
-0.044932491364708754
0.041405187886303894
-0.10593057359744218
0.019672021680339682
0.16891831075245087
8.617933687318923e-05
-0.015323277475338615
0.005428267663323406
0.01888316432995344
-0.005173316176214755
-0.01251727422429167
-0.0007609652467897872
-0.005616963211991788
-0.07477369528414195
0.005588480036776273
0.005752309513451907
0.011595057736321312
0.009822009473313695
0.021566186838198085
0.020502955342194592
0.05944344970362355
0.012731726007904417
0.008082824711813147
0.027991493297862973
-0.0006628455998560782
0.001965393474426711
0.018158649396532795
0.004311356515782309
0.0005330030966484545
-0.059141023485664426
-0.071613631115296
-0.002969348107922575
-0.016867930751816508
0.017505513916788226
0.053939675365364446
-0.012843789223384732
0.009574680463253318
0.0012147385296241325
0.00974227186494988
0.029636672790669234
0.0066554031120271105
0.006631178309496652
-0.023994863007747103
-0.01588847186633307
-0.007711450364105238
-0.03329139791605984
-0.014970943147891439
-0.028867152580793805
-0.019989561380223578
0.02101470906972853
0.01625695943950816
0.028704920123040736
0.017455394710631567
-0.011675943812719579
0.00317522714934069
0.01777842789679989
0.017377676464584248
-0.012234669285367008
-0.005132915212117231
-0.036711245457720816
-0.04435863801288588
0.02580902686725608
-0.03009690331256643
-0.042446269213441835
-0.0023877585099903865
-0.015624656284710776
-0.024613929700864144
-0.04868822470995418
-0.027923101312903674
0.004849767775702485
0.012995954095214177
-0.022399965690375397
-0.06026260891969263
-0.0725282068289887
0.020735505954669595
0.06395937090317388
-0.0034873519068121467
-0.0020843107147880255
0.14397265317283828
0.015011897789444506
0.05004213095129646
0.07109733769488902
-0.024616854630180717
0.017704422089553147
0.12120401580413569
8.290861606525865e-05
-0.03919018685525445
-0.04049052398714295
-0.005071445075088859
-0.015597344176723156
-0.0074034939026967235
-0.0029015245858852933
-0.020862184507136106
-0.0494661003800777
0.007032363277756991
0.0570213207249966
0.006091910353262912
-0.00021612129474300843
0.029395666888712563
0.026268283174728575
0.03464035287026793
0.046337422747011005
-0.01667833575502212
0.028439856278595296
-0.0035970373399881583
0.037457107565795796
-0.017203239153706435
-0.007636596013706809
-0.00900657440351364
-0.03552892497377864
-0.024850749239515194
-0.01638665364049603
0.057107382216837185
0.05857044265858839
-0.10037457595608223
0.004246518493529813
0.05576970717951528
-0.04488351764751202
-0.004869964369672303
0.012445770682669749
-0.03821548700914725
-0.01587388319129237
0.04072918741177098
0.033191217722252496
-0.03433666272823454
-0.004452123087292238
-0.07255938645586013
-0.04016643248728771
-0.05498371947400227
-0.04645787608374922
0.012360574648403205
0.03584882282114144
0.02175178049896578
0.0308069714104719
-0.04054738197325772
0.05059264428057059
0.014450847843025843
-0.03079519086637705
-0.02424780759009483
-0.027585812008642848
0.012048885046663836
-0.02706001653950975
0.09390147595540092
0.09862966302625316
0.00464591532179186
-0.05059210823979739
-0.1523372017950922
-0.0238432572259888
-0.0018623224468511063
-0.01061747912815769
-0.03424519646970901
0.09620916602401543
0.037800681122188685
0.017878900059125773
0.018632900072463647
0.010370148637577114
-0.043153623660768095
-0.019583833209461467
-0.0032706353701451385
0.005255075949340834
-0.019954938671322236
0.02928438759509311
0.01862950446957747
0.021256968405904093
-0.07607661122583614
-0.09831992781817699
0.031117887300527825
0.05150184597919079
0.04378841956203327
0.04062776014994773
0.10410315458311839
-0.024853950512742473
-0.16122912334244557
-0.002348744776167763
-0.013076208874626558
-0.06685530276388155
0.0004140263161538016
-0.0019368793037973096
0.020831532561112743
0.08147126602918912
0.021138673435088042
0.0001739220008668682
0.011910126235743492
0.05024677347507305
0.19909740223642197
-0.0018224038196510241
-0.019618868714313755
-0.00019556199207793035
0.007951527817990581
-0.013209756280067738
0.038645283352623516
-0.07316788703205958
-0.17690398922957243
-0.01515949702992006
-0.027712762460686564
-0.11040080989919775
0.04247307079295985
0.1130215076446906
-0.062284789961854735
0.028812080491985304
0.052685048903863656
0.006482953255071264
-0.092263531785597
-0.094771737244459
0.014106711246859653
0.00952604401424633
0.027223177239259346
-0.022570515433475664
0.02545335131615442
0.02497613357979912
-0.013012292073343324
-0.054376301740186386
0.0958757530716823
0.0850115724614199
0.003148802960569046
-0.023180387295936834
-0.003525155361791674
0.03620909228062891
0.0036633016967925792
0.06491414073057175
-0.013548683762712623
0.0032711173178933553
-0.014797827419692582
0.019051991686855126
-0.01570753676558912
0.0077249443474927335
-0.08813762421603863
0.030541893813689103
0.13435490010359574
-0.04130818078434152
0.00031716177082825875
0.018396469929394633
0.013458342187404247
-0.09852545323056691
0.023663522504948298
-0.030494722974727696
0.0006897476568806679
0.003316925620299189
-0.0024394570603214656
-0.006039241124388686
-0.012061644885513449
0.04406078328994958
-0.02247645900483966
-0.05750282177253889
0.002851630535567169
-0.016313507988688216
0.014613086393142278
-0.0032132357164855367
-0.016927777601206173
-0.09969871880789069
-0.06229168737505075
0.010857094946584786
0.12869130928345754
0.038478567344395934
-0.03735727281128845
-0.02165099610392208
-0.027806368655150543
-0.00032429695869572417
0.017450292589641557
0.025659631432126892
-0.04898376832719576
0.003371855587983978
0.05154257574978797
0.01387266921990016
-0.01707922582584085
-0.0011587714237321287
0.030084434275129846
0.01045040024069868
-0.020904454236032897
-0.061796174082588945
-0.010307092349905326
0.045665941314271534
-0.00855055834926619
0.09791460860561585
0.04533672262127233
0.03981588640326649
0.03584887992721795
-0.010135139397592129
-0.02694508418374477
-0.02426860973498837
-0.019357995340898337
0.025176062026519147
-0.01712831800586238
-0.0015946702152113213
-0.012665167606169833
-0.023781250737878457
-0.032595955656364306
-0.004626314215041206
-0.06977611332015693
-0.058188954207367694
-0.02325730664452017
-0.020919520589941464
-0.008329769121352044
-0.034882370564526394
0.13274213377455876
0.12875749174017367
0.0061200717203677025
0.0035200849238246515
-0.001703195174980073
-0.004586804497572139
-0.05358664297772061
0.011482097960896538
0.015165263246737372
-0.007485104560299636
0.18806685035294263
0.0430630770626365
-0.273934589449765
-0.023655568428703866
-0.023434445532396986
-0.015649560809887983
-0.023015940935355098
0.005948779062464524
-0.000652412145257761
0.027044763331387084
-0.06254323009286565
-0.019655957745172453
-0.0195925939653618
0.05114357698110503
0.05054230757753019
-0.0008507212377586183
0.12836632982012847
0.03267049563652395
-0.0048909257421569634
-0.013207764617130042
0.01725268146729211
-0.03348440931846035
-0.025510662847658835
0.05339890850387672
0.02801884408804063
-0.06369286186017765
-0.06688627935441219
0.026839461226479212
0.02978489696487345
0.061816014343047704
0.027552420682083384
-0.026254511181041197
0.042686501172721616
0.026525183974089553
0.050760192430090084
-0.03066730314070743
-0.005731407430034564
-0.047656044709810004
-0.027023879707567162
-0.005429819565225527
-0.024078748859251004
-0.009895777821832952
-0.03067303672766238
-0.03211039640413511
0.04221918037341643
0.08882262517112254
-0.15036581725395284
-0.08922122587905079
0.05858261413294956
0.0038139845365809844
0.0028330517352696248
-0.00022989807596409507
0.018672365241797363
-0.0016987889849219046
0.043720072961876084
-0.06870987885790326
-0.09796992685036918
0.06124315830126359
0.02325365487823742
0.01858103616899462
-0.0057184124770421315
0.0021987016264940007
-0.02455407584867031
0.05641648471653493
0.01399436560399327
-0.01508101848046898
-0.04676543650010415
-0.04699118173581469
-0.013696436043527615
0.06292646904245623
0.025448315946432314
0.010275524693825954
-0.011941754281465652
-0.00548226031528619
-0.022217820374876
0.05136530018284789
0.03285154976938277
0.02414073412987629
0.006878948152976634
0.013273937438523255
0.045085440650535005
0.01702727376065437
-0.020686665618453202
-0.01597285929066991
-0.04637074761037346
-0.02243091376499942
-0.0021973166032203334
0.003409256252292734
-0.033277599840049174
-0.037590768731592984
-0.010248101934558869
-0.020391738763990124
-0.010046323938164795
0.01931281242747194
-0.013546684368316096
0.02046220285362736
0.004925698429873756
0.002864670529161512
0.003201926253455657
-0.044235802944848454
-0.030222349682442876
0.052664497419428545
0.07977071256401373
-0.01778835452339994
-0.031535856528838904
0.005399229735154073
-0.00024013519678454872
-0.013507432026755476
-0.008677297073882094
-0.003487770278482913
-0.01826072340693831
-0.00880057532092661
0.03532851654534073
0.049628139807062994
0.019994430833988427
-0.025283852101896372
-0.02750055560510199
-0.007631645401065026
-0.01686315736934388
-0.030098418468318483
0.012662819710140084
0.0009082653741428714
0.03546893220562658
0.04240668238009709
-0.002629244043330167
-0.04066936115448213
-0.017784469309277698
0.04274281481130707
0.018202011766891717
-0.005909160590088512
-0.012472942896420796
-0.008216270724267493
0.02257773560556369
0.05070729688434433
0.014328963259463088
0.07806349540564954
0.10105067262502097
-0.016651178756383767
-0.04926646223636516
0.02285162234433853
0.004595069072555198
-0.036212513755881505
-0.00986257547438838
-0.04546047744983312
-0.10705190959508605
0.023604886163926857
-0.015089975461688448
-0.004985734276440033
-0.0333872124679455
-0.001365417642402917
0.011816393146348343
-0.016948644529566008
0.0035432214376713246
0.02405328262350724
-0.003805378670325952
-0.0240141198106769
-0.01323639733730104
-0.0212696924311959
0.020175632515305818
-0.013731743358089982
-0.028621221527219718
0.11905307854517697
0.11335071563108874
-0.01421164968593961
-0.03955239112810268
-0.04424583693760937
-0.03610692950656824
-0.018589681621174962
0.013347598475137282
-0.0060694954346760715
0.026198671187847904
0.017494528248634456
-0.016297221333025125
0.00405880132432037
-0.02363992101459111
-0.025258178505083453
0.014301890676197401
0.002024320520564452
0.013208463025638134
0.009547779085611167
-0.08299248033812305
-0.07800804171952128
-0.011284711658306223
-0.01728823766184028
0.015321452508587609
-0.029710630446433035
-0.039166175746837874
0.023028336962371766
0.16864918168426377
0.01868665466822223
-0.047912369729037854
0.028614884889394
0.012909243596494804
-0.009113423467245103
0.004722947715931011
-0.006272657200281667
-0.018463542384879426
-0.011043711465078524
0.03832209284936985
0.05976408024320223
0.03179120690378819
0.010673097133025415
-0.02886585379738503
-0.0239348527769931
0.02314542778605137
0.11763584914446773
0.011841237782897949
-0.04385136730898528
0.045497274330130386
0.030687115783114394
-0.0004920218447549586
0.004281849217503907
0.006573423570819943
-0.044769848042240316
-0.08472282651576292
0.005534339493406471
0.002869836230935073
-0.010533352576969373
-0.005591461594061627
0.011025529574654077
0.008762930317315995
0.002570890384608063
0.006150521643241016
-0.1182126806989692
-0.04140328045285727
-0.03334842971875608
0.04550440854326964
0.0828803343293594
-0.08521146826928641
-0.021256152137750818
0.0038245705446935375
0.012147977223167248
-0.027763865553835466
-0.0033331500623557117
0.004920884043487761
0.03622767268234472
-0.058658083990742634
-0.016313036285673675
-0.020237386918390003
-0.0010289794007808284
0.023412511184719775
0.10918827277639308
0.016664171038809426
0.028573447111003375
0.06281919795320817
-0.036264173064140946
-0.0009902440649461246
-0.036390667001361135
-0.10348977850104267
-0.01475300821634989
0.009933637155083098
-0.022243102351670263
-0.002200434798531632
-0.05223110259433179
0.01705975065429351
0.07879905082403757
0.05152153036699321
-0.00834527206624733
0.0014132264590649528
0.020996973306548837
-0.023068889997452904
0.001349098882586671
-0.03216128555452455
-0.025150405079872
0.022177534109672267
0.010983391395218431
-0.02486338560692736
-0.03729754487020979
0.012028167066038303
0.004302322542289627
0.019473390455130073
0.015890116352980464
0.03096737513636479
0.008760402937001747
0.037663907482523185
-0.012146309442050654
0.04251347201641565
0.08005820023956718
-0.009347506284371438
0.03122621893490506
0.0020930967088411546
-0.0730472988215652
0.009744986961271677
-0.00023147045102739732
0.01109889635924153
-0.0008336014200098135
-0.022088931783542848
0.09207412872594775
0.02571538635475836
-0.14286067353073195
-0.13028506045495492
0.016897750879473254
-0.008348898936826025
-0.012110118600955184
0.0005931755389990962
0.014882377911643615
-0.017597754819363123
0.03551832313803018
-0.021472884029154465
-0.03993702923386707
0.03410197661049527
0.04081069570305318
-0.028880560031266475
-0.03827160468222583
-0.011395883851350628
0.011140424115208292
0.007051920448457113
0.005415405739046508
-0.009532285694893316
-0.030811543178286948
-0.01423474304484617
-0.004653638117543889
0.00761061858915198
-0.001080113600563728
0.04837998277616124
0.00030356402633737725
0.006545705018561786
0.07412547165000896
-0.02227806371605979
-0.016333109298406992
0.06654827607605147
0.029705976417205696
-0.039547553611377684
0.04110180728285818
-0.0033059043855541833
0.03838131168677868
0.005096923849080876
-0.057436342966745636
-0.014635552551914755
-0.013243747846928325
-0.006618986034214312
-0.007532156834056614
0.01254434014694896
0.042076087428710246
-0.018330119486483065
-0.02078068252651528
0.006531548690034045
0.06391935310383827
-0.05590295143741326
-0.02047485763420012
0.007139895318686596
-0.004007218168635778
-0.010720057771802224
-0.014955682605283543
0.0012025334252567983
0.07743795348231576
0.002947690220254268
-0.019799664229030022
-0.044089343147743904
-0.014674721038225645
-0.03450635970574691
-0.016398220693766556
-0.022711958722962937
-0.014217770500036012
0.0062686650157105965
0.0037056546844990578
0.006360310960789504
0.02774632637767913
0.011166556154194372
0.034305638019775264
0.05259906673116908
0.01958333467335374
-0.0203553258714578
-0.011691445528994067
0.05122455923523682
0.029551604801992294
-0.0002178088475210711
0.013163772560809342
-0.009599251394311661
-0.03706571536975657
0.013868926914297332
0.01941395586075318
-0.03003402621408478
0.014459330643552506
-0.0009891765485373512
0.00647557681836467
0.008848625352076521
0.031215594127976826
0.007968101715959536
0.015536998320573982
-0.018094263926597996
0.02862709661858305
-0.03272279134175579
-0.09765229181636716
-0.016281263693797548
0.06614361758871541
0.03791833643243293
-0.08478649742371064
-0.1906087229727955
0.030196027919549943
-0.03342081184578119
0.0017906482190203554
-0.024209362131062912
-0.006412533937171395
-0.02208948280452113
-0.02829840398074284
0.040209477681014745
0.014596102305388488
0.009999002976343263
-0.02457275456520597
0.019206868516258736
-0.0024485307862058773
-0.013753486226703445
0.008840678596213186
-0.049823968377029536
0.14156031721858126
0.04990391236321825
-0.03721854402644082
0.03782620541179742
0.0010408391931254388
0.03882384760031317
0.04227162393789511
0.005066631126364139
-0.030868698858149714
-0.028416776099907216
-0.0002263554411440474
0.008874713963510392
-0.01464106712739869
-0.03146965671199809
0.05173413497918763
0.06599915539668941
-0.037987102173657285
-0.055074351065344744
-0.006465703455222226
-0.004514312443625868
-0.038475230524664304
-0.014561391446893735
0.0156682712174372
0.042106356993211455
-0.012292725015578689
0.06641218553121009
0.02252458886461738
-0.035789471394134076
-0.012227263377645473
-0.014205874682243437
0.011550267224549252
-0.02466722054351924
-0.0011132323920258614
0.025926728175026326
-0.010422366397957137
0.01001850813768544
0.014148580440031713
-0.0029860056510854142
-0.005220555170955951
0.0026500902752769253
-0.004491161067126711
-0.017054582490520064
-0.004269612980379167
-0.02100041957091298
-0.015070956116382046
6.831334253127554e-05
0.07631485431033065
0.008783082936816478
-0.010156349704141619
-0.008552842965899497
0.0009350350445838465
-0.005492639070162803
0.03343338839723324
0.06093327858910358
0.0004720645189083129
-0.01018822139265386
0.008271703536074116
0.008261663790082632
-0.015439726564301707
-0.0508355290435114
0.0014853370529517248
0.023097216613879205
0.0012540777782595357
-0.012248946178112695
-0.05390121441875936
-0.037242842435813564
0.03964688275566041
0.016592760952870135
0.005166050139891894
-0.010185882279265883
0.0241906409469451
0.005426368112139576
0.022409587181401815
-0.08289082379636399
-0.02941215785148467
0.07421952402826247
0.012003701476551054
-0.019208768405937552
-0.0193489699244949
-0.010859455135465212
0.039378609540619475
-0.09706028819135097
-0.07036876418086782
-0.013592844302806655
-0.022932262704801178
0.046421963125502695
0.015207897192105599
0.007568430397424542
-0.03212636631610011
0.0004046402131998764
-0.028897798634544603
0.14856713959083123
0.08917679214319009
0.010457355146960555
0.01705445899017096
-0.009087254481013302
0.03278076686296551
-0.024406115848857074
0.006059548013653892
-0.0867130476099233
-0.03534686463237575
-0.14893564770026332
0.05195518888301145
0.0885566979204127
-0.026483638225528253
0.026895876499190837
0.004286226354342712
-0.02582482907611833
-0.016298537969305207
-0.010774206456425968
-0.0029427820990423673
0.005974534738999772
-0.013128457294973736
-0.01407111893519872
0.034157942987209894
0.008438991506929899
-0.031008160419293013
-0.0030923367090157643
0.012771895627389231
0.033282217410125894
-0.00787871288483257
-0.0235713995585444
-0.021887127480421178
-0.01623855357393705
-0.008597317138541448
-0.03842852301385961
0.03285187289673774
-0.005155044553612655
0.028226651976727298
0.03196065723857116
-0.003682214469449122
0.07039233556619458
0.01732058097870696
0.044292787361987336
0.015041700471527449
-0.008697889703414605
0.010472813203428463
0.07813433857083091
0.016635908207981276
0.0730428942729099
0.02258315758505061
-0.014016828528646696
-0.004539383853137274
-0.04286657692000517
-0.011188092258507878
0.049498437122963396
-0.13112260706391832
-0.09788256603208068
0.043270806379308836
-0.023825513021649432
-0.009625620735588964
0.0006821794418113308
0.03771605502046831
0.04395580107559782
0.05948263829588026
-0.04464223087955466
0.03311186961171661
0.017531977761491485
-0.00013227088174218863
0.0004423087102037174
0.04545118721995765
-0.21546754205443536
-0.17590665425663934
0.07079469848459784
-0.04165811649258733
0.012957660553689203
-0.01991560239177975
-0.009550465564317828
-0.021486391771875234
0.06529017569041921
0.022501817795833663
-0.005812581984177553
-0.05750755807692006
0.023404522128699947
0.012314083077981123
-0.00377527062613014
0.04305540279112218
0.06358891219459355
-0.03515415218549967
0.15975504547886227
0.0011902983509562283
-0.23526299811114587
-0.0458527131268467
0.016145161667744587
0.037424725034369236
0.036754493984420177
0.009006519038394651
-0.04049515465612329
-0.033546910554880016
0.007935540430146777
-0.03127611495721172
0.03370949737611408
0.032692836471667444
0.03720736291717809
0.059614866415220714
-0.010712187591118555
-0.022995271147233473
-0.0018101276110903644
0.035429001925367395
0.001040240285497341
-0.036760502524747767
0.014136663369648415
0.008402725488421811
0.049708330097494285
0.10359007675696898
-0.0393949816267784
-0.02861698296758854
0.04966778581683659
-0.031667510949029073
-0.03166293620489009
0.010115609770064551
-0.01692461635068713
0.005874752404657905
-0.018182604552113072
-0.021759689515713658
-0.01324482651443937
-0.024332932564077706
-0.04706383701364553
-0.00800130121764552
0.002595636195371621
0.049488456498947
0.03701341519511183
0.0006237307962176068
0.011944437954997155
-0.019049268640180885
-0.00601171401499451
-0.034749112463541475
0.17002404769602117
-0.03466288984984854
-0.07576533328612202
0.02150616772027668
-0.013455672116925494
0.0022561621035944533
-0.00603732219281418
-0.011134273514646964
0.003390541737803687
-0.017328984709082458
-0.0593052889580214
-0.015927387361882244
-0.027552041203138696
0.012493664852226347
-0.056763037279474036
0.04969134849818144
0.17640290854155732
0.06884718941363625
-0.008702102142191949
0.03249871889670102
-0.032925955072161804
-0.06343827948546368
-0.03439420207566207
-0.002991692468545801
-0.010830512778914536
3.897843959480901e-05
-0.03491941088746574
-0.029374874658433907
-0.05629416857408746
-0.02053780316057117
0.02117791577628584
-0.045595275323467195
-0.016383138065630222
-0.008702141988409165
-0.01517348196420695
-0.007200256309908295
0.026646907980352533
0.08395735236383091
0.01118233053821702
-0.019786563007504265
0.02718967774943056
0.049115493849121214
0.04882632973728896
-0.032962938743143065
-0.023517991302092044
-0.014158216207447717
0.02470968426125227
-0.019599115597464536
0.0912567145299442
0.025333584208497524
-0.0429831879002556
0.00449836225198154
-0.02476442334499807
0.011142848935475614
-0.014100710886701687
0.01781990919217915
-0.025060204440510065
-0.04898075382087621
0.053650220187786465
-0.005743445687669367
-0.002057844141077965
-0.03126643140218781
0.04502072383805737
0.016429699660773397
-0.011075128797189878
0.01818422872077586
0.020308155231940718
-0.011694631570688284
0.002227663873154425
0.05427426323440873
0.003822310353132029
0.02419396308136863
0.014541898932303643
-0.011269036200919758
0.03201885614493073
0.02477062680335019
-0.03738241885910574
