0
-0.016332196016241644
-0.09536268835574727
-0.002546518145562249
-0.02996525765244297
-0.0053258809860627036
-0.018248920926086168
-0.0032335374575534525
-0.023238345381984805
0.006046490689461044
0.00765528285985052
0.16186868466639007
0.06518229227601001
-0.020893196525674906
0.02099620671204134
-0.022725350231062844
0.09425166079347405
0.10612877017485745
-0.029657557766881185
0.00430446462245042
0.00030157801813061224
-0.03236594603887725
-0.065051772173975
-0.012074204598606647
0.010366802970979028
-0.021016374692228234
0.013302983624114147
-0.0006462856568411759
0.02096356095016463
0.07732718201250469
-0.027859610718943426
0.020860459912073456
-0.03925643295632018
0.043290126704333035
0.02356080767023241
-0.04301406035809147
-0.013333533039432603
-0.026562940892450586
-0.007080919693478615
0.014282650469140947
-0.014864308748661959
-0.0075403756512599516
-0.03575787249538309
-0.012437740525245364
0.004724686806481364
0.011009808692893776
0.0020207607737195237
-0.01006461664621634
-0.03512172609041322
0.005260393796521248
0.04465591413035682
0.0030320408748334294
-0.04714995529776618
0.007272869799901875
0.010895895440287521
-0.014528351513174489
0.016986106367104545
-0.024927031621529674
0.00713749942040772
-0.05912721417868175
-0.002248432606680583
0.03611558009600653
0.014128998886322219
-0.012164605299444367
0.0033243045147206005
-0.011690848835633347
0.018884760921646735
-0.03709895811445674
-0.0298547479650163
0.02003517142851066
-0.003452266220073885
-0.022467520579705746
0.09312559703033547
0.06084302774366969
-0.033549708175737436
0.04253675779075063
0.0008035019900908317
-0.021446267647987044
0.019035158725298124
0.08360736937638344
0.0015508957348311751
-0.0014447628293443534
-0.009863991551497583
-0.001637941990948873
-0.0031486361943616203
0.01840658919973491
0.01799370999436369
-0.004252556296090582
0.01886773590589663
-0.03485910729790115
0.023712335304270235
-0.020921245384919674
-0.11393300557302015
-0.02931677682984647
0.020317261601234985
-0.042727091355989406
-0.09437108916885631
0.010775835655147932
-0.012902663343409174
0.04153996125257243
0.005639963946835074
0.04769910724409626
0.03671763847219231
-0.016153829045514344
0.020153879169319187
-0.015296141836430422
-0.013914088828925484
0.0069223124062923755
0.08287810670807692
-0.027607062018447336
-0.07947945067487862
-0.009742588299869471
-0.026584879491807215
-0.007444397025189395
-0.005233162582118959
-0.006028749515030767
-0.008531703375358309
-0.006353405618390998
-0.012279052332443302
-0.059481049863997194
-0.020366297657165404
0.00589574873728352
0.0039500546661918375
-0.03373318130038099
0.007411031424376876
0.04143323617499549
0.03629664241601246
0.011578494512342732
-0.04148425283158925
0.004917756052174898
0.0004685180160084678
0.1158930590845798
0.08050118476141546
0.03592043257209204
-0.054149340284797454
0.0015626800781909141
0.024359978007202382
0.008647121915889169
0.013317127015912967
-0.012400117010901223
-0.007294628789273032
0.01903898606191333
0.002574553283398378
-0.036721322792770475
-0.08534438204144713
0.027514371341773838
-0.018667635142279614
-0.023871315331541125
0.011166239212742781
0.04838622800735965
0.02406070767615278
0.04066823599317716
0.003706965461816919
0.004124060462210506
-0.002216777241730872
0.015119232319423411
0.0014012273961066777
-0.00877967909303791
0.0011703647807115875
0.02506605939567908
0.058971210443724636
-0.03281441358420977
0.01540466871045333
-0.006714381566763133
0.006968960180618652
-0.01609504115864408
-0.006127134947869595
-0.019690633716159606
-0.04022708968542686
-0.0012983166697166705
-0.0022319816127091448
-0.002520163101714517
0.031049811514722366
-0.07586956688296892
-0.060010238594661376
0.014720760065123099
-0.030101763204503196
0.018712356627875848
-0.006011629920498754
-0.034789788320344364
-0.00851309926600272
-0.005575922615033589
-0.026130328099729105
0.01854999301340306
-0.02677129533765566
-0.007123247329771842
-0.021779964071557318
-0.0020372167160434083
0.02906436127969377
0.008533627214753065
-0.0028151192189235347
0.04990028012359552
0.10215438523549748
0.010435404964720283
-0.031171193439472916
-0.02347957994014414
0.07085583143593192
-0.002443566691456209
0.0053241391939079855
-0.04250654378580417
-0.053004505964842005
0.005434700436283609
-0.009518973686092405
0.019408967540774615
0.008644537087748842
0.00682157896575043
0.011419564258159666
-0.027311257201158637
-0.0008646385248235792
-0.04056572318506559
-0.011608104071912446
0.15075410923085222
0.01265259183494007
-0.030758531666879557
-0.0014462718448018121
-0.013295297995959405
-0.012202334266920105
0.02420700593552262
-0.015415812340512078
0.05622566642076033
0.02859404812999515
-0.013511981448631425
-0.00982383963576838
0.02115482257884329
-0.056963875959734525
-0.0362185283565208
0.0007323487981275515
0.029698330221521477
-0.013859462732586467
-0.014290300625744677
0.009677916677278561
-0.00841104252914837
-0.0010154102915183186
-0.0045423321566182475
-0.010665432944039046
0.0246718423895315
-0.012178306896621117
-0.0018255364367392426
-0.0003316962972383821
0.027691303938381436
-0.0535410284577347
-0.05985478519240435
0.0007434919695545126
0.032172855360660876
-0.007903514272218611
-0.017341206177815437
-0.014698778235869738
-0.013033731625273541
0.02242352832795359
0.05473993771087061
-0.05581980697879135
-0.05501865428434817
0.018957491223828015
0.0008035004612084673
0.010769764584341212
0.018246914968500814
0.008991748699599919
0.04625286240234422
0.018075933466838688
0.0035534443434256735
0.009413390223108966
0.026326588913246168
-0.027636632501648117
-0.015561745252429877
0.021291172029366666
0.03502743886050161
-0.004331625338054088
0.0060369333496163875
-0.018825506723542967
0.002159014929807669
0.01161961735525554
0.020835641884635908
-0.007728698708378691
-0.027930003757740195
0.008581328861333781
0.02739340068879854
-0.025287837042831798
0.005742780249751171
0.029556285317695125
0.013280875721803743
0.020832087478040474
-0.002350694103992439
-0.032890724307633144
0.048356323649923
0.03192462792414631
0.013708643509484099
0.007460200522425061
0.03091354846987237
-0.07270984326126777
-0.19381367371564828
0.04958405157075946
-0.05728236624621163
-0.05485208895103073
0.041493939872058606
0.0038549384769993337
0.012258276735822896
0.028288300032828416
0.017834115154801898
0.01998065526313683
0.013340624247534965
0.012170523133381371
0.03405148661926532
-0.12034956415286932
-0.03514274147352716
-0.019269994560936036
-0.021083089484698832
0.031103162512138086
0.016264454471961315
0.03769806684360871
0.0016919320105845666
0.003071170481016713
-0.01472779866020703
0.007711591497279546
-0.004649893829238308
0.006696496725627399
-0.026737131678775606
-0.00515455826029317
-0.044384690315537344
0.02891100604163774
0.036163942085652094
0.04483167502065037
0.019727609674837287
-0.004739012607115274
0.002838375863799049
0.03372095768437249
0.02080623603803175
0.0013041289142755287
0.004403312053129925
0.04279985459738132
-0.16093780066058386
-0.10398781276396969
0.029202408928951547
-0.04563591012526936
-0.01106490083141993
0.004058878871794919
0.01989704520685501
-0.01144068678602463
-0.02127072362468188
0.06405367862319385
0.07726042903111521
-0.039475819774928166
0.017618077969793276
-0.0004385525677217993
0.007475693731137937
0.05127160386727019
0.05066307577278275
0.0307200667413016
0.04831492295158955
-0.013610995241649678
0.0012447054089185878
-0.051966930592277326
-0.01580278152682959
-0.024854493020328737
0.013306032697730352
-0.03310867315623291
-0.010398536224088999
0.022065317812722942
-0.02660909543493886
0.007407108329224457
0.06048043209274238
0.04103253570424557
-0.009746839691771215
-0.045070361744118985
-0.05656798753150539
0.006486893486977571
0.0487718783323455
-0.00037389164555919654
-0.0037237259619226836
0.047957608134712754
0.0560279757363774
-0.0457176475493979
-0.019891788782452045
-0.04118372131048623
-0.01632889742516032
-0.03964084711727803
-0.02242820365133407
0.004608929447193945
0.05778792082841974
0.007011650289661658
0.014088056816095755
-0.0075552782457142574
-0.0854872214570179
-0.021305441528952553
0.0472199541280964
-0.013761631541401956
0.11030645483848359
0.07975611562075788
-0.07057958647838988
-0.13335343023917778
-0.014156864140546475
0.050033501258641436
0.019379764683764504
-0.04665546902336026
0.009185088030161607
0.06655119421235849
0.038874784460538485
-0.019579358776667725
0.024240173556461454
-0.01966968293926789
0.04921780554678096
0.019988199100362716
0.04934779286125083
-0.15244928330374158
-0.08617015342365207
0.10305749375896758
-0.012359533708342979
-0.04106064131178526
0.023473233756175674
0.03270503532538456
0.0014126020302327464
0.027251138337284063
-0.034970577968905625
0.03302581946430607
0.004152338963837926
0.12354549678208103
0.007527771658573501
0.02317831134464039
0.031018854800546523
0.0016688043837115786
-0.11759421543183865
-0.15989151343627414
0.014578909556791402
-0.00567729432332555
0.031230656193814578
0.01850338921959973
0.012929863012207199
-0.005273479950851487
-0.03274986631760056
0.04902727668068124
-0.026409076389440192
-0.04724425273977245
-0.009012133957012001
0.01972538827296612
-0.03048326984320922
-0.030301666440819736
-0.02118605353577906
-0.08770576061558996
-0.027110311601908226
0.017919616042718058
0.045374809644088444
0.027364310954186795
-0.008446372650504316
0.021521621097828087
-0.01735977153296908
0.014429585608227467
0.03310725593366986
-0.0032449725008440026
0.0184949555656044
-0.010773623657856215
-0.012139042674144066
0.0013444235424138079
0.09134892928544909
0.025247921616140003
-0.0029394839336080647
0.013354377259752215
-0.028697967417167486
-0.028838354296351485
-6.657015521914074e-05
-0.00022301954224336246
-0.003950295936931991
-0.026266362838913516
-0.009044796757113683
0.008776778093087906
0.045796325325840236
0.07021586559184358
-0.06400905747383245
-0.06718964824696999
0.031936349772757756
-0.07051764925134414
-0.002414879783180798
0.035057657721345004
0.014720389238397918
0.03651897172319609
-0.0006516876267737105
0.004977300843397454
0.023439533056521925
-0.009315143594231608
-0.00779419530300186
-0.0166873798364197
0.009222867273486689
-0.018337588720533718
0.0013502861990903033
-0.041359645058987544
0.021101462672415076
-0.023712024031171272
-0.007017178162205414
0.019741336502557535
0.09566347545896209
0.006538887728561814
0.026291524624253198
-0.08363934195458898
0.07190452702462816
0.059777195002420194
-0.04672598005876304
-0.007271821819043816
-0.019082980787594288
0.021593421829413064
-0.034265082819397
0.004798431793524852
0.03764035692705583
0.04494112750213425
-0.03240605051266585
0.007371049254891335
0.035889074057023
-0.03012735519879698
0.003437141833268101
-0.03076053408540045
-0.01945708822118691
0.018408661854983854
-0.01086789603881358
-0.008319730498944742
0.007461186875823077
-0.033318508211923004
0.031012916602128803
0.01940035115551172
-0.08096495327040462
0.019370821903197114
0.0007936679269660214
-0.0007518344550293113
0.012783933672739613
0.0014941069768224942
-0.01640103235276065
-0.025514313584698595
-0.010258046177394496
-0.030953333660117707
0.040514946481802254
0.0024206616589883103
-0.03744348952325041
0.02027962632008275
0.033395676403654845
-0.006925853253481365
0.003521819920926638
0.09358919917184753
-0.004417817540782156
-0.050524568589784054
-0.005247996980880695
-0.002367087457127128
0.004231026305319551
0.013831310601153406
-0.041538071117472215
0.031261343361484395
0.010605506820481718
0.03684815202076225
0.06045850217323368
0.024668403277232583
0.04479895221688415
-0.09481427588645981
-0.22061389367253706
0.008258056299172985
-0.01626467629936583
0.034943990927341705
-0.03241562860901938
-0.09480161654016395
-0.013296637605817584
-0.025654582849571124
-0.006682811524356782
-0.013386450118954006
0.029775896000364982
0.012313966349967153
0.03594514905409755
0.017203089662691688
0.012872214175817869
0.009110904444142823
-0.0011080518384611751
0.022567598431059634
0.0702075410717351
-0.0026083874383767583
-0.005438247917650642
-0.017518163805543524
0.01799066777405362
-0.0023785118294063455
-0.002922299189390401
0.05037897401460724
-0.011963766636887639
-0.010068397572141825
-0.00875295381912022
0.04813013071445486
0.029585919439421876
-0.004069701198242143
-0.0037442658970066644
0.04833061997963184
-0.007901379419101198
0.00567162509692616
0.010973575035307074
-0.015522912683661825
0.006501943217572078
0.017907283149712492
0.06657533724825047
0.0056813596843980595
-0.0064376193856005605
0.06650862346032707
0.02172706554061689
0.015229413344050246
-0.021669443557278227
0.02752464871351896
-0.15746780979104144
-0.12507660903818113
0.03225443627281602
0.002640028644212734
0.009405393912471601
-0.06704860748142229
0.015177670718304268
-0.02715713060441172
0.019695295928144865
0.028070735453459717
-0.02938328574417143
0.004555802273143752
0.06705478030750771
-0.016525232123240613
0.00892726270859897
-0.059545939568240405
-0.028498035827794723
0.015030418846729173
0.013003358326335698
-0.009931842590316976
0.022259261837388133
-0.015892411741973193
-0.023098474036249837
-0.025675073282795904
-0.011358337036215072
-0.012639238194503027
-0.00031215282501924146
0.013619062548899686
-0.005687343492343636
-0.004111032798193167
0.09099096068718716
0.021163645181206638
0.010313257386105702
0.00805130377026386
-0.07218474881849476
-0.04297215050967435
0.012559723548918182
0.02976115177041824
0.049356848784463524
-0.049456780340529624
0.009278138676651598
-0.039362719920583204
-0.025007399139165522
0.006483984589942786
-0.00015382576279190154
-0.00046474757850362245
-0.004143268035367902
-0.00734134961911884
0.020125776942864
0.06877300695507256
0.02108565199051271
-0.031221985785378943
-0.02358945949086042
-0.05073052511664876
0.11009531703826411
0.0987913343032058
-0.013461330484915964
-0.008399542710149097
-0.013154407132598214
0.014053746467505181
-0.022476570121670147
-0.03514861910589765
0.05631376926339879
-0.0739337307239298
-0.048949259683750426
0.035654926362805074
-0.004987752804715216
0.00549895973437077
-0.03157790386774133
0.0407035421675599
0.033554628371233214
0.04177917034371466
-0.0037064050121308405
-0.021296958416674384
0.007415512705509471
-0.024606140810249828
-0.013650884862556832
0.008725680450408361
-0.02335002845905487
-0.014042232754819573
-0.006420911751821644
-0.007287572739071096
-0.026505678729587468
-0.029671861998037233
0.01078481207460116
0.050503171342074785
-0.00028282373211977856
0.00011314800688406456
0.02331020182632262
0.005787691089633195
-0.022548424163727904
-0.028492967351953377
0.04510465068529281
-0.00563610741922415
-0.024204367155883994
0.0015147676166155635
-0.021459563839239755
-0.010685021959085186
-0.001445972092899445
0.006905273897058484
-0.01620868528244076
-0.017744883212362186
0.010669884107665268
0.03081164805804854
0.059358159361413025
-0.015086491285121413
0.040731082293484634
0.0022680356698066783
0.012903551917208926
-0.03339772645709704
-0.04330518731234956
-0.001338198799711177
0.0441763468010442
-0.11145898897977435
-0.11142770923568908
-0.003477093300038371
0.0445673939732349
-0.026793365750931334
-0.013285024376202137
-0.023287530087669175
0.0670853229343581
0.1446564159161536
0.06907932087318214
0.06051540247598354
-0.03658974892750434
0.04943970233101497
0.022027847361084575
0.008513519258765723
-0.06988003546589494
-0.02187347044566575
-0.014696234016808859
-0.02244862990734799
-0.020380864889664892
0.03354327490319538
-0.010704647315161152
0.0025113035341775736
-0.005500131021445548
-0.023332204148485643
-0.028233765624326494
-0.006972998404230974
-0.017881029291545354
-0.016398022398420004
-0.021006903538633003
0.04864714658728408
0.0047972051561340975
-0.0148950842657825
0.04047843222436714
0.012721440777192415
-0.014623102952348454
0.03142360853909848
-0.06982235930328293
-0.030535326078104073
-0.029554843647494344
0.00953566200431679
-0.00816497291747695
0.009496959251015688
0.014560881330904352
0.00034069368425416666
0.03148456894482064
-0.03869183003751718
-0.022727437020594585
-0.009318325334634708
-0.02903997574927077
0.01972641002214954
0.01948341666336639
0.0008470481686858913
0.06211421718677291
0.04731457354942618
-0.04075936494923162
0.015170230903864162
0.030867979463343152
0.05883471185517056
-0.02345644189634054
-0.0196852428806525
0.0021578774156431903
0.009784030904355572
-0.022536396766825482
0.07805480478303713
0.06403462869701555
0.04961879897148369
0.024081017335083957
-9.805146872794667e-05
-0.01575499492381446
-0.01170603301233714
-0.023032597020282153
-0.05052540871935633
-0.054916235724124865
-0.037404914355978376
-0.025860415023409657
-0.09361844973312931
-0.024772870270860257
0.003127913257160434
0.026197678910711356
-0.022044212059291596
-0.005037033276594976
-0.01673310685678506
0.03906029324821751
0.07464974244708229
0.08287321255703745
-0.008589022852687183
-0.013576761174891702
-0.14871354837628545
-0.032468313567999736
0.020399903706610666
-0.018076096239652253
0.015153745145336637
-0.013569991164340996
-0.029570911105192423
-0.030014218444483164
0.05192008919050139
0.009469145897859606
0.052499710254967163
0.1262489222802041
-0.014739711447013701
0.011660381474016905
0.0025130812018556454
-0.03125883761445479
-0.018502385337907046
-0.02316280919394777
0.008045495429424386
0.0026913411440723798
-0.011895237271501616
-0.0031791359371094413
0.03371498217720276
-0.026108995129343504
-0.07033085316788594
-0.014597616863420064
0.07045840689760219
0.04325083534311294
-0.005303695387296977
0.013883268702856536
-0.023243596603948573
0.011687580881270719
-0.0010369967760664866
-0.019730328146577172
-0.03770866711074048
0.0014033309270312033
-0.02620609468115111
-0.039137807849929956
-0.012797573353138903
0.029286405123250925
-0.06618169734180611
-0.0012705507175593143
0.1309768902567702
0.09817726901701082
0.007054255350700346
0.0004104915281183651
0.0040011674221926245
-0.009450914105836768
-0.024405774900919077
-0.03878043598393315
0.00036383304134202137
0.004335432739571009
-0.012786078321896627
0.055922717338665544
-0.004549552214045571
0.017249064370352916
0.032932382076407044
0.03127937621041239
0.021840957940588327
-0.015553706071799933
-0.17943334661575847
-0.02377527119033948
0.011045227966808407
-0.02236671444238332
0.004093645337707353
-0.024637473968078156
0.004182766355901288
0.009083604603306051
-0.013309791089952942
-0.0006571229804655407
0.02401003177660181
-0.011964998058518342
-0.03195232245549753
0.03965046653340707
-0.008235065378357788
-0.016004719667197978
-0.007505229132117391
0.02008787080125572
0.10590761488197867
0.04145015631352157
0.002889956194641617
0.019441641120136712
-0.003200298694717619
-0.04977002468321953
0.0081051514530026
0.02873230698770387
0.02537884911168781
-0.023959140183701533
-0.0027129696755202534
-0.03728096409758076
0.019598274980587208
-0.009442904748743059
0.005994188666628157
0.027097335310462774
-0.01401138150985219
0.0019011751302835814
-0.006742354175325926
-0.022293782360299483
0.0015352934860229023
-0.0024410784750839615
-0.034479178580149525
-0.035745818843683407
0.042888932001706744
0.04466319182516833
0.014779251397434502
0.016534962110596466
-0.015143552861043711
-0.10510206250036312
-0.012867896432776462
0.03513298659266634
-0.026737389287432595
-0.019726087396265496
-0.03307338449780087
0.012496831764417586
-0.01732160519764668
0.027856243501906696
-0.007943669828434089
0.01670997991098729
0.03649227356701539
-0.004194918340801149
-0.018670389065155373
-0.00478315889004695
0.016772097203514812
0.024145342696271777
0.007565692563675149
0.019118535245379837
-0.012400535318640117
-0.011761673567811212
-0.02423846973869704
-0.02534265312914949
-0.007347635218339703
0.043322338891169744
-0.0034865200477665332
0.0027990753726016924
-0.027409090854932764
0.029797851465631364
-0.03973636136740851
-0.057152572652636256
0.03131812571733867
-0.036683383477360894
-0.030953791355253685
-0.014556351893343191
0.04803220134318181
-0.015388878028874392
-0.032107414541385
-0.050991266117750185
-0.032284569804281446
0.028209686491496643
0.02648910265821089
0.012082610272429479
0.014094747626801834
0.040610544674362384
-0.0156260500160106
-0.012084106800478596
-0.023249447060959716
-0.0038758944375216643
0.04448797552363871
0.17267951667725828
0.0025309079328882586
-0.00637755916212004
0.002978161011356589
0.039429800041094476
0.022782795359512612
0.003725518173059937
0.008639421826154375
-0.0024203914015957988
0.0002224786338665973
0.017560049849094764
-0.010699861200493878
0.009509571799202227
0.005825474089925385
0.00867834224238991
-0.010871777350701849
0.009110349719370593
-0.02081791058130898
-0.02764199575164954
-0.024932510875149437
-0.024209391206634172
0.01572490896775926
0.08652349757959661
0.06736587710511874
-0.022399159251450126
-0.2227683621767618
0.028034243815145386
0.06350171690797073
0.019900466634925115
0.12358379877071977
0.09242513258307876
0.06333627971883997
0.1030961720069242
-0.028440802447005607
0.009027436497968722
-0.02932616013507962
0.00912307353737009
-0.028885014947924226
0.03172727276750335
-0.1426640724610737
-0.19376534296215203
-0.18156130289900535
-0.18566327825043935
-0.038139611014314165
0.0341736976023212
0.07156636714569917
0.009673270779493585
0.002358074925254668
0.008704758547983126
0.010994649783740727
0.025118560687544426
0.03182695271726189
-0.018143799367961764
-0.005245344330131363
0.04306843536422656
0.0032322484380498885
0.012038510205713759
0.012277213791922094
0.019966345153675652
0.010730796633822145
0.030603397712375118
0.002114514742118448
0.02977953025514221
0.05908336367742
0.020638819851478946
-0.18504336623082537
-0.09525906470537081
0.019703670951130386
-0.007058107457764122
0.03544169493554072
0.05035329001467032
0.034581771296633666
0.019503038241728762
0.021017570795522522
0.00428503569860143
0.0028976849205198923
0.006619686757585744
0.02646575404619708
-0.012980136344928237
-0.014909921836911472
-0.013807188219100087
-0.05788285879041488
-0.022478783705080402
-0.0021951478866617025
0.012622300858660443
0.012027241055167597
0.03019478071664911
0.05435617785945826
0.04789033545195115
0.061929555147632896
-0.011526350869530601
-0.06104724421453286
-0.04528133602338808
-0.008429134996016708
0.021215325957210783
0.053640323303021396
0.02457409302817972
-0.10664546379185497
-0.013643090153348265
-0.0011695089708452819
0.03820347126477576
0.01670097749797384
0.02562535732416958
0.0011353592704527037
-0.06047091860756722
-0.0014410996223809015
0.007028302527462013
-0.029100568600346308
-0.054296855288954116
0.015601215741307692
0.04294317012162995
-0.047311675524476876
0.06795017132464633
0.04987354849113555
-0.007092223254606681
-0.024137484526879513
0.008045476115435525
-0.027520215220021776
0.01782611259484312
-0.01148881996380263
-0.011623626794322418
-0.03692734458778475
-0.012343893305719209
0.03136339559689023
-0.019643052369302562
0.026040730121597168
0.012147638385831416
0.00865984536076448
0.007594304661721148
-0.013009296464736107
-0.006102517751489669
-0.02087375858349566
-0.0010071247822644176
0.007513143352234985
-0.027749259957272617
-0.035907579152675465
-0.005202576137391065
-0.033960162688182104
0.013634374480065476
-0.012914273491702459
0.019240892076570433
-0.016932207452784866
-0.0017025830959936405
-0.032918334538986495
0.09228130227817727
0.04265197172472346
-0.08000750092678957
0.0005567574590434681
-0.018181508025074948
0.04298176926186424
0.10780470968344594
-0.0013042119036223304
-0.024912774441610358
0.05486106820936419
0.04087169851260819
-0.02402008015068128
-0.015487835931815621
0.08157169831156491
0.0022245596917079046
0.014839341730146316
-0.06570074046599841
-0.08450944525401939
0.05720932000853911
0.010215165504125118
-0.008708559147212929
-0.023229602575290942
0.0033100158536627984
-0.024488397077370178
-0.032202543183408094
0.02814361732687387
0.00264529743778013
0.04296940147918258
0.004129217071811283
-0.009969206547670747
-0.027405822752944946
-0.02061685345150462
0.04484144821541686
-0.020004923459156842
-0.026589414939262875
0.006024360860270032
-0.02012496177647002
-0.03092384093124766
0.029642813807038922
0.0170716536547389
0.05883323302622168
-0.03724632584783719
-0.047555965931842685
-0.01318915560440711
0.016923385519915075
0.06528142410741555
-0.011708172427670695
0.008615979802718164
0.031513963925578474
0.012856718231105268
-0.012261613943590896
0.006929571488910767
0.01859863943775365
-0.023063252421287674
0.009317097237885858
-0.03155955855914087
-0.09104246031829552
-0.009521541631078009
0.081918551962246
0.013696786476059535
-0.010783102823176911
-0.02058291732496836
-0.014179488256271544
-0.011165189545906205
-0.029812921985900243
-0.012139224442079986
0.031203443774474166
-0.012718469659180914
0.006297004099560445
0.004480372964367035
-0.007473561559111097
-0.038426506762591676
0.07830740959661128
0.09167949349765835
0.004897273993604692
-0.0572180789275594
-0.07596976560300545
-0.014559353736946863
-0.027754577771758222
-0.01490532333916401
-0.008238049989055338
0.0002515714170938365
-0.002191542767253266
0.004810519349482885
-0.02032889401823277
0.0319508416561465
0.0315318180071225
-0.05230955229750853
-0.02527572042983412
-0.022837362928471282
-0.026483873978309105
-0.02975300489415677
-0.002552401797574582
0.06789823618314074
0.013164779278180586
-0.026231211130499702
0.01234776247297097
0.005082725474176991
0.021428793682169666
-0.019319809026545735
0.049794355892534996
0.0029692241967796597
-0.029186703446042774
0.028679878055684626
-0.02148737679809249
0.017490966716999495
0.0147532065817462
0.0008270116273529625
-0.013020417143296326
0.013858641863878618
0.0439936462255953
-0.0035071773312934035
0.10569837619997488
-0.0671903429304382
-0.05773819940410911
0.022295664634228603
0.025429538364981578
0.017748955982669748
0.03270230700080251
0.12673381695806502
-0.030483366891183455
0.004517712822857194
-0.02950307348566355
0.012834370476883569
0.012095726094031697
-0.004645306875135431
-0.040219291956632625
-0.014888004026022994
0.019771482911445183
0.023497958700736662
-0.027903330111808736
-0.024833518955798686
-0.021334843674589817
0.058496627514164845
0.060140621131581154
2.4767516691184004e-05
-0.028874302678696125
0.000786547949359634
0.024505192600580136
0.0014127156496390088
-0.011397597913467323
-0.004053130501875744
-0.03489714675606843
-0.013135830809523467
0.011577370074886961
0.03702209574152396
-0.19248769942572178
-0.07349593782922276
0.035910224650391655
0.01744200404902918
0.023526841963895005
-0.01930083536959618
0.01487976135951666
0.004307779221920854
0.03528378268793772
-0.003093779956411989
-0.006111059809302674
-0.02138383305007567
-0.020657394738985792
-0.01595047555813393
-0.0030469332359731815
0.021025508889861853
-0.008741621929512583
-0.03340452775189758
-0.05700071871889839
0.011708097465419414
-0.01297473354884929
0.05454386501692735
0.09993452585578128
0.002156724282028962
-0.014862072339461971
0.05916449702587078
0.09065403742865029
-0.013644364945765163
-0.1898135431152202
-0.13046126353154275
-0.02219482465835867
0.04841989375695878
-0.006880193792614094
0.02174315081920953
0.037686077221085246
-0.02152384237886425
0.06354466231631574
-0.003396218193410151
0.005531231881113008
0.04127839184470084
0.0042777331131338
-0.01216494813000175
0.021182269817463257
0.0293697848214519
0.015563013258334616
-0.01232955555526912
0.001967946426262163
0.022107790319620055
-0.007675919157593356
-0.02035164320802489
-0.011007424391839124
0.005183642858819066
0.025853306269098122
-0.027342214083249276
0.017058165130987107
0.03327493301823002
0.00726087676217326
0.008525426924911777
-0.005208659027299918
-0.016781336457461882
0.06265133075326913
-0.09842393735074999
-0.20679806477029972
0.04458114907307202
-0.0191795760302777
-0.046442870104582354
-0.03157673461181997
0.007746260217418314
0.04723920777438727
0.04716860908096838
-0.007882849092266428
-0.012846936301267885
9.51908796201563e-05
-0.0023662488122239383
0.03242691330424685
0.0019754039480640168
-0.009877788484387999
0.037155955737267474
0.030467930964771475
0.071264226284826
0.053695921701619395
0.032889788787386756
-0.031496537811820435
-0.013530117432541872
-0.000993456376380182
0.022942807141251395
-0.005598743526846017
-0.025578109003166864
0.005466710310737489
-0.02848178573866809
-0.01815056712954325
0.007433576115897677
0.014284257591626305
-0.017218630912491203
-0.005818795288896478
-0.0019230177349582379
0.021997918782987468
0.011618444091014502
0.0007046361030200165
0.004349819398992603
0.0778388439317975
-0.008531636825887232
0.011405699781103342
-0.10583006738564565
-0.1116211861306572
0.024293979751775833
0.016341431159021914
0.03658583944542761
-0.02421939071684662
0.028323359731880243
0.005247002193751383
-0.01216718245252329
0.014562638130376039
0.004314530289783953
0.003207779034591992
0.008671002795508389
-0.027564071534993805
0.014591700684658237
-0.04480898452003376
-0.0337249493197111
0.05303685169318958
-0.06689918236984435
0.07517340351168614
0.004680866978385371
-0.03320645838386113
0.03897499321917765
0.11170379592331066
0.007694673772103291
0.015537047932202718
0.020125730387921602
0.015141810671482054
-0.050632430009561934
0.06357767312745469
0.08528263369969365
-0.02008111048052247
0.01600372654209811
-0.14555310677268804
-0.05878004120069845
0.027514411208920335
-0.00456854057297307
0.028988281837125165
-0.022517574798673307
-0.00259889798333744
-0.023658490400387245
0.01809902400283469
-0.000393595346341367
-0.03909028912563125
-0.061070058598970925
0.060859343623886064
-0.0653463170594083
-0.12363195486922562
-0.019978370419713808
0.014623140148368036
0.02789925971441413
0.026270772942782895
0.007353994895218909
-0.03405677498265909
-0.03911633810127511
0.04531199950243686
-0.00938845656653207
0.04133514824057536
0.13583730208270345
0.01707510510362763
-0.049698980718320435
-0.042373360302234285
0.013537745970126476
-0.024026695798097106
-0.025422849583568986
0.0060000459070687065
-0.006920459196293353
-0.01702104208783817
0.020196127738500404
0.10964817284021632
0.015077352932156615
-0.08675383124191897
-0.0035598184580449108
-0.011286727552501825
-0.04387501226909131
-0.006857973199835094
0.013586988710058496
0.011409488747793956
-0.024747671383972443
0.02036244461340577
-0.012499946674037813
-0.010416291756021835
0.008007645926184921
0.001974640793686477
-0.007080458533518575
0.02813574093635536
0.032587516410435474
0.023533858959905934
0.05228907764873241
0.010752729394625954
-0.00843895730468198
0.04112939578250835
0.04983825698788993
0.018825322676588308
-0.00883050234342967
-0.01502271763145045
-0.03943927855429418
0.0017727441652773243
-0.017558732005890716
-0.01793326418519312
-0.03417412686422709
0.023111955360861025
0.14487334995187312
-0.005178398152426925
-0.0757128973067713
-0.006475012361872344
-0.04618250599924907
-0.05944225093295309
0.11847095406279352
0.01721091233121378
0.000511043911490697
-0.00471008236575052
0.012555278156029514
0.026196294271662462
-0.0013075811016557606
-0.045262867654907876
0.03989927895937462
-0.04178439105101832
-0.09861942743968063
-0.00283010749108972
-0.06240260902861803
-0.01677892699043152
-0.006013601002554157
0.028995207196280827
-0.009908798279610569
0.027202377319293057
-0.0093693282242704
-0.015205133118685274
-0.04214623606249446
-0.016277138339807984
-0.03969450858040771
0.13545398810902548
-0.051282738896143806
-0.07672813364985341
0.025126708438023664
-0.02846767057547406
-0.022624569193268385
-0.023976524855902966
0.019016576844600477
0.009206180563340364
0.013450133010217014
0.06780206455764869
0.07100430346143172
0.009777041277590779
-0.005540584144560137
0.018711052689181808
0.004058048615472525
0.04415151762518449
-0.03559881690880389
-0.044672576716798834
0.001568380029763446
0.041471212682587244
-0.10068690854466401
-0.06344756868108262
0.04094874624033579
