0
0.001401093150339012
0.009353845192149227
0.04324451924310549
0.20671672940589372
0.25910442006747153
-0.024314988111010388
-0.0019244683791797945
-0.006154108750275242
0.015118753102086158
-0.06377910585906414
-0.025752532961852544
-0.01487070731574672
0.004271069303708503
-0.030481104344096857
-0.04078585513673385
-0.022999276847907188
-0.03148782601812528
-0.024051778904736885
-0.0034692613022780303
-0.05934390385331221
0.012316610360747313
0.026789304861829562
-0.030594770594237656
-0.07671579542920065
0.007087100385023353
0.05279249038560762
-0.03593845595033015
0.007937900370734639
0.010771384219752005
0.08135144908484603
0.0028232463563586233
0.0024989541531790947
-0.01662888601466269
-0.01686163215966352
-0.020136656475738906
-0.046915504014645684
-0.055921585070030845
-0.05753866480844567
0.037113187414013
0.008447882580423173
-0.00824831266817568
-0.003735654279644611
0.002163129868747675
0.07537001641670356
0.009646410007318017
-0.0004246980181464853
0.03856399440349229
-0.013717723441211313
-0.045423590179315715
-0.043118376054314615
0.0020706338410035993
0.04359391559923545
0.010399721787187153
0.025092155945715882
-0.0017277987699916512
-0.022303083789877717
-0.037907310429518955
-0.06555864071276925
0.013414583902243237
0.03789972542210961
0.016967790154261902
0.008161245138883883
-0.015274487555048013
-0.04514404722350185
0.019354330722785102
0.013047466298544658
0.04946482997620363
0.016991328213298143
-0.016252404360297824
0.03712058186096631
0.03901272104066386
0.04177761700643121
-0.027286591251919172
0.06967614049346353
-0.03289949727979118
-0.16655070810024417
0.046073115135381884
0.020533972866561737
0.025453569792966015
0.030898614776197056
0.05325127495186604
-0.007646655473485112
0.034200573779679014
-0.15481284853366667
-0.0008553638035242928
0.005355999193292393
0.019648733068013825
0.1008018884864143
-0.04798422929700315
-0.05173112079091992
-0.0021957056232529554
-0.03518616106905971
-0.006063836471142165
-0.026620142184827743
-0.031282997192980194
0.0023578871213447775
0.06389579229601389
0.06317531902628082
0.017818295329099117
-0.02188251915449284
-0.020094643338027615
-0.028177115437718416
-0.0663600397932397
-0.034271466467413934
-0.07992227402956259
0.004901295919646657
0.03909116140903828
0.12216527724820712
0.04312453186832876
-0.12458350144344812
-0.016561484958211845
0.05759917645736685
-0.010319513822630244
0.030914519464474665
0.1730939450682598
0.024129481152461624
-0.025805399838936142
0.009073824824444533
-0.010050516466750602
-0.23674238559965632
0.007608910795478502
0.08747866192897782
0.012362473379309446
0.01902291393950949
0.005504140288642783
0.005451731350392678
-0.018584000203719694
0.01980361026000557
0.012783129152414124
0.011284265775772498
0.02613884333089249
-0.0950828246174703
0.0801244802939551
0.02752582667423399
-0.033281827699876546
-0.019141211589274884
0.0501087070629572
-0.0032747220134347515
0.0005288646315292154
-0.040028491159423064
0.0030396906180451327
0.02519431314803096
-0.007056046959709411
-0.025970377794259942
0.014442363807359547
-0.00502859914611824
-0.12444054623583872
0.01212230031495706
0.008381710139910329
-0.013839387577560638
-0.009584630120482256
-0.05115847754735552
-0.039017337801413525
-0.014704186467067264
0.04633195153018408
0.028267642064510164
0.01309110583781657
0.10947101992244096
0.04409649692890711
-0.0074216570689039155
-0.012696186465493536
0.02695771415836717
-0.02988241137283765
0.011562234701822575
0.01731797986281376
0.05349287859162563
-0.18053904714348762
-0.15944595288986074
0.02780638917964403
0.014357788406452736
-0.033194314611327984
0.023234168773195587
0.12654122999910958
-0.04396900429017458
0.02228855385937641
0.013111927891635752
0.04059051109692611
-0.023922142738922434
0.012926450836512633
0.0342726884321281
-0.011421541493594343
-0.01778164309644842
0.005032254652057896
-0.008391020228339981
-0.02632864392040108
0.0034191533238510214
0.1081519686206542
0.018904851647929516
-0.011831877364056751
-0.03765766351011938
0.013940364913364294
0.045599502671730595
-0.008732294801313198
0.0016869663954557396
-0.008884253584090453
0.01729113636587155
-0.01677502671807838
-0.02341737275803503
0.013539680939363983
0.0243356815592671
-0.01871605037257973
0.028488652007975044
0.025115896201320563
-0.012258488949915342
0.013825302916874836
-0.028021849026188542
0.006704531523750699
-0.03280116002470631
-0.023537232180703933
0.0006704690344302583
-0.016797157105246742
-0.02663437906574262
-0.001588610855663291
-0.014589857479716433
0.004809473585874366
0.0031491182807292174
0.000466759643495694
-0.0380466943840949
-0.03347238592881884
0.028796183550451684
-0.0027619729083402413
-0.10112792893953337
0.004435763071513044
0.011392426235764657
0.05035268350931994
0.0072276894011992256
-0.006854776249259248
0.07256651084941801
0.06717064052971404
0.047828277912055836
0.0016399656322656426
-0.014077134298223933
0.0579080505101212
0.0314511826903137
-0.021630764738332316
-0.015577867092572613
-0.017291179486059093
0.0113058946728521
0.0025034329199773446
-0.015687758347411998
0.06520678514758724
0.04498620476792107
0.04343436168676445
0.0006064102747633389
-0.016687435787230094
-0.01940771669506687
-0.009416754742010508
0.002422574509192403
-0.002094585276983092
-0.0696864082477746
-0.034128374728106925
-0.018563330301433884
-0.19594512719462812
-0.017001381780513393
0.05468266137848939
-0.01285872995592272
-0.13223595037890357
-0.044405312265069885
-0.01858488797489786
-0.011851361938050939
0.01753263096385412
-0.004965980117110029
0.06153106739121994
0.008531351520028513
0.000539533191604221
0.028727761445581014
0.04375298096432686
-0.01085931867545058
0.04130633920408225
0.07081569463898486
-0.009839172038390336
-0.007751031668300965
-0.048788285823465165
-0.01103084846532043
-0.007728512962135938
0.03511259613713743
0.03962481638909767
-0.04226578994414325
-0.03220229777498492
-0.012015280381955826
0.040327188566145415
-0.008260787827690443
0.06496242242539264
0.027192977963158504
-0.013668754236043986
-0.01002199600303551
0.04275009415139024
0.021647831264250673
0.012526883943268079
0.005575955405959599
-0.016450655775738107
0.004353726623789317
-0.042335811305828315
-0.013560407136305387
-0.002420806762684023
-0.019768951833526803
0.01641891579306528
0.04975806234440666
-0.011149399712882882
-0.010703095688273925
-0.007833197744380306
-0.058362035998977393
0.002445591867878899
0.05377472321008202
-0.002572079475362158
0.005819698155729986
-0.024207815984204958
-0.005466978834607075
0.0014433761881750254
0.007661901282911356
0.04034542876290615
0.06524836239817847
-0.03002743072160024
-0.025407187242171538
-0.004851293117424031
-0.0008271667518288865
-0.01697572495667233
0.06809477758542855
0.0853674703406575
-0.025858990994108894
0.034415333237751276
0.042746002072750554
0.05043407537822825
0.030511922057359125
0.0014754455805762886
0.015000221563779458
0.015577064677827393
-0.01501073355955845
-0.1284047595207898
-0.26530787852685106
-0.06066649824186587
-0.004216164117688488
0.03559204122038795
-0.009603224843351355
0.0006041571947744675
-0.03232960598038193
0.001598938184321207
0.07337563900142303
-0.0012417533036799878
0.04815565924329088
0.05645363041341664
0.0004829683209257536
-0.05147576870241608
-0.00377411675258657
-0.05977062135918668
-0.002203719780539629
-0.013546287090150488
0.008655908841605704
-0.0013297411116216372
0.022645298237511362
0.027649478444270983
0.024488487664880588
-0.006734478882841104
0.03749849429301253
-0.06685121684436521
0.001687443188903619
0.013150585973027498
-0.020163633489077324
0.018310776826614215
0.05622701436714879
0.014849416560099842
-0.05978835095387129
0.013246275545185447
0.010471189663414272
-0.10291659395225608
-0.09433577264403022
0.045165497286462
0.023869786630278066
0.013624959880123235
0.02653537876285309
0.0036895382986625925
-0.05061561019167649
0.12255495680038636
0.0744857260145227
-0.030153843415245466
-0.03773217217598748
-0.020276436388257102
-0.00830903164764567
0.016276549771757885
0.017239121352048567
0.03379437139666197
0.003258125322799031
-0.028289882518145387
-0.001363754596689803
0.0113523143319982
-0.012911814589914252
0.02738532120773534
-0.017898716801968598
-0.021617679491296622
-0.022169013609155457
-0.03734167758808836
-0.05718730931026992
-0.0225450903571614
0.07279182056835755
0.14886150680749335
0.0063545627841313365
-0.012624877863956097
-0.012305806873501439
0.03278617598325377
-0.003999301271086377
-0.015585331843402765
-0.0029384823292673817
-0.030100110874418183
-0.008310595257861098
0.0036738624208657936
-0.03225167381381493
-0.0217864322778439
0.009185422274376354
0.003446702846360918
-0.05377876845955995
0.058947238877837586
0.035680379253513465
-0.007123035477409165
0.01293331588951766
0.007697443557320076
-0.025489658810113055
0.03895233752316204
0.027842222705608557
0.011192203307556377
0.05031329412468496
0.014614586514085133
0.01058321564022033
-0.012021080509760943
-0.020858464417182237
0.005399601264207532
-0.008228420654144563
0.003600252026554043
0.020781843610529663
-0.023804018574970106
-0.05396311664606209
-0.029166874751369132
0.03300485586831635
-0.06270152231260732
-0.031018486770660686
0.011824255216986362
-0.016486653474242687
0.006934658559467601
0.018980118840280665
-0.053077664498634124
-0.03477602467051776
0.022378344029494644
-0.029269295932563534
-0.006424352841897374
-0.051725638437357745
-0.00437528393794109
0.0978009529132483
0.05346407661543958
0.10077205438537333
-0.05448439189402206
-0.043448067985554645
0.03300422394460826
0.007911832534438232
-0.03165652130548099
-0.002772809612499878
-0.006844220760507712
-0.00855963594843493
-0.06997791785669606
-0.037518683032837404
-0.013120651079942099
0.013132456536835058
0.03789156109894665
0.06391649482880384
0.00821451624529336
0.02283525252812965
-0.060126190429721095
0.007826277671226125
0.032677426106528774
-0.007676867658882418
-0.025668921822132235
0.0015208221282334412
-0.16624036448706217
-0.1524104531304052
0.030061910311192815
-0.048801579894683846
-0.0009083808366870957
0.013863040106799304
0.027067914826397126
-0.022822317743528223
0.03452165173995013
0.030668113595060043
0.16012451972383615
0.052995135659547214
0.032043378314773
-0.01796683836329136
0.02794200847533812
0.0679765615322595
0.060610591282598346
0.1041603713121782
-0.0036880096226920836
0.0014255229416101694
-0.029683071195772223
0.006941561546786532
0.018186597012794625
-0.015721240624254246
-0.008350278946154808
0.00736158402995325
-0.01680961698702813
-0.06996295192307694
-0.033577254259469246
-0.015661654136074645
-0.01790861481936576
-0.0682541250706574
-0.05621312239498519
0.018937502634521177
-0.03295129545674869
0.09468372476349876
0.1160444222547028
0.04569252383453301
0.08341870052809523
-0.03522276996753452
-0.03291496560271968
-0.007360346110338379
0.013895025258554591
-0.07110324072734599
0.01116540070589593
0.09233715696185595
0.006645879646798539
-0.06464103410101874
-0.14702946338842007
-0.01539191792088537
0.009974722469246362
3.038543534984073e-05
-0.03159669643493788
-0.03745981971202656
0.00844331418572861
-0.01185124521060885
-0.021170715386859208
-0.01488743050750084
0.05022150675943071
0.021096550044696873
-0.007299558905378136
-0.006533322062582352
0.007939417467168296
0.03122543737758036
0.02516880566332269
0.037443050098556745
-0.03102393760899226
0.02881232656382294
-0.017077507274195283
-0.031993286525615346
-0.07316480137842485
-0.06115303317136517
0.003969987760683949
-0.010383842839246437
0.0035017910639905717
0.04460220280603722
0.056441194496797194
-0.02902188195615896
0.008875996192513624
0.004447612029629033
0.024856643958161246
0.001797044169671279
0.01776808961486576
0.006077879421773852
-0.003960641463137514
-0.016016760082457993
0.012287646529892997
0.112576429040113
0.004370362217176142
-0.026236817004467183
0.004352723401565425
0.014843229559500147
0.03158027453528258
-0.04071995683512629
-0.03191951474422046
-0.003013556542563944
0.04557850682244195
0.025646112278923987
-0.024436596905684758
0.0062195949981621495
-0.024464445910420456
0.0059245086000580685
0.003367748807970228
-0.010458437443466164
0.008566577089017072
0.008972368004001917
-0.021958516553513757
0.027657592854167277
0.008517689587469061
0.014781586999766987
-0.0672814652916347
0.0029995712133095657
0.03687411808636143
0.035455112618827986
-0.00682837105900384
0.014963525132661536
0.010803423649445426
0.03915323570898359
-0.14592320062665504
-0.13911033413050847
0.052127516059454565
-0.05292177056195869
0.0014890197060457167
-0.026745860899158105
-0.029467572258874686
-0.010102009027729007
0.01179131891330419
0.017241799143547135
0.03024696444145296
-0.0006459059744211384
0.04047705869577099
-0.008683957633866247
-0.013735346990632906
0.015523698312337571
-0.006037877119098447
-0.05093263869729529
-0.014846983062998259
-0.029521001564805846
0.025206201148325436
0.0072228367628517365
0.0018966101345565698
0.04443845992923584
0.009882445408152812
-0.004627052704707185
0.0020159190569535956
-0.001864242807668301
0.02158636839632166
0.08585829573998559
0.028866280838089356
-0.013241892608584719
-0.026239690274233573
-0.023804545845412545
-0.011416473326973764
0.026728332227469835
0.015144599824116986
-0.028028638977335193
-0.0017438842571231828
0.014610874865922855
-0.0030621714027732876
-0.013953966230140967
0.004195490973732068
-0.02400707292753873
-0.009559531149999759
-0.007905536351446142
0.010907787488949822
-0.010984192636850635
-0.0011996610608180803
0.042352710054634014
0.027026510491842994
-0.010085502058718476
0.01608676108087089
-0.027673751214871006
0.011386874993085034
0.05556407883134547
0.02199855943360302
0.04221354244417338
0.03163570139027546
0.10302460518403142
0.005877404050228252
-0.0008814995540561073
-0.013912628929097042
-0.0019184829232390583
-0.039014890871677275
-0.05635280609594955
0.026642019489060635
0.04387828611425267
-0.0075495772415601296
-0.1649904046754954
0.0038011177579813705
-0.020727754072575297
0.004062069987514128
-0.017087066139988397
0.02643271410800992
0.0014545902748592894
0.03587773212203728
-0.12548703242481946
-0.14828615947025856
0.016260244461805188
0.07209686611581087
0.045682343939388484
-0.015444132982383181
0.010868772315372656
-0.028802207877531388
0.0018370141114018251
0.041255412909786904
0.034968562241781326
-0.012063880645543885
-0.030812918207136577
-0.021721020285054356
-0.04074552056478218
0.03545623871241367
0.003770873975701566
-0.013718276286179333
-0.020067575593554297
-0.02299275290142189
0.021538123903276904
-0.00561158138373305
0.02971672850457268
-0.059664044686922164
-0.009740603005102032
-0.018594877338666174
0.023256523387119792
0.048332367694044774
0.0025840506396873713
-0.003425405263857822
-0.023685142622495856
0.02990106614528745
-0.002486122711776725
0.028555484209192347
-0.022091160758018074
0.03577964008862776
0.12528352329050516
-0.024028326145896953
-0.01693267706914408
0.025702417818878342
0.021028846394281445
-0.07477064742659258
0.0024377049196949684
-0.04682265944577108
0.026832061887131307
0.012290656627919169
-0.0250185213223995
0.030804181305806252
0.01693661073669981
-0.017861552025000157
0.0009609329468491553
0.03458669800427553
0.017221679459989755
-0.017696338862482515
-0.03784454541945435
-0.0066259343545165186
0.05800464571756694
0.027799768949000225
-0.015060395080864259
-0.012791702473766863
0.033083656940540246
0.03260505829157446
0.015027249231832322
0.11504361725746322
0.05528445191373053
-0.04667921134876308
-0.003789550419653828
-0.05932725369809806
-0.0596134754230827
0.025880320506428356
-0.010710137160290577
-0.019571034390162296
-0.0436226711652304
-0.055770570065445155
-0.10997568640765523
-0.07869055583402829
0.023062972113505765
-0.018151787671533852
0.12469564184901204
0.1483099483950468
0.010173678985730749
0.011322103301880002
0.022338216492129376
-0.014448876490716559
-0.000650804153652019
-0.021074363780770232
-0.11121592826556764
-0.004856635542607291
0.021450103281763916
-0.007683343289975156
-0.012626248107595009
-0.024625510052220863
0.018537803137290938
-0.027412688759713904
-0.035806498681342
0.0060247558213652455
0.0001910065616037859
0.005927378062141026
-0.010731620795666622
-0.011933396303885893
0.00630351822112415
-0.013930791240162292
-0.0013937025374267933
0.014230272316480707
0.0008968538116348352
-0.005735531448213338
-0.002929217407564231
-0.013805691083973413
0.009160845301544644
-0.009542184645821102
0.010172738821252338
0.00565951534097605
-0.007582157463292274
-0.030625067991192294
0.029990101697031136
-0.004163926130410084
-0.026151626229764226
-0.044047345017331464
0.18835016199241947
0.07898182604954906
-0.013758044878534804
0.014776710847026312
-0.009365392531218042
0.052510438442659214
-0.023656127911210443
-0.17283090278132401
-0.007070848509982113
0.05494330901381363
-0.04195064585511046
-0.011857137772341477
-0.03050983362342008
0.0283421876995294
0.008523162150397019
-0.009695632017055249
0.018205777612728097
-0.00433045578992196
0.01999543189935652
0.020436840785827814
-0.010602226059619576
-0.026651841143626172
0.003671414467392629
0.017374933159973557
-0.002235348935305238
-0.020690652807362903
0.004728090788380151
0.0332916036039919
0.04335033569747962
-0.054131165825138314
0.02327510397295223
-0.01677263116706498
-0.03985802913110275
-0.030521908128567973
0.1130689639450783
0.06085189942972486
0.017948560690543933
0.011381407215301
-0.03959431138016076
-0.05276754633546615
-0.054914459828687326
0.008852198030203698
0.0020947252583912155
-0.03833205768502112
-0.062430587885857175
-0.019312854703094712
0.02054440035788722
0.0017109686286143498
-0.03049669532507988
0.03155267365260838
-0.013854696753964361
-0.04672039300044322
0.009382584386760057
0.0339062000911383
0.03078908242292036
0.006285408799119416
0.13783192374040568
0.04662650486125548
0.037940716183353776
0.010167182212726595
0.015969421709783646
-0.013392954050747276
0.007762000891448789
0.005221432440229328
-0.018044078944259915
-0.041933158611433055
-0.015213780731023627
-0.002808407397444994
0.0194717484824872
-0.03602940204734865
-0.01790100152059756
-0.04257810451547105
-0.020297226026959308
-0.008898928292798628
-0.03948517485574628
-0.005763618083282694
0.0009865351610264484
-0.006866223442901919
-0.02699811811788162
0.013651419840087144
-0.004454197254050607
-0.0036969157344313094
-0.010357605774313603
0.012600474672799284
-0.028815585985274946
-0.013202559201743432
0.09913844948773541
-0.02501006732958803
0.0010227202391354002
0.044318412258687184
0.026664441320012996
0.05697187468378622
0.026862615707820496
0.012905151237322976
-0.004204154003028579
-0.03373740907422483
-1.558652092110141e-05
-0.006783751773757003
0.03959405067694503
0.026090633748074278
0.0650654404542526
0.020239835070994257
-0.03738142739266126
-0.01790322669401813
0.00934768924236089
0.02465110901635073
0.01879675164748985
0.00724793187542074
-0.1538201234952291
-0.0710454010013839
0.05788490338857836
-0.012767561697586687
0.02740270891856424
-0.10680365725897578
-0.056876698368145726
0.03842448692276129
0.01949409321100969
0.02443984495316504
0.0025704785804022937
-0.1909645746856167
0.08867214609701089
0.068937734445566
0.030108249216785468
0.14805071401735645
-0.03591810675766338
-0.011828708432253011
0.016894279909273505
-0.025625081744010576
-0.04364542707495043
-0.05135909613866476
0.06269376909199584
0.03363510796513468
0.05263727231921213
-0.1738508354214962
-0.06202527242839157
0.05753911120170276
0.01152520557095671
0.007009655452744267
-0.050943745472635936
-0.01891715420131507
-0.011314822570510518
0.022881251121076758
-0.0668773230297193
-0.00925372777387308
-0.005491869176631169
-0.02701947213797526
0.044684684509683575
0.049555402102454064
0.01831939133705355
0.09052713111016672
-0.003943106742131527
0.02252098717991175
-0.019242608298798976
-0.005052498552735635
0.01332193322936615
-0.015898551017856515
-0.07282172489739058
0.03646950439825748
0.025753555888765503
-0.014339654864357248
-0.040826798633014444
-0.03163903405955986
-0.015074845359395036
0.015579211999409573
0.011787415419747376
0.0352685024361826
-0.05275078016363729
0.003921249490425313
-0.023472989960928767
0.002159518617646092
0.060548462780884396
0.12160688900235873
0.03622010023384132
-0.0010284371638154416
0.003980472166811312
0.02585906211487957
-0.023317723970645833
0.06196739403231988
-0.01880106265481497
-0.254439052941013
0.06301333494301875
0.005621107865135881
-0.015434542194485739
0.0137475274306138
-0.04799887548642492
-0.03152799663925271
0.006319756807292906
0.009293753362059629
0.01759215253704966
-0.007023063850228312
-0.006508547522721608
0.015890079740260042
0.1433813655953625
0.05192801703789569
-0.05324180003374202
0.03730865565330688
0.03769646248992295
-0.0020217272841036517
-0.04744582313726391
0.03225520332084965
0.028979287732787476
-0.0731332219576095
0.06559703797703867
0.04434836151183123
-0.0277012123585538
-0.015881986533588906
0.006676277838492302
-0.04434323086102622
-0.04807831557476092
0.04227013495609132
-0.013754615809429372
-0.007571825463529923
-0.018158537617148633
0.032303186207262066
-0.048960756838833316
-0.0008935388970170627
-0.022918808146088748
0.012913604927638262
-0.049732766841931855
-0.0902063886200574
0.016270855773448764
-0.026598366760010043
0.03825222109184922
0.01689097190952241
-0.036902124904655303
-0.012892484640114894
-0.08414516877213087
-0.042840649798805
-0.0023039419023036783
0.07877865318488501
0.06608702113837193
-0.009628538508028238
0.03127461431264319
-0.06062257772815101
0.0016219750946656274
0.05915134018204222
0.04524540719777286
0.03474471841210045
0.03660970614278101
0.06275241023504645
-0.04036908533835177
-0.048436323060449926
-0.03327923840560937
0.005364714769625597
0.007248036424656126
0.005146562589997111
0.08410642261095012
0.01799991364663216
0.016628765125160226
0.006117692579321095
-0.009752538924625274
0.004422233587632661
-0.061134731853391924
-0.038253356909222186
-0.00886492990029677
0.02371182914776074
0.011958340716425049
-0.02646698132743285
-0.011267805505015122
0.029616769489650967
0.0323665700615314
0.07471300670829396
0.017983701397479745
-0.059722243817611646
0.017097731141400965
-0.017005320469043662
0.0036680010442365525
-0.021255083418594115
0.01455994693393157
-0.08670303945958187
-0.033010913621507675
-0.020468826574394947
-0.017081025676629537
-0.04277420762817246
0.04217838231417023
-0.020891717867118135
-0.19680682007082304
-0.013746315163739569
0.04920977430012742
0.19359328654671837
0.06989750366600307
-0.0867479491974662
-0.020786094815818102
0.03509835689270551
0.0007874286184045668
0.017984215426227218
0.03780082207901402
-0.00017610540274044638
-0.03637038299543244
0.00858834943023619
0.10279582645545662
-0.033200713005176054
-0.022720627442306914
-0.008383102044889163
0.020666984307147272
0.07050740237583157
0.025493328201892915
0.005861437136298748
-0.032560448057122444
0.012011396315771234
0.012617502546604738
-0.004148828453378435
-0.029234346984281893
-0.03866431534781268
-0.008790252500645735
0.005293509425202666
-0.042619190877458274
-0.10753825374294444
-0.013620354366756364
0.024579455776385
-0.016283984384110106
-0.017266658188648518
0.011562155069565766
-0.07446577712223097
0.024574327253399083
0.008909832288136809
0.01663499113318553
0.017971299144180917
0.003163389225961108
0.00945847864153269
0.01887943715580475
-0.004641946518412201
-0.0004011956034303233
0.0028861802720130036
0.01759239668984576
-0.015312390790918722
0.10965495490265843
0.061796962735362775
0.016879020076343017
0.03207943789253489
-0.04094399321154702
0.002737525787976428
-0.009322887562730937
0.04991931328015458
0.03320688239582007
0.03658405001948023
0.010488586611768118
-0.02220918775786844
-0.017606670692855212
0.007278504783171451
-0.007678845399492244
0.019410413852269406
-0.03794765589584437
0.025858126078197024
-0.02148750870464461
0.04967787644909089
-0.1097827551681256
-0.13433568304888513
0.009276834620038508
-0.028041242951683323
0.011383301036110216
-0.04675102014170144
0.016778997961971263
-0.044129340200568024
-0.028231172580104626
-0.02662860747797927
-0.02449327214071183
-0.012577369985106439
0.0611970100939936
0.061255995174558174
-0.0035183010573769857
-0.008110677156447792
0.06621402919858871
0.02709309166019773
-0.018592496985700032
-0.03772844123915903
0.007998482271415914
0.006362508080455277
0.033847941543631556
0.029485310013167773
0.030760019982590415
0.0007953233706731286
-0.045642185528742434
0.007579663437862087
0.016937614610787997
0.04577170936797892
0.0025783458384243743
-0.01772517914280223
0.04282062748464601
0.0058142093078637136
0.02445601106447684
0.005199392359698241
0.04088588256022706
-0.06761124343379234
-0.21921003332674824
0.026416265197129418
0.01445781718714066
-0.03099878064338696
-0.01209201131724579
-0.02505626317541689
0.01897970576928285
0.0782781693785781
0.04752189220579681
-0.020721671337646987
0.010980057759091966
-0.03741734907218118
-0.2064993653471744
0.020855697945302374
0.04544427764724078
-0.003349801328451371
0.04113449612213409
0.1509871850182795
-0.0036267962178543247
-0.06973915561640379
0.02630091106058594
-0.031297518471330874
0.020964374687303142
0.05413308382326875
0.023773831690473465
-0.02117920963962525
-0.0025189105400167085
-0.02353915194161242
0.007212159640283619
-0.007162014457665817
-0.02395832972233119
0.002520418474949994
0.022194842469938632
-0.021272698917228616
0.11839776197551231
-0.016172683749594487
-0.03720351732759178
0.033334102674698565
-0.02689731033620082
0.010865787648889137
-0.020237710463787913
-0.012490881398391994
-0.029087271855277118
0.0051686907074652375
0.011685146998986278
-0.004246846132995005
-0.006304947519646769
-0.032526825172365235
-0.00044766361325431517
-0.010052299041430296
0.16087023259048927
0.0914782191154379
-0.09545342920535393
-0.04883654498276225
-0.013665371111357252
0.07931988173900485
-0.12240638085881776
-0.10903081499887433
0.042215566387604535
-0.03437697210343319
-0.03349687097724669
-0.0043513095914539
0.03129788774623186
0.007876824868898279
-0.03101755491904379
0.11890319769573647
0.04851826462332979
-0.01917747335935115
0.025259790717893093
-0.002434248075916744
0.03874610276622094
0.011940835066120125
-0.042382382091202174
0.00012275233725883336
-0.02174944361275148
-0.02542194253535613
-0.046209316125100104
0.008589114804967959
0.06514810324371885
0.0043758381982844435
-0.0063247228285288155
0.03276027568045931
0.040860868294016396
-0.030760418813977793
0.01122311788945144
-0.022002896467632576
0.0464192015440887
-0.06483679163897471
0.015374918889305946
0.03651198342101212
-0.03880098918110411
-0.04011599723440863
-0.0210844036882054
-0.05725955317328705
0.016132055581787885
-0.015310469856788057
0.013666001673192325
0.04614741180008713
-0.05016850676650314
-0.00023505944991321427
-0.017661012022523143
-0.007931669946443159
-0.020391578199167322
0.0012206580090622246
0.06938344231698716
-0.01364138416801659
-0.07476884713862643
-0.0026813710224833968
-0.028926582210733263
-0.03236824392109607
-0.033062764787527725
0.04873776617062863
-0.01394079481036656
-0.03128713674506384
-0.034715645965887935
-0.04089204197764963
-0.03668939374915704
0.16086777710393468
0.05599296521471108
0.1269405213045923
0.17632043333827396
-0.07534036207849781
0.0034781366824986983
-0.05399992178265985
-0.026072256273052728
0.01815025187980825
0.016427040422915658
-0.021897615348980253
0.016279985880612947
-0.01944797951083825
0.07324183284425048
-0.002065144028386038
-0.008583649535677796
0.027589170350328235
-0.026172465419747788
-0.03640471504544448
-0.0660534937451543
-0.014774816575475764
-0.02985820692387075
-0.011678684880884428
0.010692651401286947
0.12882416307308822
0.04133963590666549
-0.01868441977718815
-0.03165533294745808
-0.02410837873030625
-0.033472783312891295
0.015434464046627067
-0.08855963288419254
0.0026904689342073995
0.08198638334948646
-0.03582557633441009
-0.03310233717561916
-0.027979950817048325
0.025585266977579957
0.004358105214447116
-0.004172625440636925
-0.00856856888931834
-0.07861494673045413
0.02807468958560977
0.05662266789128669
-0.007543926859075566
0.03707997103868896
0.0554592700279076
0.0042350021026675184
-0.027147111161669082
-0.02074241843915754
0.005247049704449638
0.030925249961552582
0.041519749439638765
-0.016830683167355462
-0.03639073929777708
0.0006430969911171363
0.026306080163099897
-0.03947030164489932
0.03545735707076632
0.04960356796133395
0.053446456923570876
0.05332055693501132
-0.12059725841086212
0.023198562890824666
0.010396233236764606
0.04376276372115477
0.013361397758035081
0.00598232579802038
0.022313091928535665
-0.010628535337384153
-0.21175197087159575
-0.023362248281483942
0.008559416383325075
-0.007545268611111201
-0.02161097217012769
0.019885653488303665
0.005310604167819939
-0.01658345836571552
-0.023311825216765232
0.02003161712048691
-0.011319247430838246
0.026232854123867517
0.05762398118245491
0.011294361914497423
-0.026574014717921295
-0.011041789591454456
-0.03531118592060891
-0.03722804357640647
0.012223756056743293
0.01955887516324405
0.0731159285305829
0.0637349422109824
0.03778519478545651
0.004180771097774771
-0.10216733531738684
-0.10246509000712128
0.024381969998754194
-0.007135462766009795
0.010256553680066208
0.001902659022180724
-0.04472900961125858
-0.022896280914793912
0.015001957961647888
-0.0014987131224383395
-0.006959125349519741
-0.00011494313875873423
-0.00404498477068329
0.03364036989794058
0.0044588480331552065
0.04878271337730502
0.06138080003951122
0.03246589889939005
0.03678070680146029
-0.03997037082142592
0.07889822844856993
-0.1334173648755316
-0.11893633868599632
-0.1329911703847386
-0.10957116390072937
0.018553518985047583
-0.013266503783760089
-0.025352413573667923
0.0474453663429745
0.12331150434133936
-0.014893083785077255
0.0015983669687717526
-0.023871400166631054
0.19250291032526415
0.0725537467131335
-0.06398052382239168
-0.008643544795338515
-0.04136465569072188
0.12042759284742728
0.1736291647341064
-0.002974935963315663
-0.012076844508950246
0.0029693260917367037
-0.20677228957115343
-0.10610754309663871
0.0991811001110224
0.023205978907833547
0.0026092283315517
0.0037322543915740683
-0.008952433608697553
0.005686559506683112
0.014099577081735776
-0.021666457842662967
-0.012103586392607705
0.02488732257040854
-0.009113707897157352
-0.046588546629751454
-0.017650725849953863
0.030903091465590112
0.0369318338934011
-0.027538995298642982
0.001148556504995529
0.016348770450428395
-0.03865033131077127
0.0094749843145026
-0.02616498927785252
-0.016976202785803765
0.0022880507274193928
0.0008171624928480582
0.00997901184778459
-0.016067529943383105
-0.019668260406632453
-0.020440871406915355
-0.010875720919905992
-0.03944779082497078
0.022657586926230332
0.06512588523304771
-0.036220920175749134
0.01822050640303255
0.060283582186262556
0.025324194822389852
0.12021996436787857
-0.0119229054518572
-0.03223555260894036
-0.021742176664283328
-0.004950183576920599
0.0028434328649882636
-0.061366680984075786
-0.030204784670214938
-0.019691537479963394
0.1955535553301751
0.05257727970481039
-0.03903227272693024
0.0401001129822564
-0.008411420574056727
0.015927239435615966
-0.007859111268194142
-0.010296995387568779
-0.004632116467782989
0.03915992355719422
0.05498858461560328
-0.12228117693440198
-0.08167131605871018
0.06459705339015553
-0.002156236417300024
0.003159439682962439
-0.002202050233169711
-0.018117314786070052
-0.04075215095362324
-0.02793554594579005
0.00992149135746468
0.05547330795806549
0.0790771344874061
-0.13843669269690137
-0.07651778499543319
0.012528775357504135
-0.008989750253754638
0.032433579724254924
0.006526132935705338
0.02919285112119036
0.009137609524332693
0.06007242283431453
