0
-0.021074363780770232
-0.11121592826556764
-0.004856635542607291
0.021450103281763916
-0.007683343289975156
-0.012626248107595009
-0.024625510052220863
0.018537803137290938
-0.027412688759713904
-0.035806498681342
0.0060247558213652455
0.0001910065616037859
0.005927378062141026
-0.010731620795666622
-0.011933396303885893
0.00630351822112415
-0.013930791240162292
-0.0013937025374267933
0.014230272316480707
0.0008968538116348352
-0.005735531448213338
-0.002929217407564231
-0.013805691083973413
0.009160845301544644
-0.009542184645821102
0.010172738821252338
0.00565951534097605
-0.007582157463292274
-0.030625067991192294
0.029990101697031136
-0.004163926130410084
-0.026151626229764226
-0.044047345017331464
0.18835016199241947
0.07898182604954906
-0.013758044878534804
0.014776710847026312
-0.009365392531218042
0.052510438442659214
-0.023656127911210443
-0.17283090278132401
-0.007070848509982113
0.05494330901381363
-0.04195064585511046
-0.011857137772341477
-0.03050983362342008
0.0283421876995294
0.008523162150397019
-0.009695632017055249
0.018205777612728097
-0.00433045578992196
0.01999543189935652
0.020436840785827814
-0.010602226059619576
-0.026651841143626172
0.003671414467392629
0.017374933159973557
-0.002235348935305238
-0.020690652807362903
0.004728090788380151
0.0332916036039919
0.04335033569747962
-0.054131165825138314
0.02327510397295223
-0.01677263116706498
-0.03985802913110275
-0.030521908128567973
0.1130689639450783
0.06085189942972486
0.017948560690543933
0.011381407215301
-0.03959431138016076
-0.05276754633546615
-0.054914459828687326
0.008852198030203698
0.0020947252583912155
-0.03833205768502112
-0.062430587885857175
-0.019312854703094712
0.02054440035788722
0.0017109686286143498
-0.03049669532507988
0.03155267365260838
-0.013854696753964361
-0.04672039300044322
0.009382584386760057
0.0339062000911383
0.03078908242292036
0.006285408799119416
0.13783192374040568
0.04662650486125548
0.037940716183353776
0.010167182212726595
0.015969421709783646
-0.013392954050747276
0.007762000891448789
0.005221432440229328
-0.018044078944259915
-0.041933158611433055
-0.015213780731023627
-0.002808407397444994
0.0194717484824872
-0.03602940204734865
-0.01790100152059756
-0.04257810451547105
-0.020297226026959308
-0.008898928292798628
-0.03948517485574628
-0.005763618083282694
0.0009865351610264484
-0.006866223442901919
-0.02699811811788162
0.013651419840087144
-0.004454197254050607
-0.0036969157344313094
-0.010357605774313603
0.012600474672799284
-0.028815585985274946
-0.013202559201743432
0.09913844948773541
-0.02501006732958803
0.0010227202391354002
0.044318412258687184
0.026664441320012996
0.05697187468378622
0.026862615707820496
0.012905151237322976
-0.004204154003028579
-0.03373740907422483
-1.558652092110141e-05
-0.006783751773757003
0.03959405067694503
0.026090633748074278
0.0650654404542526
0.020239835070994257
-0.03738142739266126
-0.01790322669401813
0.00934768924236089
0.02465110901635073
0.01879675164748985
0.00724793187542074
-0.1538201234952291
-0.0710454010013839
0.05788490338857836
-0.012767561697586687
0.02740270891856424
-0.10680365725897578
-0.056876698368145726
0.03842448692276129
0.01949409321100969
0.02443984495316504
0.0025704785804022937
-0.1909645746856167
0.08867214609701089
0.068937734445566
0.030108249216785468
0.14805071401735645
-0.03591810675766338
-0.011828708432253011
0.016894279909273505
-0.025625081744010576
-0.04364542707495043
-0.05135909613866476
0.06269376909199584
0.03363510796513468
0.05263727231921213
-0.1738508354214962
-0.06202527242839157
0.05753911120170276
0.01152520557095671
0.007009655452744267
-0.050943745472635936
-0.01891715420131507
-0.011314822570510518
0.022881251121076758
-0.0668773230297193
-0.00925372777387308
-0.005491869176631169
-0.02701947213797526
0.044684684509683575
0.049555402102454064
0.01831939133705355
0.09052713111016672
-0.003943106742131527
0.02252098717991175
-0.019242608298798976
-0.005052498552735635
0.01332193322936615
-0.015898551017856515
-0.07282172489739058
0.03646950439825748
0.025753555888765503
-0.014339654864357248
-0.040826798633014444
-0.03163903405955986
-0.015074845359395036
0.015579211999409573
0.011787415419747376
0.0352685024361826
-0.05275078016363729
0.003921249490425313
-0.023472989960928767
0.002159518617646092
0.060548462780884396
0.12160688900235873
0.03622010023384132
-0.0010284371638154416
0.003980472166811312
0.02585906211487957
-0.023317723970645833
0.06196739403231988
-0.01880106265481497
-0.254439052941013
0.06301333494301875
0.005621107865135881
-0.015434542194485739
0.0137475274306138
-0.04799887548642492
-0.03152799663925271
0.006319756807292906
0.009293753362059629
0.01759215253704966
-0.007023063850228312
-0.006508547522721608
0.015890079740260042
0.1433813655953625
0.05192801703789569
-0.05324180003374202
0.03730865565330688
0.03769646248992295
-0.0020217272841036517
-0.04744582313726391
0.03225520332084965
0.028979287732787476
-0.0731332219576095
0.06559703797703867
0.04434836151183123
-0.0277012123585538
-0.015881986533588906
0.006676277838492302
-0.04434323086102622
-0.04807831557476092
0.04227013495609132
-0.013754615809429372
-0.007571825463529923
-0.018158537617148633
0.032303186207262066
-0.048960756838833316
-0.0008935388970170627
-0.022918808146088748
0.012913604927638262
-0.049732766841931855
-0.0902063886200574
0.016270855773448764
-0.026598366760010043
0.03825222109184922
0.01689097190952241
-0.036902124904655303
-0.012892484640114894
-0.08414516877213087
-0.042840649798805
-0.0023039419023036783
0.07877865318488501
0.06608702113837193
-0.009628538508028238
0.03127461431264319
-0.06062257772815101
0.0016219750946656274
0.05915134018204222
0.04524540719777286
0.03474471841210045
0.03660970614278101
0.06275241023504645
-0.04036908533835177
-0.048436323060449926
-0.03327923840560937
0.005364714769625597
0.007248036424656126
0.005146562589997111
0.08410642261095012
0.01799991364663216
0.016628765125160226
0.006117692579321095
-0.009752538924625274
0.004422233587632661
-0.061134731853391924
-0.038253356909222186
-0.00886492990029677
0.02371182914776074
0.011958340716425049
-0.02646698132743285
-0.011267805505015122
0.029616769489650967
0.0323665700615314
0.07471300670829396
0.017983701397479745
-0.059722243817611646
0.017097731141400965
-0.017005320469043662
0.0036680010442365525
-0.021255083418594115
0.01455994693393157
-0.08670303945958187
-0.033010913621507675
-0.020468826574394947
-0.017081025676629537
-0.04277420762817246
0.04217838231417023
-0.020891717867118135
-0.19680682007082304
-0.013746315163739569
0.04920977430012742
0.19359328654671837
0.06989750366600307
-0.0867479491974662
-0.020786094815818102
0.03509835689270551
0.0007874286184045668
0.017984215426227218
0.03780082207901402
-0.00017610540274044638
-0.03637038299543244
0.00858834943023619
0.10279582645545662
-0.033200713005176054
-0.022720627442306914
-0.008383102044889163
0.020666984307147272
0.07050740237583157
0.025493328201892915
0.005861437136298748
-0.032560448057122444
0.012011396315771234
0.012617502546604738
-0.004148828453378435
-0.029234346984281893
-0.03866431534781268
-0.008790252500645735
0.005293509425202666
-0.042619190877458274
-0.10753825374294444
-0.013620354366756364
0.024579455776385
-0.016283984384110106
-0.017266658188648518
0.011562155069565766
-0.07446577712223097
0.024574327253399083
0.008909832288136809
0.01663499113318553
0.017971299144180917
0.003163389225961108
0.00945847864153269
0.01887943715580475
-0.004641946518412201
-0.0004011956034303233
0.0028861802720130036
0.01759239668984576
-0.015312390790918722
0.10965495490265843
0.061796962735362775
0.016879020076343017
0.03207943789253489
-0.04094399321154702
0.002737525787976428
-0.009322887562730937
0.04991931328015458
0.03320688239582007
0.03658405001948023
0.010488586611768118
-0.02220918775786844
-0.017606670692855212
0.007278504783171451
-0.007678845399492244
0.019410413852269406
-0.03794765589584437
0.025858126078197024
-0.02148750870464461
0.04967787644909089
-0.1097827551681256
-0.13433568304888513
0.009276834620038508
-0.028041242951683323
0.011383301036110216
-0.04675102014170144
0.016778997961971263
-0.044129340200568024
-0.028231172580104626
-0.02662860747797927
-0.02449327214071183
-0.012577369985106439
0.0611970100939936
0.061255995174558174
-0.0035183010573769857
-0.008110677156447792
0.06621402919858871
0.02709309166019773
-0.018592496985700032
-0.03772844123915903
0.007998482271415914
0.006362508080455277
0.033847941543631556
0.029485310013167773
0.030760019982590415
0.0007953233706731286
-0.045642185528742434
0.007579663437862087
0.016937614610787997
0.04577170936797892
0.0025783458384243743
-0.01772517914280223
0.04282062748464601
0.0058142093078637136
0.02445601106447684
0.005199392359698241
0.04088588256022706
-0.06761124343379234
-0.21921003332674824
0.026416265197129418
0.01445781718714066
-0.03099878064338696
-0.01209201131724579
-0.02505626317541689
0.01897970576928285
0.0782781693785781
0.04752189220579681
-0.020721671337646987
0.010980057759091966
-0.03741734907218118
-0.2064993653471744
0.020855697945302374
0.04544427764724078
-0.003349801328451371
0.04113449612213409
0.1509871850182795
-0.0036267962178543247
-0.06973915561640379
0.02630091106058594
-0.031297518471330874
0.020964374687303142
0.05413308382326875
0.023773831690473465
-0.02117920963962525
-0.0025189105400167085
-0.02353915194161242
0.007212159640283619
-0.007162014457665817
-0.02395832972233119
0.002520418474949994
0.022194842469938632
-0.021272698917228616
0.11839776197551231
-0.016172683749594487
-0.03720351732759178
0.033334102674698565
-0.02689731033620082
0.010865787648889137
-0.020237710463787913
-0.012490881398391994
-0.029087271855277118
0.0051686907074652375
0.011685146998986278
-0.004246846132995005
-0.006304947519646769
-0.032526825172365235
-0.00044766361325431517
-0.010052299041430296
0.16087023259048927
0.0914782191154379
-0.09545342920535393
-0.04883654498276225
-0.013665371111357252
0.07931988173900485
-0.12240638085881776
-0.10903081499887433
0.042215566387604535
-0.03437697210343319
-0.03349687097724669
-0.0043513095914539
0.03129788774623186
0.007876824868898279
-0.03101755491904379
0.11890319769573647
0.04851826462332979
-0.01917747335935115
0.025259790717893093
-0.002434248075916744
0.03874610276622094
0.011940835066120125
-0.042382382091202174
0.00012275233725883336
-0.02174944361275148
-0.02542194253535613
-0.046209316125100104
0.008589114804967959
0.06514810324371885
0.0043758381982844435
-0.0063247228285288155
0.03276027568045931
0.040860868294016396
-0.030760418813977793
0.01122311788945144
-0.022002896467632576
0.0464192015440887
-0.06483679163897471
0.015374918889305946
0.03651198342101212
-0.03880098918110411
-0.04011599723440863
-0.0210844036882054
-0.05725955317328705
0.016132055581787885
-0.015310469856788057
0.013666001673192325
0.04614741180008713
-0.05016850676650314
-0.00023505944991321427
-0.017661012022523143
-0.007931669946443159
-0.020391578199167322
0.0012206580090622246
0.06938344231698716
-0.01364138416801659
-0.07476884713862643
-0.0026813710224833968
-0.028926582210733263
-0.03236824392109607
-0.033062764787527725
0.04873776617062863
-0.01394079481036656
-0.03128713674506384
-0.034715645965887935
-0.04089204197764963
-0.03668939374915704
0.16086777710393468
0.05599296521471108
0.1269405213045923
0.17632043333827396
-0.07534036207849781
0.0034781366824986983
-0.05399992178265985
-0.026072256273052728
0.01815025187980825
0.016427040422915658
-0.021897615348980253
0.016279985880612947
-0.01944797951083825
0.07324183284425048
-0.002065144028386038
-0.008583649535677796
0.027589170350328235
-0.026172465419747788
-0.03640471504544448
-0.0660534937451543
-0.014774816575475764
-0.02985820692387075
-0.011678684880884428
0.010692651401286947
0.12882416307308822
0.04133963590666549
-0.01868441977718815
-0.03165533294745808
-0.02410837873030625
-0.033472783312891295
0.015434464046627067
-0.08855963288419254
0.0026904689342073995
0.08198638334948646
-0.03582557633441009
-0.03310233717561916
-0.027979950817048325
0.025585266977579957
0.004358105214447116
-0.004172625440636925
-0.00856856888931834
-0.07861494673045413
0.02807468958560977
0.05662266789128669
-0.007543926859075566
0.03707997103868896
0.0554592700279076
0.0042350021026675184
-0.027147111161669082
-0.02074241843915754
0.005247049704449638
0.030925249961552582
0.041519749439638765
-0.016830683167355462
-0.03639073929777708
0.0006430969911171363
0.026306080163099897
-0.03947030164489932
0.03545735707076632
0.04960356796133395
0.053446456923570876
0.05332055693501132
-0.12059725841086212
0.023198562890824666
0.010396233236764606
0.04376276372115477
0.013361397758035081
0.00598232579802038
0.022313091928535665
-0.010628535337384153
-0.21175197087159575
-0.023362248281483942
0.008559416383325075
-0.007545268611111201
-0.02161097217012769
0.019885653488303665
0.005310604167819939
-0.01658345836571552
-0.023311825216765232
0.02003161712048691
-0.011319247430838246
0.026232854123867517
0.05762398118245491
0.011294361914497423
-0.026574014717921295
-0.011041789591454456
-0.03531118592060891
-0.03722804357640647
0.012223756056743293
0.01955887516324405
0.0731159285305829
0.0637349422109824
0.03778519478545651
0.004180771097774771
-0.10216733531738684
-0.10246509000712128
0.024381969998754194
-0.007135462766009795
0.010256553680066208
0.001902659022180724
-0.04472900961125858
-0.022896280914793912
0.015001957961647888
-0.0014987131224383395
-0.006959125349519741
-0.00011494313875873423
-0.00404498477068329
0.03364036989794058
0.0044588480331552065
0.04878271337730502
0.06138080003951122
0.03246589889939005
0.03678070680146029
-0.03997037082142592
0.07889822844856993
-0.1334173648755316
-0.11893633868599632
-0.1329911703847386
-0.10957116390072937
0.018553518985047583
-0.013266503783760089
-0.025352413573667923
0.0474453663429745
0.12331150434133936
-0.014893083785077255
0.0015983669687717526
-0.023871400166631054
0.19250291032526415
0.0725537467131335
-0.06398052382239168
-0.008643544795338515
-0.04136465569072188
0.12042759284742728
0.1736291647341064
-0.002974935963315663
-0.012076844508950246
0.0029693260917367037
-0.20677228957115343
-0.10610754309663871
0.0991811001110224
0.023205978907833547
0.0026092283315517
0.0037322543915740683
-0.008952433608697553
0.005686559506683112
0.014099577081735776
-0.021666457842662967
-0.012103586392607705
0.02488732257040854
-0.009113707897157352
-0.046588546629751454
-0.017650725849953863
0.030903091465590112
0.0369318338934011
-0.027538995298642982
0.001148556504995529
0.016348770450428395
-0.03865033131077127
0.0094749843145026
-0.02616498927785252
-0.016976202785803765
0.0022880507274193928
0.0008171624928480582
0.00997901184778459
-0.016067529943383105
-0.019668260406632453
-0.020440871406915355
-0.010875720919905992
-0.03944779082497078
0.022657586926230332
0.06512588523304771
-0.036220920175749134
0.01822050640303255
0.060283582186262556
0.025324194822389852
0.12021996436787857
-0.0119229054518572
-0.03223555260894036
-0.021742176664283328
-0.004950183576920599
0.0028434328649882636
-0.061366680984075786
-0.030204784670214938
-0.019691537479963394
0.1955535553301751
0.05257727970481039
-0.03903227272693024
0.0401001129822564
-0.008411420574056727
0.015927239435615966
-0.007859111268194142
-0.010296995387568779
-0.004632116467782989
0.03915992355719422
0.05498858461560328
-0.12228117693440198
-0.08167131605871018
0.06459705339015553
-0.002156236417300024
0.003159439682962439
-0.002202050233169711
-0.018117314786070052
-0.04075215095362324
-0.02793554594579005
0.00992149135746468
0.05547330795806549
0.0790771344874061
-0.13843669269690137
-0.07651778499543319
0.012528775357504135
-0.008989750253754638
0.032433579724254924
0.006526132935705338
0.02919285112119036
0.009137609524332693
0.06007242283431453
-0.03544844430756298
-0.261971516233973
0.08254862361884861
0.06378710526338008
-0.021804522179662347
-0.03615657317091616
0.002875267657127779
-0.005270628120967575
0.02845321960394137
0.02096631829272923
-0.012330931597279991
0.03416678998937638
-0.011246859698382277
0.003828837760954993
-0.06394920368225074
-0.005148557121398532
-0.008696424276672297
0.0029216825341224504
0.031842966272590374
0.03654481549294939
0.008020766613812194
0.017819158076575293
-0.01829039525806167
-0.013467733318218598
-0.05124729376096293
-0.0038999895127317156
-0.04233844079892991
-0.05904066929629391
0.019929822842425508
-0.02444148611077323
-0.011247281167145412
0.1017778196467966
0.04571545777742955
0.003648672025132354
0.014310847533560163
-0.002591339489025113
0.0707482668945979
0.018913512959865233
-0.04626599850310439
-0.03216725206427621
0.0046920305638794985
0.002988303611184486
-0.012037407311657975
-0.05538598650809447
0.058359431081965514
0.07788310370939353
-0.018441120312771835
-0.017345003066226314
-0.03211674086237706
0.06590344643182433
-0.018887768131883625
-0.024718519401427632
0.016998262193954696
0.004141078163465796
0.02642653885023418
0.03818950705980806
-0.03500866032163002
-0.012055237209193787
-0.00012040374276979473
0.035603713745199064
0.023607745523466013
0.019073559513225674
-0.05293766778945357
-0.016910354188844862
0.009880584644407832
0.04758679032502918
0.00587423626433692
-0.0034432607368000377
0.01024581141796474
0.009183441818110646
0.0018149198058602341
-0.008704070929486375
-0.03890000184448773
0.009019842307953477
0.006962221538656526
-0.01311384219674647
-0.009040000376825237
0.020123109516405398
0.002197812554925505
0.005483271570696685
0.019963910431040177
0.06784863834522355
0.014065937024847456
0.013649110688143723
-0.11134046280040484
-0.017319124826641347
0.01125484156078414
-0.045070584782920586
0.011988465194588802
-0.001561160331652309
-0.0009705295521663337
-0.01234923063038704
0.006929502714381332
0.00932865574046056
0.034644405440784815
-0.038533631555902385
-0.19233682308823655
0.04021232313854939
0.03009011461390947
0.004071187226385812
-0.011207397044157134
0.0055052954879863565
-0.0025945022081386927
0.014469506568849226
0.02065909898586013
0.014455499912856508
-0.013339445713435847
-0.002946082675821926
0.0297574328324242
0.02421630450001173
-0.007662413554918539
0.0471062600828286
0.022837325361791512
0.0022972162464666443
-0.013126394151994354
0.04347595860445652
-0.005287986485561168
-0.012061949077529562
-0.15115733588519548
-0.04475509676110062
0.04869852052533
-0.013214267440538706
0.06400483845710388
0.011512452012701081
-0.022288623793588883
-0.026510961721490086
-0.004216964339414962
0.032175480381652015
0.039672495252845955
-0.08385744879602135
-0.05449565058125207
0.029210257783878785
-0.07855161855585403
0.007527524835742776
0.003298046449342792
-0.013376125196371522
0.04355471602530144
-0.015157282565293775
-0.024678318660094352
-0.009370449445869273
-0.04054266571905322
-0.007801484197774635
0.01257499198112515
0.014729346707051439
0.012908817784506178
-0.021296996470224778
0.020359904370766187
0.015819855579081794
-0.004787492181578298
0.040932722392053277
0.038822250660504695
0.05091682191290878
-0.01649954997658653
0.0018576078684093133
-0.09204138418377407
0.1437088903659114
0.17455684024938892
-0.0536324892527299
-0.051144397309951545
0.0032048106749564594
0.14475530539636502
0.019261800606745462
0.006776306553691918
0.010002105963119437
-0.028836701633423716
0.009178615098309757
0.005041660299907354
0.02444252306888316
-0.11336967676445252
-0.23639557996007826
0.02723941332954014
-0.0006155650524909089
0.036732515692047135
0.025826085107105018
0.024183430055016813
0.024133857032251696
-0.027897586408325722
0.04188440109532385
0.022630435605764578
-0.03833337557232587
-0.038631058679032326
-0.008822445732638982
0.1087950287751601
-0.02669789684390559
0.019783005960436216
0.03189785304926716
-0.03529084689029929
-0.01839549936271489
0.004383123420528239
-0.006661328220958612
0.03312264975179399
0.01178727974772839
-0.051553034463490896
0.0163120632894024
-0.05532026762281285
-0.06034856780196554
-0.018504309823004203
0.02084505003832224
0.01597637351414505
-0.008678826554455189
-0.001979248042151898
-0.015004590346223897
0.02780058286527249
0.01217331189278764
0.010408470591476338
0.007118741882695669
0.025264650043106355
-0.018535168793181605
-0.03938887804176064
0.09169148122286472
-0.13476506895111862
-0.13066699826621506
0.03437355410072703
-0.017774814270170886
0.04036506350877791
-0.019903676656169635
-0.013085529272032029
0.010479382789847735
0.01729725924369172
0.017798671069417238
0.014479696713241948
0.00602668536851095
0.04947084780482416
-0.009948746025959217
0.019301494395987478
0.013305442140432916
0.013478879297599902
-0.03684631013770091
-0.026895902512138064
-0.0053971342084873294
0.056861177633135175
0.06979239055553958
0.04947700184589609
0.04396576726273166
-0.0586402966778769
-0.02599341440652288
-0.03210555426729542
-0.029310239923692073
0.05900035508279249
0.029069188876462065
-0.004239951987952778
0.005495103800624789
-0.032999625422652716
-0.021423540673442435
-0.010846139353940182
-0.02453940217164154
0.012108304616517572
0.04527707813728059
-0.0396946109571534
-0.032450242294708394
0.05086956467781253
0.0330754747528562
0.05655517728906744
0.016301831640507736
0.008657459721990439
0.010632858187427936
0.012966047333316907
0.01375867922866966
0.006607091046495408
-0.039457714068751676
-0.07572638721448088
-0.004536587704860971
0.0003679322804260908
0.030403884741680987
0.015223231607780493
0.06114357357963132
-0.05188574237808194
-0.14467544058846538
0.005381868585553095
0.03398208229702742
-0.016481748476253253
0.04085388335080799
0.007378627997904486
0.016842407426402438
-0.20928530335131534
-0.13866674732544965
0.05373853801454434
0.010964258437240111
0.007830554466058012
-0.011656693819959183
0.07598468336333025
0.0131778908229659
-0.041305781378624826
-0.08948725682561047
-0.0194901709355097
0.0429706962141393
-0.0009501607369789282
0.008317379089791976
-0.004303147078939983
0.005584442590602788
0.23097780076607777
0.05782149918857152
-0.034802580530331466
0.011615428715893269
-0.00869444251806363
0.014549792446446065
0.08248562460315279
-0.021692731569048
-0.030855997206396542
0.0012763300519859672
0.017280079647371435
-0.03495301219360066
0.07879726447293042
-0.024684194194147437
0.008675115796150728
0.010119689136511198
-0.022856591498347734
-0.003935684933075212
-0.03430286171925772
0.00030266770413108954
0.0010750974825756167
-0.02320671062482152
-0.07746769482314239
-0.00896584804979468
0.002312111190536189
0.036975061235907034
0.0033454240882859697
-0.009043246627876549
0.001000037465147186
-0.014616105859865993
0.009573773110364852
0.01981175020853802
0.01400456585172749
0.014938615233870089
0.04486606523421644
-0.05780569772229398
-0.06010748853870794
0.029487838651636306
0.005515353113659754
-0.0245551197839504
0.013608244121662831
0.020883045321947236
-0.041690183706231135
-0.01654009876448266
0.010008408431022865
-0.009270772734893531
0.0032126196412423924
0.1317311392243282
-0.007749758285063936
0.04600458575300057
0.005505713216635062
-0.10868396663499927
-0.035495361304219715
0.005874298467575659
-0.08029361497356781
0.06124167285644836
0.02477980637867616
-0.012380192126165758
-0.01817841886805991
-0.028534162024749028
-0.011886436453397878
-0.008025770400995651
-0.007901653644890943
0.003019797970103689
0.0019076789962788822
0.04055678350582315
-0.026338211629642182
-0.054813699752492236
0.027210348893578
-0.000321094013046603
-0.023365340871405082
0.01717455427782249
0.04374712374549514
0.02924526345999859
0.0007862831875568689
0.035474491482218706
0.027881300718761815
-0.019458234188110966
0.0028741318897506822
0.008522841783216266
-0.01811806080047198
0.01880130969271295
0.007148069710642777
-0.028450088603294274
0.021806343655722274
0.0005692257358583864
0.007427082719077481
0.05022670261509581
0.04160588298019857
-0.056946991236716635
-0.012791096739179672
0.02071248649716099
0.011942546937764125
-0.021823737294966908
-0.026582136937171055
0.026743448971494773
0.009311977944636686
-0.015476364752222827
-0.013166013033645828
0.03534092735893917
-0.0006109810684602451
-0.02005796096936776
-0.007109764854107991
0.013276885237101717
0.011219579640554297
-0.014670986071014207
-0.018761783762224662
0.04279114906504216
0.10902150263505153
-0.017607552584935383
-0.03440793626518092
-0.08433104189832837
-0.04846989262835879
0.0074392138375405205
0.03319158889964697
-0.024114440938271392
-0.020794212972838552
-0.016466027963729753
-0.0024200757307038896
-0.014719202486007745
-0.04018195832533639
0.009550600265363985
-0.03536210752120209
0.015139750767983564
-0.029574203389399145
0.015384104181117682
0.0067140151406989415
-0.00448237024307225
0.003105923640460665
0.0008131282216898208
-0.015254442661595462
-0.024421545153194585
0.0009101923885915264
0.006997488415269517
0.020253807511494016
0.007997263478758166
-0.0014675985339139008
0.0079909158853851
0.032730964196795234
-0.024476269997424204
-0.01792986242159435
-0.013554578758507425
0.06601611848235847
-0.019702466976700632
-0.017068933291578325
-0.03906058069721971
0.01746533648370949
0.04033752057477189
0.00401091303422371
0.042786269286158515
0.020427667297244198
-0.0009713823519065318
-0.042618544510754364
0.003725338777514536
0.026972540749219294
-0.02550155719424076
-0.0017124350182085126
0.017219486478835484
-0.036938902912218206
0.06019110802630881
0.06205692688711697
-0.016567617941117965
0.010380751114241858
0.1285331962992371
-0.000521136209102211
0.03465421800233659
-0.03284782892986214
-0.12740361571372374
-0.020668925617957284
-0.0035628054816274467
-0.002511282268505761
-0.0014619833377090407
0.028657231915656743
-0.005518196079223017
-0.02088608103825809
0.05595405665230421
-0.011307797675475389
0.003353980363053892
0.06943695922433243
0.07522521107752381
-0.03385691732702199
-0.040498730289026966
-0.06424062014969786
-0.0705382275269078
-0.019226197433369195
0.012068867763808833
-0.11980674298272771
-0.06410590767303674
0.010326833489928617
0.02631851295842246
0.06699815211102807
0.01620538881174626
0.015893898382659567
0.006254285379699576
0.023170650257078273
0.0007159503644423136
-0.00922390523125724
-0.04856117424941182
0.02361410414429219
0.011528096086889298
-0.011942330477245043
0.003105048783183568
0.016668096233111072
0.029373093955632132
0.01932917688196415
0.006687637650802241
-0.030815099774688732
0.018564203041270846
0.028604825653644746
-0.0417221990748818
-0.02587251834693237
-0.04589947574665185
0.007883312095678531
-0.00428806233641912
-0.004063804235791589
-0.008195913273669463
0.010962031071869292
-0.0006155399756212243
0.011179505844771903
-0.008667743130207224
-0.002309603242635809
0.008206516476067006
0.022534491644560416
-0.011059906523631698
-0.0028512541509177983
0.014125722147780162
-0.007396093396151944
-0.01912554620300455
-0.0335358910927969
-0.019496936094602735
-0.0049975151324194575
0.0037181172874712924
-0.04460583753228145
-0.012992932797713033
0.014077333373490637
-0.018016167292565537
-0.014101864311239453
0.1674105810305408
0.05759056381964954
-0.012439661266276499
0.02477468617717615
-0.003627809063601984
0.005069453266251477
-0.027573578784268228
-0.00786430055599372
0.011821638184580789
0.020151081832699706
0.005686940476208583
-0.010797263514927519
-0.002365365091183184
0.007482166334967531
-0.010989281027099045
0.013477560894925824
-0.0021188502343386247
-0.029944596398663346
0.011230728339860102
-0.002514767009720726
0.009983004448819175
-0.011262270028256903
-0.002836873855051818
-0.1773764488750914
-0.011353567586575755
0.015614041165469748
-0.02137140593232046
0.12575657872181692
0.04085234621718781
0.02264852729227933
0.022085236092270755
-0.11059512659348614
-0.02005362157015316
0.12999337167177613
-0.02470284257616757
-0.027812293049282302
0.006834835070085709
-0.03652724009294408
-0.06974913639179153
-0.021370660559852976
0.001679979081706774
0.10173315053512359
0.08165959136052263
-0.006477954692128766
0.018740804401615713
0.02567039544220777
-0.03280024249522254
0.037374988390316465
-0.011109410500466651
-0.021367070232239268
-0.0025074772627502115
0.02056819923734765
-0.026371212185470214
-0.0053856236433084265
0.001442863448526427
0.032227713610011456
0.0017389604872018352
0.027037715258630152
0.008030079730591366
-0.014224152338247939
-0.00027991806932431884
0.04939733719982716
0.014785371593205024
-0.014832016923626474
-0.03105489596438214
-0.043659207507575445
-0.036700101152189406
0.0373316605848361
0.022662625078000098
-0.040618674484910494
-0.007887354395915215
0.01447103565739598
-0.04409773607461932
-0.027790844682327433
0.04783331867965711
-0.11311802562699293
-0.09808412549490512
0.02786366983702694
-0.0767186341037819
0.07604718229139928
0.043466934197142384
-0.01582819481363473
0.016962765410980813
0.0023056306924051895
-0.015056668503574603
0.022076289915111368
0.012706688583913118
-0.007083526025194239
-0.026889920853494044
0.016639593344785077
0.05781420823272241
-0.01575556299118722
0.00884554223811174
0.034130193825471465
-0.03632582148696621
-0.07802401258549202
0.03688526551305134
-0.02329143909697081
0.021082721090271244
0.01192344123861494
-0.013475871488676303
-0.025662105784213768
0.015500483511423614
-0.039866365728838664
-0.011982868941615188
0.10875039046189662
0.04405701037133433
0.03623795978037235
-0.0010530501492642414
-0.05252817342813062
0.03667182901084292
-0.035248848552946604
-0.01591841169427119
-0.02078171954633047
0.16608296940041395
-0.015903868747416405
-0.09840394286872219
0.023006442081393682
-0.0470540923156521
0.028825900391502852
0.012764797332660458
-0.01949120176930654
-0.050367105042973405
-0.01635639094795295
-0.01491481776486189
0.03136779118903336
0.18092496235159647
0.02490703275729873
-0.044356555017988054
-0.011562862757985432
-0.025862436789826356
0.013513940192654915
-0.015282146601850247
0.02216993982868153
0.012049709401874125
0.004733967628521262
-0.02624418483034529
0.005427280258833706
-0.020687256989893855
-0.049882759921299466
-0.005546334554696245
0.022323778184613223
0.0029005970917983454
-0.06483868376337207
0.028478583523996594
0.004681397332948696
-0.038469617315545344
0.0048906268687467815
-0.007412947963576448
-0.0011878936939220476
-0.04146382700378503
-0.021027884348117393
0.010552543805572056
0.006838132358494061
-0.07610162674450036
-0.03723140528990896
0.011960296264863458
0.006294384489296928
0.024506894565089397
-0.004279494767460622
-0.0112685069983378
0.015506226218658548
0.04515360615855107
0.02259890302000546
0.014178071101521672
0.0022226047290399213
-0.0038329491110732235
0.04136647395195284
-0.013419870184502872
-0.0020298566042603896
0.005799523877656422
0.02003598475307201
0.018578797594700384
-0.020489372500386117
-0.0006528844071264941
0.07769466402293103
0.06909939635983862
-0.03522594036230277
-0.01867577839562905
0.029175547772999764
-0.015701525213373375
-0.02770620001253356
-0.022851433758892904
-0.01850941420400693
-0.0002482248213839491
-0.009569397090091398
0.013873763300484511
0.05513937990652733
-0.022793843994917747
-0.06462426946795839
0.015935186569267686
-0.0007449419117474118
-0.04143250392194599
0.009410764641850238
-0.025428011230410042
0.014110019871422302
-0.016750089432450772
0.01340415032266695
0.07743154587019783
0.047031004693060666
-0.006641373171146919
0.02212597856915961
-0.057938064433099956
-0.037501798579292284
0.010914401310749762
0.020211370217354634
-0.013432952109356288
-0.021494846747656213
0.013885927165395818
0.022925153217598353
-0.01758592129057654
-0.03246763852610026
0.02107779597376183
-0.000671757737623535
0.018838514357616465
0.030124507654785637
-0.015340091770917323
-0.04598576805395746
0.03299888419358206
-0.043311326822605564
0.013975022743894257
0.022590104564790058
-0.012744259798303452
