0
0.02500555696831253
0.026246848715711542
-0.021864540245908476
-0.025616988175708864
0.0019655575019937206
-0.007262889882533822
0.0035576277890582444
-0.021617913934423773
0.01842416662861217
-0.043665684923338936
0.04091079021525084
0.13818404359706551
0.0283866023815888
-0.02940662863316502
-0.013607283899211946
0.002973869716337904
-0.01134102826159515
-0.03867100556451957
0.03238940427238894
0.14779613489487461
-0.009513518252804916
-0.04961394719702217
-0.01682146632451599
0.00520286930027139
-0.02025141371534946
-0.05368826898029354
-0.045852999631859216
-0.014603669630807028
0.10470761477464098
-0.02927717764988918
0.040620451905354016
0.04376077916537982
0.032228875725125165
-0.0034952570699897166
0.014808771336135297
-0.01748604653622552
0.007553090106960013
0.0381937193838836
-0.02426408985534797
0.007744877099358174
-0.05459269931359388
0.016942833353678542
-0.03014185437222573
0.05880067693923987
0.014112151099034603
0.011466583023129131
0.026869199278256675
-0.007462697855420788
0.07439705338585313
-0.04142399753015627
-0.008351565037723241
-0.010147352090615226
-0.03769814959020032
-0.04228806636240568
-0.02950435346411621
-0.01899944935497178
0.009833805942033218
0.007556061171594419
-0.05196858266416496
-0.09360297051894605
0.01652318739482855
-0.01699522894282939
0.04571470515707464
0.005001142752208894
0.012298795331949051
0.01221384907551291
-0.025750373496984145
0.026876600450076442
-0.0016523785943632669
0.00953379697096936
-0.020402642090190416
-0.03104976319511106
0.012766416476848211
-0.0032690290740779128
0.029996354620383255
0.022521496361555822
0.030559178294810755
0.05547827838895634
0.012832918150945772
-0.004247547123774553
-0.04653150446945378
0.017484538352974845
0.034270989269189464
-0.1858846855805862
-0.0607060742262583
0.014138677241484083
0.01613564699132592
0.011131164221219254
-0.001338344959867889
-0.0053381110197425535
-0.0011178074649687863
-0.01155253450835396
-0.018729640820059457
-0.0075141862484615655
-0.009696392360617232
-0.018014132748721868
0.01740001405828125
-0.005647553607239109
0.0036690406406279033
0.0020143103329776932
0.09220193997781374
0.057233281319793675
-0.013835194788687583
0.01720040235589431
-0.007597506886050354
0.0152587703551752
-0.010701725921930179
0.011077045777934188
0.007856935269470754
-0.0025887384655101688
-0.01348931387641544
-0.0019465244345299717
-0.0022297153892825205
-0.04480439058806353
-0.018614566705240174
-0.010933661130781716
-0.04037064983023473
0.05735990415874378
0.06842197973354029
-0.021776294310742243
-0.043611102958266534
0.12638798943448404
0.09135053153302393
-0.06445385439076659
0.0644063774834004
0.04735977299776733
-0.06606108462862555
-0.095417056401253
0.0033463252890302154
0.017766174026100243
-0.02501416791698001
-0.02066729165804998
-0.022078822165234477
0.03481911902167884
-0.0021720003512301143
-0.013652713780154185
-0.010741791766730619
0.01934946044177977
0.027900323504986453
0.03641406035142412
0.02342748124345782
0.006659513619547251
0.035868008217988696
-0.004594688150582526
-0.021983393264502257
-0.004132002727282986
0.010915506681984365
-0.057262864281868574
-0.05270375178479173
0.023207965723517562
-0.00010189815734277723
-0.050350788192228824
-0.030861567438296125
-0.025044214242219913
0.020956824141556515
0.06411345165713424
0.01849416358666866
-0.03816488134426106
0.02670816809718502
0.036089294539655
0.007852126951067247
-0.0015560955436216915
-0.04526579307648123
-0.06159318803562016
-0.015329183302560891
0.008632229446650003
0.03894714457656882
0.007375017325686621
0.023147730982710637
0.03116877805020221
0.04340963257919827
-0.05028690378697938
-0.021884456190582775
0.008383018015635013
-0.0010287752745288402
0.010052656855650448
-0.028671059878648052
-0.03435564572099916
-0.00042312723478649404
0.01671297645783156
-0.01597774465174216
0.011818288515659718
-0.005900215978825009
0.00681121672511603
-0.029463573254300553
0.013145269006273351
-0.004923296473130913
0.016295535760546716
-0.014568717360043917
-0.1007799038675621
0.028070274678351173
-0.005969055619126476
0.009444746624071567
0.024766777101878242
-0.014038176185553914
0.039553667369712386
0.08221658409010735
-0.01804208166144113
-0.0336171889374791
0.0014129593784997425
0.002856995764007656
0.0073856986983109755
-0.01804759149669598
0.056071858369280685
0.04865278023097451
0.004633658779611089
-0.07539505837056697
-0.07729611346045243
-0.0030351259767036095
-0.03214486374770813
-0.01126245038741929
0.009508135099572702
0.08319381267033575
-0.022726312299050276
0.06558457774710194
0.05028880767717349
-0.015754568095198526
0.01821867078001131
0.00721738919032691
-0.004077967800119047
-0.02354387195057037
0.009685729840387949
-0.0192584471753054
-0.009491183237615199
-0.014703528338311685
0.022902067410236867
0.008521084201818893
0.04375137897466072
0.013942806175524304
-0.05374431734568953
-0.03119484205441993
-0.042568616626134356
-0.05219695948551114
-0.03710815873145194
0.010624908861052466
-0.034522051192901415
0.0014618060273091527
-0.016390365699165348
0.02600846790405261
-0.028766188614830688
0.022712078981129934
0.05192896848634171
0.035016442367997884
0.02427760610851066
-0.02281695881747323
0.036471096240142255
0.029682026129199943
-0.02220624043130159
0.01829373016108847
-0.004013777625109104
-0.006925575244319101
0.07379260891138652
0.021222002129669612
-0.010187022917196496
-0.03278366620614003
-0.1040342702193133
-0.018364376790763404
-0.012958439900494206
0.012687129671931403
-0.03665261332262793
-0.00909631871975379
-0.0020960117503908346
-0.012326844410786308
-0.032521948487467214
0.038281780178506454
-0.006229641722733437
0.07800049726161871
0.07252069596869035
-0.02848895963668846
0.024800239629774925
-0.010409252555449113
-0.031400266158779847
0.0355913171435347
0.09657757246367296
-0.031102059241852453
-0.034384132537157414
0.035171875707306094
0.02978607423302281
0.009044928345289789
-0.06831725107726831
-0.04996701560873337
0.00750546094885591
-0.030988744531482558
0.022454182217014756
0.0014169779113811331
0.006479093918055178
-0.04038050338393716
-0.05851718607944028
0.029818626793421926
-0.010553045311408767
-0.020868664594879325
0.02905219253349835
-0.009147909813987167
0.011080448682403857
0.000695204650945088
0.0019750297566010107
0.038093298115514776
0.06139669233534018
-0.056753648034037533
-0.06702819835651401
0.021415786757369024
0.05165737574939942
0.014956132447310339
0.011840796835164707
0.04918966997567497
0.01024982836756362
-0.001082738095057035
0.00026848058893195537
0.033912810218599765
0.011307858755839853
0.015728009257275053
-0.005494769129714324
0.015797517183283784
-0.08208740002808496
-0.014442032036999505
-0.007910396038484346
0.0010145813405122383
-0.029459952730541583
-0.01912422314754023
-0.0196356281879866
0.00504512890413696
0.006065388526140162
0.012334794937157214
0.019118191969688465
-0.028159556013270484
0.035479860248176495
0.052164010128169486
0.03130105509753425
-0.09546330012449054
-0.0976621184671863
0.03440450549377189
-0.03968535144258814
0.016221288353526125
-0.019841387765841233
-0.01194180955709481
-0.03984146160094097
0.025284050751253385
0.026238103475647076
-0.003924514555348697
0.004426416890806696
0.03379176830653278
-0.034763906644604034
-0.026804285416067775
0.01434755443786685
0.05920725180179285
-0.004458598569057479
0.00400122393250004
-0.050946595908043096
0.07621053686766457
0.09460535015134357
0.013331040355998061
0.03480358118043615
0.020527108440350328
-0.023373185345914593
-0.05762003941633461
0.03563460546304665
-0.01372811240518096
-0.017882334229388317
-0.012239168883525478
-0.01633145381302277
0.0033818546509118597
0.038165788915752286
0.046859478469102746
-0.01996273790070604
-0.11551155726555783
-0.03914450308938349
0.005864543486776771
0.03731506854623794
-0.031473908135776385
-0.040288683385132834
-0.004835921596447215
0.016741899692163793
0.01504326773709076
0.028260502061310318
-0.02146731999876456
0.043440041437302596
0.06441338907030966
0.01897033782370875
-0.015118706715419953
-0.02407161744675813
0.0007395201618568442
0.026554855670860716
-0.02437774602863101
-0.06699065876551046
0.018878293478401482
-0.003179090398422803
0.015178061240271361
-0.004928315208376397
0.04494178656529224
-0.05352426713094707
-0.08853697663433932
0.006933773544899066
-0.01838778279347136
0.014512371875835883
-0.001654799841699863
-0.049219740367197264
-0.010117200141088965
-0.03768765931367958
-0.020406618763435053
0.012466238375096937
-0.014640109150412191
-0.028188421726517237
0.0005823148972765148
-0.008007435579843796
-0.016336918402624242
0.04298839422680412
0.006465878773898844
-0.026435276734789938
0.010777199929301425
0.007997280167251127
0.04345298077291695
-0.03069476385738204
0.0017022229480131823
0.0019322085453926884
0.07236223842193816
0.08898935695117645
-0.03013769719693768
-0.01665357502479571
-0.05917091721221539
0.07429306295977235
0.20379733011220127
0.024952481108482284
0.1408346331480639
-0.02727232394501793
0.001174790809151688
0.0059771074438182605
0.001204416556498315
-0.015931403684199465
0.02605289774873869
-0.050412934564817366
-0.07180571590853084
0.01237643483824347
-0.00817900898554988
-0.0386562263044503
-0.023797165229303377
-0.0020847293668455192
-0.022068444932327243
-0.0205866139045105
0.025700703392554553
0.04914285368010741
-0.015778400657448087
-0.005789624268264266
-0.023524399385863922
0.00972808827988428
0.0825584226430721
-0.02037175325643851
0.008723496157175334
-0.06321561755136697
-0.038808926643468376
-0.013236646212466811
-0.00223671189698485
-0.1388372712326334
-0.05408216863035121
0.03726026482084594
0.0198336158283435
0.01842618974215399
-0.0021335108423728173
-0.016218958938739637
0.05858970031820467
0.09146299702383043
-0.044887486715209084
-0.006186544544964443
-0.026989621085823666
0.015438237526379246
-0.01761326170873104
0.0014407913174213356
-0.03074444648730951
0.019296983727144296
0.029377419820802782
0.014177893905659227
-0.07412254146049044
-0.062045898184903324
-0.022939962092976617
0.0044956648506094075
-0.004041515063522906
0.019385913376317798
0.005913477699508076
0.0012239934741818006
-0.01751898376004921
-0.015672936241007785
0.0063058485753434415
0.015967073990587277
0.043426092011150934
0.014748554893995403
0.025313803283437762
-0.0011286912631610303
-0.015063743645873113
0.00013745319943082895
-0.04592698341477367
-0.0075754756545725966
0.001661970508314416
0.0020637531957793573
0.025113728397932404
-0.0027645959994957777
-0.029478528739756513
0.0252609491631372
-0.01470869570071783
0.20641198437894628
0.021823330853012426
-0.12097481185950006
0.012419160589663969
-0.0043961642079570085
0.006185624198000195
-0.0065442070731695666
-0.0018486951863867262
-0.01731311364589615
0.022153466730092063
0.025344864900540512
0.002558431046177374
-0.0077091495279663046
-0.0048134263117831
-0.02162590382786208
-0.014545009843658748
-0.021152951329007814
0.0065689588153604525
0.03813830505410262
0.01469264918975945
0.014564356315104462
-0.042889410877334916
-0.013275553861309408
-0.0017174142627378378
-0.024714847704813348
-0.05488077762896559
0.0016013158468609935
0.14743439743420664
0.06794748197021995
0.0613710954649952
0.08789785763674773
-0.06020261168390324
-0.0553902312529973
-0.11535186103293209
-0.050188188963196274
-0.06576892241219584
-0.10295057628282332
0.1293058024516424
-0.10529348413766823
0.010550336159123454
0.036894391359866135
-0.006538882191797658
0.10126541089972578
-0.012463350214556792
-0.01836625811494892
0.008923590870238956
0.012876523999022388
0.030381787539269685
0.06994806973908495
-0.051552632005496236
-0.02156973413501236
0.0110603802508703
0.021596417520554
-0.02073120716184906
-0.004997179636442361
0.014328579749892358
0.015920775898534825
-0.005048564731117293
0.011169064930673885
-0.007951329539729018
-0.030084497097470707
-0.0017485336237154341
-0.021639137098922363
0.0021667598788599673
-0.017035082524590715
-0.009389269149424654
-0.02190262979489702
-0.010886902899498892
-0.021690917559945656
-0.004436466969639979
-0.018302381720718137
-0.009943569746150118
0.006347312890027231
0.004380528796008559
0.017762537148073018
0.03197407135453796
0.009237998430832122
-0.008294931867341895
0.0077066007628713495
0.062353604677589686
-0.007255808003804674
-0.003598994879486859
0.006251228825933451
0.011034830092525951
-0.025968551455795064
-0.03740010067872724
-0.019533625593483702
-0.007024093441346647
0.03696892806983842
0.0025480323979296354
0.012032747222820479
-0.020276654235740415
-0.02146449425796878
0.0686529741397201
0.0037557911874979795
-0.0593508927285239
0.020999995435772568
-0.01079246733458246
0.007777996587509865
-0.014602742721739188
0.0024733211144241027
-0.008466848948279596
-0.002692554222425676
-0.058158482928917045
0.010393527927657539
0.06703091706868392
0.06342013363398617
-0.002749794365113563
-0.014381343637062118
0.011969483686451106
-0.0003953907588209094
0.02195469016449942
0.011095254089785712
-0.034684852899508734
-0.04050729753844342
-0.008741671451971323
0.015596964399959305
0.020779936745990137
-0.00144154181268835
0.018526650041050044
-0.01483510154152417
-0.03260949561583646
0.005158364928346618
-0.006750658648504967
0.046331061864838374
0.015377686740018203
-0.05502860329227536
-0.02531284733330184
-0.03768580312676127
-0.03408776440987137
0.08531929498744716
0.06693547323248117
-0.040471947468351095
-0.011692634578941387
0.01749945028659038
0.046886241495687396
0.028792958961934467
0.027473754164916868
-0.00834495907980251
-0.008153384062021204
-0.023245529305885734
-0.007574525886454187
0.029135832767542717
0.0029119287993374307
-0.02774043191980792
-0.04026751460200204
-0.032499533881539526
-0.004804260193881752
-0.041660374783331046
-0.015889141635952342
-0.016364112377197607
-0.0032623435490623143
0.0017136541164126072
-0.049023186049655665
0.008191432978689439
0.10079717833054304
0.019939864346952493
0.000304932677451391
0.030088587833509112
-0.04930128878832037
-0.03909339886230757
0.02057197456774718
0.014803116603587008
0.016799860017953555
0.011028723113384804
0.032134084988898866
0.09057515606657802
0.05150042653088436
-0.03363623872506753
-0.052418985777288936
-0.01855530877473901
-0.025562623985378122
0.033782147554153756
0.014506202819932376
0.0011343581329796351
-0.015539515123505838
-0.01417683596999483
0.04308042725601529
0.009819515484552056
0.022631571928501754
-0.14364827587856396
-0.05113439370510641
0.0024609972658288766
-0.02339932795625706
-0.005253093061439901
-0.03904431333391183
0.018523206829120852
0.01777784930919209
-0.009011298902649536
0.04098403505290918
-0.011282771528049306
-0.02323823531092422
0.023654508370864094
0.038640832165924725
-0.011360668506061437
-0.002132336492177312
-0.027650300897097538
0.0038068630203303743
0.03380657164348409
-0.10106387214514863
-0.06780427456681734
0.10441881778214943
0.01246322215654198
-0.02000586965944486
0.00029448096107597115
0.034953578705939035
0.035087576631809496
-0.013199658184255605
0.003951432955020359
-0.001679185898728172
0.025243565346853025
-0.011159730986218776
0.025890122799818224
0.02005329912253182
-0.008684504006454865
0.002229829758481285
-0.022935748253124322
0.003576841079826068
0.04811270822370737
-0.02383880269718729
-0.02134317189956008
-0.019038000475325084
-0.02161254509877944
-0.03723761055596822
0.011242791476854757
0.031016822312856705
0.021470462738779828
-0.021063760669147225
0.00042729604357357993
-0.011473436882270708
0.026931637133290474
0.032583162665599824
-0.008471597937187955
0.04290083168860308
-0.000669473223898889
-0.0018452368952543096
-0.0685152789699728
-0.008332708864417343
-0.005056868706586964
0.0013395209994119684
0.0020221317487177236
-0.010945833312436393
0.10946083740977788
-0.10639517252728593
-0.11852229979138762
0.047283659750679934
-0.003884356058982925
0.08682424426164086
0.14876245897126783
-0.005850362951163965
-0.00390795267438666
-0.016164267696166537
-0.005311872281627359
0.056160966368827246
0.015371981059423868
-0.016778763543433203
-0.003932105467335583
-0.024323379298855984
-0.03123992616164592
0.005328383670088451
-0.03747848897878964
-0.035663081810919886
-0.04374975798870577
0.010010053205661958
-0.005665852243184816
-0.03280095644581927
-0.02592036898860611
-0.023149902933534573
0.016255126476447807
-0.03095789608241874
-0.01666736399900219
-0.015954307129905178
0.011055848005906083
0.1075217093334305
0.018881678312654977
-0.006747311389055124
-0.05472061572605822
0.03346640717529489
0.036955887415916995
-0.05841828907116832
0.0015540220334188625
0.00153989280490735
-0.00422930119946666
0.01563202004195713
-0.024702847267449386
0.014104279320323205
-0.0037696755683363434
0.023148375673194242
0.05699488827116844
-0.011386551701003418
-0.03501291079477673
-0.003618979139148869
-0.01975833768385295
-0.040345194483934026
0.02535538993677893
0.023228187421559635
0.013301040483883683
0.0026786897627400735
0.025549002974843048
-0.030985606421579406
-0.012327520298460334
0.046175777936160144
0.04298405658701822
-0.01519589414084712
-0.0049502522784490395
-0.005244564060790354
0.04760352405527823
0.027501815715919715
0.0355400972135144
0.021904841593557097
0.008085796390164377
-0.019256322374311477
-0.0036805795908595837
-0.011862650665529571
-0.00853050880374409
0.01731821222782956
-0.041175388211002674
0.008362684025700111
-0.019641546584328876
-0.05645812070343814
0.040767761963633284
0.0178722585889607
-0.0389028850077985
0.02718153780398947
0.030993765670492474
-0.041420373903719485
-0.0035352878089877937
-0.01558630002364387
-0.00323175502281951
-0.008585339606405439
-0.013173957421493583
-0.00046700521199944067
0.030975169023108793
0.06379302816319743
-0.02828678044726412
-0.030660265968810836
0.04500875501709188
-0.14281271817902524
-0.09013278368843942
0.015822828494495993
0.0002402378203023395
0.023456874313800224
-0.016683921750141346
0.013235500662572453
0.001209213384715715
0.0303550367239618
0.040718882473299176
0.016871061386771476
-0.07031076547602284
-0.09898856283066555
0.04045642712070627
0.0370508768051717
0.031179002837216235
0.021548419647849953
-0.005151388828769964
0.04590808701881871
0.017944925817301404
0.0014474009185747297
-0.04568988791587766
-0.08146311743675623
0.03157531497310106
-0.0017928863617225177
-0.0046944024084974705
0.049319924699233186
0.11501812161236304
-0.024698783275025605
0.015941298781786004
0.0026122712912629957
-0.002379603911972917
0.020542253385393564
-0.037901425927792436
-0.027045960347787276
-0.05608218064679199
-0.004014259134127766
0.04640193247775371
-0.003951503994555054
0.0006928851687187557
0.015738167804144186
0.012268344777052291
-0.006586174819963988
-0.014390022842999391
0.016715034070909348
-0.03180716336585997
-0.005051706375325176
-0.01308560994607622
-0.001499333776983713
-0.012755018044410744
-0.019000443495548868
-0.0011423200182519198
-0.020717981461376267
-0.012039649567154722
-0.005651295867155425
0.005871424813560495
0.010884340198970624
-0.024516402143204566
0.05661879234312681
0.06559669558072474
-0.03433652246341087
0.01195898718785386
-0.0018906891461404679
-0.009107042191432905
0.025599328866851425
0.10188360782624917
-0.002960018716359013
0.008777965664182317
0.0010585643724713863
0.012151447496720012
-0.011160606322967687
-0.0045170324739169775
0.00018435270331961895
0.011607868364001357
-0.028477399390814916
-0.028761709338189792
0.014328416601612765
0.037408432017312886
-0.013176878492534518
-0.020989719338838312
-0.03140933351605529
-0.007479037626356686
-0.026719484376791364
-0.000992534046476793
-0.011885099834677502
-0.02846463099271259
-0.021864778222176074
-0.008900815645679133
0.02298195309454112
-0.0118455152689273
-0.018244087440838656
-0.03507609943495546
-0.07944648164766976
-0.004819570049326474
-0.015223550497403756
-0.01896105487872443
-0.017355869482631892
-0.00024448440744063906
0.015056575096167117
0.05738030368403384
-0.010720336902461923
0.005488695961810629
-0.00495691584630318
0.1193962618682817
0.009471165799022564
0.0032716479842487644
0.016958721857286956
-0.0020092309430868515
0.04260533736397907
-0.024502671956059777
-0.002258347911662201
-0.026659668853054114
-0.06800987814799415
0.0853762908020688
0.018618935930010724
0.02562675188760414
0.017056328669086882
0.01058644474050554
-0.0002964595420058606
0.004351595585391128
0.017507082890537706
0.019398304487419058
-0.015166458687891083
0.00881783675626665
-0.07158226930937667
-0.03999373889803075
0.0041717219159746795
0.02074714276939935
-0.024818954278618858
-0.08895464711476758
0.08344375160973272
0.04020840649432577
-0.010847623556992283
0.045560500057360974
-0.007237085968192499
-0.006635542387532078
0.015984161420641615
0.070691535447915
-0.09963523870994409
0.007762547246926866
-0.011634312083116447
0.08563642751687399
0.07962870904427972
-0.013617743264287272
-0.01941312630448045
-0.14788751071232728
-0.011093654549744843
-0.01889615366030817
0.06080686673786815
-0.0238279260256737
0.019163648454129992
-0.012665781574750162
0.051091092749611204
-0.026215342989758705
0.019016503925517
0.06455461150374381
0.021245466344326974
-0.025835912877822005
0.02100452323382273
0.04400697743284082
0.03740470675726639
0.04587091389633092
-0.0144094642936742
0.016136161585899905
-0.05722681675198406
0.0011475648126883123
-0.12343309284793516
-0.17847486852787242
-0.04262669501669467
-0.042346192525609026
-0.03970380667708955
-0.003523013482694906
0.041688814690437954
0.026430011286595927
0.030276500089791145
-0.03833747137603256
0.04464718056845622
-0.011908308027252882
0.009329452437364947
0.005387434258426678
0.03423400111536802
0.03597716791792948
0.017795963089634707
0.010653860212483747
0.02305687043160232
-0.1296533467114786
-0.0019990879656806913
0.0442586957799382
0.08030913319944324
0.04939728716769841
0.017455367483358266
-0.05548643976039078
0.0037273935358181076
-0.06904305174009394
-0.017488645556963153
0.01294902600721637
-0.0013658533487685793
0.004237479487246249
-0.0063095609459224095
0.02260015154404254
-0.0007933097343484123
-0.01761788674197557
-0.08281583565118648
-0.005176698976289552
0.00641969698105247
-0.006988821722389564
0.07636449959376841
0.016415240007707308
0.03793871788343616
0.014803440850651077
-0.010192928150258367
-0.016356812955347338
0.022498873511146867
-0.013768224570352818
-0.033732985872134795
-0.024609400566163387
0.00365742864568629
-0.03168364283347962
0.025663955880784215
0.01905546395687291
0.009944041681604603
0.04588966812893417
-0.01931399363504551
-7.714043255499552e-05
-0.003200492535774831
-0.0013960250764169992
0.0888256316324704
0.0010803460873302175
-0.0026664781460480915
-0.00035436425656432303
-0.003484390766096491
0.0216780875096788
-0.06682301527088312
-0.009137384905236063
0.011088789929130408
-0.03731068777687159
0.030774878468108648
0.004662619822914792
-0.015601607901805587
-0.03052041974641049
0.01418335900112415
0.0045446910426026645
0.01103264889849438
-0.0032974446616464504
-0.030662879760159238
0.003489993400836238
0.01422550691286088
0.017856929424590755
-0.007897566329507813
-0.015444753957910232
-0.03159646764797252
-0.020407821100051234
0.08811152460608507
0.027981007079648405
-0.02361040380678429
-0.008520566973614184
0.009264548623603718
-0.08850424820225208
-0.05258573606317859
-0.022319540280885165
0.02362785686870606
-0.0409578595879368
0.04221788663740571
0.024163211715114014
0.028394821650034235
0.01605192546244008
0.009961673426382262
0.0021804844048218352
0.015882237018895764
-0.020496336258321365
-0.02949329216222932
0.037497099055642254
-0.015684902047269883
-0.034304621047468294
0.06823820186655509
0.00478366357950436
0.018797876912865955
-0.02433503914754826
-0.07405562581310134
-0.000998629362860726
-0.009083686987326034
0.03284737381015137
0.24316160753136645
0.09555835681907414
0.10892864117962682
-0.05213282625813097
-0.06237324601491869
-4.245339265551183e-05
-0.04773833085438166
-0.0672546254934247
-0.01933132160928581
-0.027714903594471825
-0.028158552607213005
-0.01277569910516462
-0.062691994069784
-0.03554016198861469
0.026052681336466776
-0.022954001732596874
0.00469106210142163
0.017426025462281915
-0.02125858299676066
0.022016501976661735
0.0022227199515678538
0.05202932044625449
0.06850969377835522
-0.000130620729582316
-0.03799746725013573
0.04467300153720065
-0.018321240889888343
0.007786844526754865
-0.008620517089889205
-0.045660204807729594
-0.07893939924675263
-0.04796396920612681
-0.03460832741600421
-0.01316232672334915
-0.009576770330123387
0.0248815111053906
0.02633164289076115
0.06769413554185044
0.0018886369387409844
-0.0062556638072091015
-0.03728273323139948
0.005579398979337883
-0.026064975797228673
-0.04927100869520052
-0.04478673521016688
-0.0555868995017759
0.015758280124703247
0.17721480220224547
0.11563213287774579
0.004125683739416415
0.03545471788441114
0.025321906187744464
0.006310614644977405
-0.15674620440532377
-0.07556639381780764
-0.026574226089621553
-0.03755793581003632
0.02730718560824714
-0.01863038546993101
0.13084084908514537
0.028213856195120797
-0.033522834868821016
-0.014080851160406305
0.02547166325195424
-0.0022543773996202407
-0.02035556341667158
-0.010918692924870674
-0.008350239128769404
-0.11060431426596092
-0.022508573386855007
-0.001857449362015462
0.03847370195915933
0.062397959494606275
0.04590333663804787
0.014775049147837267
0.0005695930738781976
-0.004936244966662852
-0.054760475035999075
-0.014513701108591178
0.031629705676493626
0.0018721161125800766
0.014076436363764325
0.017181977017458785
-0.030251114289243753
-0.049872780587417315
-0.00045718067331319004
0.02974018975288695
-0.051318481454312684
0.09474003322059238
0.08520252568440799
-0.04044709141914765
0.0012718178286478521
-0.018216446027862068
-0.03285873857375594
0.028057839104631246
0.0030964245316560334
-0.03323165014651728
0.03433085873394702
0.1214218927262214
-0.021624921653575782
0.07520187146016252
-0.019959470676478044
-0.03564498504937161
-0.005297171631182571
-0.02153225876205171
0.02122911896907145
0.03328773154165221
-0.008453858946408162
-0.020237604378382283
0.021846227983566446
-0.005475038046159047
-0.02857124758290845
-0.019586606087291673
0.02232991405585791
0.005348221588439257
0.00305106002082704
-0.013897824229492536
-0.00870462856199621
-0.012071344243677845
0.0024609662595076213
-0.03140819284299801
0.011311800529145563
-0.041110503551376354
-0.0732630695772842
0.07650139064118171
-0.040442922972659306
-0.12018413577074391
-0.01656616875800984
-0.02216147588370051
0.05167363565348843
0.0014752581834089923
-0.0015775193912477426
-0.021121184781234197
0.07466821392674727
0.09707863164993302
-0.03163149101851437
-0.00976263548387104
0.026234242981787025
0.037406652672149585
0.014721146616634482
0.007301332528038197
-0.021074079655828262
-0.022954650931170165
-0.04510357476134496
-0.00863126251640725
-0.06420640423133177
0.057813614775449725
-0.013061641199280567
-0.04556940808438813
0.002025107240955496
-0.04678789281056025
-0.05453368505484446
-0.011882105640999811
0.13952137092854927
-0.02273061026050845
-0.015094649844298905
0.0012342097432744045
-0.022778178713734713
-0.023597324068337682
0.005634252988451427
0.07819963083443487
0.018048481756153544
-0.035111192544415075
0.07137269013599508
0.026629282348863057
-0.02525166424155771
0.04794732963287995
0.018574437301464488
-0.010402632952194298
0.011067225787824285
-0.028111681545353148
-0.05396634368154344
0.0112709939443906
-0.007907909199864668
0.010213601314224337
-0.026978024053931734
0.02631835706226851
0.0244190790134662
-0.021749422981725382
0.05426915582553645
0.0016920264835210825
-0.029482323435429433
-0.02173776900389202
-0.013711317645237444
-0.02147853422248083
0.06471087336928792
-0.04320066778437032
0.012581154965798902
0.02015119063912419
-0.010264199399037274
-0.041188629774470645
0.0687418131972198
0.09698566380807293
-0.028254252942929922
-0.011913889905692738
0.00289486015272822
0.009267458262221029
-0.010214135669598291
-0.019482752238954147
-0.024849484210869903
-0.03364177732274668
-0.018133094061453244
-0.042758791389087905
-0.015037466245685456
-0.10489361821463858
-0.05465954512751657
0.0011253667677180387
-0.0001886523445811575
0.016715482653058545
0.0006628995740985387
0.0592299185959902
0.05595062878723413
-0.008694589418408541
0.09232647497740282
0.11592801764587518
-0.05456832477116936
-0.013702567864183099
-0.0061512946335229475
-0.015346990668281532
-0.010224778081208787
0.0576754592018936
-0.0378299164920779
-0.02443451847405974
-0.006729158629162625
0.012680603100523963
-0.003495729460346055
-0.08562888721944094
-0.00489780582346091
0.05680470334196567
0.01699369239232705
-0.08354693257165485
0.007023018198296757
-0.0337703738211975
-0.005992989394126158
0.15178001992977772
0.08285165355138964
0.05799868768767538
0.009561368444398949
-0.006117851224062816
0.021773676710428135
0.00430978629085868
-0.023899908120669135
0.023826882273830105
0.0022231413471002592
-0.04937388223852717
-0.022773236951517128
-0.017696221494206448
-0.05070606025631501
-0.03785398682599011
-0.031754654497985695
0.011498369587709858
0.020944512230390757
0.00035131475856893063
0.004888505354730555
-0.003653480386271401
-0.02621876328208073
0.004549163715380483
-0.004374502577515128
-0.005742332232615184
-0.010739945830449226
0.032465570188930586
-0.006062407801258835
-0.025022755519191343
-0.0295458918259689
0.01901432210325972
-0.006787235905408077
-0.03432849854011819
-0.011787120748859124
0.015473649481185672
-0.027174155387293966
0.02917980908152423
-0.01115691499500849
0.039144227570753386
-0.10418006586299425
-0.07834115281723741
0.005663671646530555
0.017046773928550016
0.012446220082021392
0.02164737890580828
0.026563553127224335
-0.04090695566039541
0.011451469270894557
0.014401926380497386
-0.007663411464977791
-0.03360881955021763
0.08761200301374719
0.058142995730226514
-0.013601515819374
0.09606653130104043
0.006483307965664958
0.029648373230748832
0.006465113458596709
-0.006339563786480741
0.0249715840930942
-0.0032872543700374316
-0.04156287620607972
0.006517576484232928
-0.026042220558901506
-0.04344985193810484
-0.004202465043776236
0.03037905608682047
-0.06899824987874977
0.07640207837386791
0.05905679689121048
-0.04610327672884533
-0.020298972375750474
0.03476840205362486
0.057043353141109164
0.011022483209348719
-0.021302535500362773
-0.06884192611721023
-0.0829466619207535
-0.02681397837678609
-0.059591998458876555
-0.01155486876519964
-0.005885929543877448
-0.029388263803276637
-0.006552537062876196
0.034415948522109954
-0.07743835546036479
-0.05533473600093265
-0.04235132475056074
-0.0007631811621795438
0.07999493733432853
-0.051001475826548806
0.043856308743516356
0.15960373594571547
0.04435515236122857
0.06100123918380413
0.08676783580543031
-0.031547370695998556
-0.017710068001743382
-0.021751164184982952
-0.02789636312363448
-0.024314668190210928
-0.034394856695476636
-0.029082462766637614
0.019738219926681275
-0.033603067051713356
-0.019422214615915603
0.25627205698238115
0.1490595187484525
-0.0005164039338566925
0.13788159481045725
-0.05472339640098784
-0.04117571505005132
-0.07113743971297519
0.04053413597750563
0.026443767166842946
-0.026365865647506908
-0.04067052231190268
-0.0038879734215400844
-0.02228914241321511
-0.020319761896082825
-0.06301194771196998
-0.04943476162962273
-0.011140230645242227
0.012216765499766405
-0.019403381583022742
-0.023845477570803315
-0.009874989967409977
-0.018866379388835973
-0.006026250014193375
-0.021214185049062133
0.0022158048879563595
0.006030592875574305
-0.019750082608458355
-0.0007261198923289891
-0.01428719467609456
-0.023535104424014526
0.02100425358550296
0.015300909206361128
-0.052955140768579316
-0.010371964687240528
0.02349036459138019
-0.020615650676354597
0.010969121034103366
0.0055546325394484775
0.0130973683585511
0.0058672565372571385
0.013643741221589432
0.020034641566011296
-0.030835039663624237
-0.03798507051647274
