0
0.01621959438029253
0.013112573093073359
0.023679820578442326
0.026673779172070387
0.012062280463310369
-0.0014556790557247192
0.06262281219995103
-0.04778361785744577
-0.1554274323596005
-0.013986489667293212
0.00126929543744085
0.008691402752429557
0.004173896764404582
-0.007111992594524505
-0.03960986593980674
-0.048602503119551534
0.003056589503500109
-0.006288442347925863
-0.02877546550156268
-0.02301739041599033
-0.01489765917599683
0.0520581460275393
0.04964730222479863
-0.030284340902112437
-0.04460609480197837
-0.015084193551161244
0.031810124519936624
0.04008996207657654
-0.01814796857410598
0.03853251977614217
0.016758042087865622
-0.00014568908137425093
-0.01242806528396518
0.08290846177559386
0.025599540721298438
-0.019942901791997723
0.02164224967801001
-0.03580127405666491
-0.01698306037490121
-0.04217674519156836
0.040263834812217104
-0.017179852364147777
0.04657838238108056
-0.02871319280080726
-0.03127756101223382
-0.016281114804029665
-0.1705957617497719
-0.008341031509834352
0.07103490661443843
-0.019157371818652708
0.09906854070966242
0.023869739096260226
0.0031829130868409584
-0.038527381679912646
-0.13287522248753278
-0.020376273162956267
0.053505911031033436
0.06836678301110566
0.04346362367710818
0.020279998662812996
-0.03389488405010367
-0.03070634357922749
-0.000442108566716697
0.010164635763329061
-0.007426490155676327
0.017495345532379882
-0.03055478514954854
-0.01871620649563526
-0.03821446870298527
0.0023684074682301746
0.00702887920209761
-0.0005938805435870831
0.042026554897628576
0.022576632955225252
0.11830199613516512
0.08494080784546626
-0.0711771319472227
0.0034324253930482908
-0.029611448397613118
0.004068888904542017
-0.031593234389872805
-0.038855800689561446
-0.08780875517303008
0.022422231337595293
-0.03393547945156781
0.06921854001787868
0.14756119514723737
-0.007618204597492297
0.028523164999254624
-0.0026016484054806623
-0.005545538779201272
0.0358600235883002
0.03561066967296803
-0.0034353927920995836
0.06552804837477762
0.010833534123545601
-0.04538758833955408
-0.015564270630242317
-0.017307179114949722
0.010241230372855422
-0.012553587679868417
0.004009518592024601
-0.0024733902176430106
-0.01683478533955297
-0.02283929828078351
-0.024163690527606217
-0.04049876495979007
-0.02509268767708491
-0.028347511950002003
-0.0003921562889144342
-0.0013641167891194502
-0.021517183724117556
-0.0076745973774905414
-0.015844564898547988
-0.009467775459893656
-0.05122271155919783
0.035262724411536966
-0.027599152329747578
-0.002782009399689862
0.03508767989061337
-0.039700914704267905
-0.0576453700244174
-0.011802021086895122
-0.005611552903354134
-0.004613555295118719
0.05682102908337618
0.001449835761247691
-0.01008323738263189
-0.015767058665472643
-0.017821255157168578
0.009393041895959393
0.1388553853296165
-0.025156599504484223
-0.007931697337994127
0.049954475295410944
0.0333683968753981
0.005289985730583383
-0.028174465351087065
-0.006636004998399752
0.00618305127825325
0.002277464678288434
-0.0017470156033102934
-0.05253795965956745
-0.02335992821344102
-0.01317717840696521
-0.025394624164094663
-0.046266650573983874
0.09737748161451931
0.0643552324689185
-0.04272264548582083
0.018701149877271582
-0.024979386637430757
-0.011618669143318173
-0.031038189587927305
-0.010865466946981293
-0.004048934451086005
0.005837348788719477
-0.037213380097342104
0.10986554851694215
0.10970551555546955
-0.03534292938241437
-0.00419599365332598
-0.01970234118792443
0.021983790661548125
0.00648362283933873
-0.022678728865696184
0.032755259499911
0.03251199306452169
0.01937677282765255
0.013036300531220023
-0.03265618363577205
0.010217075416437616
0.005295082799772141
-0.11299492858712719
-0.02268486717944247
-0.050593299745874544
0.10645076809425982
0.062418747388114336
-0.12218905503701652
0.0013168379997288249
0.055401074499345365
0.022402822817834574
-0.013098207845983784
-0.019395396024094787
-0.009186492639436805
0.010364449921835097
-0.019966103730478427
-0.005831893278168215
-0.012738691745545835
-0.008202725873645027
0.010841967352653472
0.013804906288018354
-0.006301920783227151
0.026886098021417965
0.02340752688746359
0.004090637131918283
-0.0030575489803623315
-0.009729105303598991
-0.04216344757952608
-0.0327336884144213
-0.027910863732461703
-0.04853497379105912
-0.06132490965069246
0.0030148611962919794
-0.014275723491907089
0.028273196358454555
-0.03131470280988399
0.1371865483650053
0.0708549555834812
-0.005849443450444408
-0.005533480886347557
-0.037880361932834915
-0.003351247093909082
0.0028256812148474797
0.007929985682667765
-0.0027974049472432733
0.007987063704988853
0.027985183515868636
0.042853604638246445
-0.016611616610958647
0.010596897133017884
0.08770895477134186
0.036999882547323774
-0.002002214906752083
-0.023726383915614036
-0.00021506796387526188
0.02366483950179933
-0.016965129919733656
0.0224001323661131
-0.021449611207174115
-0.13082982954278854
0.029058883966417134
0.00166148741741795
-0.04336817567979303
0.041863084678803016
0.005132821716972053
-0.05258586902195393
-0.005227662129049404
0.025214491428052897
-0.031061564854916682
-0.052218551448074274
-0.023109775105512844
-0.011658646803111381
-0.019989584955362332
0.10594649536909961
0.019111539834141076
-0.0763072004192317
0.01564651615691905
-0.0023612320638127077
-0.05160066159746905
0.0451119331794588
0.020138549277412612
-0.010915029489924828
0.04145727377545432
-0.022321630119069083
0.01696142038968817
-0.018567104673249003
0.024092033127305026
-0.1039833714823758
-0.05006735766672027
0.03982867038484336
-0.013229346781195186
0.012115208522090824
-0.0007602653940091904
-0.015631606231328178
0.06518841078103538
0.05532690116754653
-0.02143180537603528
0.03140045556105305
-0.0011871421793674865
0.02366245029622484
-0.026037656404688265
-0.00011625418017482413
-0.0012378955713874538
0.01709969593860566
-0.012041396632068976
-0.00513275833131791
-0.01775260461206488
0.005761539834060331
-0.06973638448130354
-0.038222051305365184
0.012098511904537264
0.0029721297786091195
-0.003154929763150497
-0.037559356679220154
0.028862046378385135
0.002651821074217012
-0.025795044329134858
0.16231459849140614
0.006363004226757262
-0.008527811238889746
0.02735398898631575
-0.01565900365843516
-0.06785404688253421
-0.045933568420754856
0.027023617287412482
0.04551893571639548
0.04348719613687819
-0.031563468599299885
-0.011935937410251464
0.007548122940300432
0.07334099978934552
-0.00020672415977900774
0.05532596005409813
0.03776731300194033
0.025744918672623202
-0.037224495256593396
-0.002919577295631416
-0.01704376910356668
-0.0033628803414908173
0.004647935983428338
-0.07366100114419875
-0.007035444748372758
0.004444233186749189
-0.023704228538676587
-0.02792966325923644
0.032746846361809676
-0.023333560552900205
0.026939011969018663
-0.02101475696054253
0.02585829173501687
0.04672500609078852
-0.00992801724529457
0.024043626245323493
-0.021216745183761848
-0.020322439695714355
-0.024841861963358063
-0.023050140274328456
0.010288561818524626
0.05097792321415512
0.06234528053053404
-9.22143254836889e-05
-0.054702649792084966
-0.01680764821456173
0.03210081212831954
-0.010212514992700029
0.0029973040609447606
0.036391407314511626
-0.08123890712829156
-0.03039941267733348
0.0027677324530729097
0.03264589024302888
-0.026763625947872904
-0.058711277387563265
-0.006072792131505179
0.00015259880136921094
0.04613094295963199
-0.013892956521245696
-0.015867704700346357
0.055836660038800355
-0.02755917933186135
0.0033130705395286075
0.010304729163832033
-0.014908328561506212
-0.049677106027071836
-0.04970755791407012
-0.03193787200105299
0.0070225597802184465
0.017227857522955598
-0.0004092355251481589
-0.00522402210530709
0.04400964729270546
0.012025648748748957
0.048267629476353775
0.10421476090820309
-0.04811962483698948
-0.10106478854920414
0.010828952365218282
-0.0034965223039148466
0.0051558301323045355
-0.010497217589396868
0.04898136638930301
-0.012966550912814801
0.0032571148177015226
0.024555966556617993
0.004067914332201684
-0.04472965515748607
0.00583158598007374
0.01708717851000927
-0.02337054344202928
-0.007858447748386064
-0.013354617878135092
-0.00693950457475243
0.012827806969128745
0.031620678671137076
-0.023089130007505496
-0.014268191081346077
0.022792171872651524
0.019085389911822116
0.012950788208741149
0.03859482492940142
-0.01694264794569636
7.024563504349034e-05
-0.014676044897806632
0.021575164865621853
-0.004470663149827927
-0.016113241149620667
-0.009426764764727421
-0.0008886432615273397
-0.04007616185895037
0.010842185602180402
-0.045130388567920926
0.019018115727584946
0.02151276484525649
-0.03081638377842193
0.004419518592970968
0.048203277156404635
0.013809909536889368
-0.005482416720787536
-0.019236387387617186
-0.0005104884661697335
0.00872675482496369
-0.0684018896676701
-0.02257756158271859
0.04092788468154355
-0.029254925306431673
0.013831535138996105
0.000322226308744221
-0.049720623912225745
-0.0012627924799010048
0.01839767973500795
-0.013762894602362089
0.06462113897659522
0.017310091693062406
0.03904790348339795
0.0297053436650716
-0.021672326671158804
0.031139628000793902
-0.00015508445716291494
0.006061957341128005
0.00873286164283639
-0.006305651899992169
-0.0461488640760263
-0.05713608419518021
0.005388937036105221
-0.005968967230249325
-0.010645573250759448
-0.02695436801170178
-0.03676795617513495
-0.05271521911870683
0.10983840484517393
0.09098277689774228
0.019885366899123676
0.04055148257195929
0.02095714921126917
-0.01091738538628888
-0.00827380906974898
0.01671254583165008
-0.009443220587136657
-0.021529612641696512
-0.014632411606078434
0.003684685346271377
-0.006972112174980125
-0.0049812655648368235
-0.0040893331929519085
-0.028630970383745225
0.0023969149628030855
-0.013372369822981262
-0.027093779571213342
-0.03574085392543656
0.011930175381772802
0.13779415072456522
0.012984267521122465
-0.00670101271723323
-0.017101076496490356
-0.007103801935953032
-0.020065093419245034
-0.007662175412058349
0.00031470378356105827
-0.08196277526146348
0.043359252754083616
0.1134245596182142
0.016893418373078922
0.0008322799618180678
-0.007367383618331933
-0.012268578145107943
-0.007010886084977772
-0.004921276430610734
-0.0465226311114746
-0.07260444994981494
0.025920765939514565
0.0007580015745520086
-0.022692188259800208
-0.02821192100494105
-0.003750744360829282
-0.004553005301880183
0.07952044563201498
0.04278838875868853
0.05729505322563904
-0.012626360544116033
0.053425801962847075
-0.07957103207206914
-0.05718969453094403
0.0660277856141082
0.005771667404647684
-0.03853833217053966
-0.018421965347195916
0.053343140849329944
-0.016327652020339728
-0.022090205313891352
-0.0003934415266025416
0.011173768466476917
-0.027296428860420233
-0.003243555320196139
-0.061503082242757294
-0.03935456157599854
-0.005008272696679454
0.025585950782485434
0.02485421541632018
-0.04557818119344837
-0.064737167767695
0.008721384452666636
0.02478304900793256
0.0019160324307013724
-0.017115289311151725
-0.002927381884006112
-0.016522275568652642
-0.006045444155821034
-0.012078814518293757
0.04086293274536329
-0.02171006163539008
-0.0012296517912801144
0.008997601962754564
-0.0033806222767831916
0.0013811939324799454
-0.006709344845594384
-0.028947893870465077
0.13677355640208147
0.028674358793575945
-0.006939028951156523
0.00491075359237353
-0.0420887557284125
-0.007470481949431737
-0.022277949987040125
-0.012498956946806484
0.03600588839046462
0.029818704534616863
-0.07227109723975303
-0.024864497092412192
-0.020430511665997467
0.047820607573121884
0.12045509351104912
0.00781522064766103
-0.023846648292801774
0.015643618653866737
-0.037543674331930794
-0.006691722572634353
0.033192829109486725
-0.016206386047225036
-0.04272632757389449
-0.01910688096076805
0.01645758736399289
0.06679474931748233
0.005740032116796747
-0.012818984176647044
0.00861995948552622
-0.01940428627819931
-0.019588719238753428
-0.021393195125250068
-0.006577318237358324
-0.03763214007851591
-0.007406834381989578
0.017969694931702335
-0.039685245386740384
0.07192215549176442
0.07218256796597333
0.08674212902418016
9.955895153691415e-05
-0.007780060714250586
-0.033314708417987546
0.0075741019379617506
-0.04604780513217924
0.061247858141045025
0.012420400018112067
-0.04644994291044341
-0.036955939956136566
-0.0796712051787906
0.05809188204305572
0.0028846845449601996
-0.012744946321031323
0.04829109615532104
0.0039546019785698374
-0.004079475532696083
-0.019456497709127843
-0.009847986485239301
0.0034422661339713638
-0.02394448683540638
0.09772265314504157
0.014240616358340888
-0.005963140201411644
-0.0037248466668130566
-0.0038150477099050226
-0.0055405328093839894
0.0004733032089663138
-0.017453122054001645
0.011395473192304845
-0.1577826787343044
-0.037062822524125676
0.00932719738984986
-0.09113834229752726
-0.047437200545490235
0.02686140475575987
0.10877218057018202
-0.014801285892105063
-0.01883971478587553
-0.036860046525033684
0.03874038614710974
0.05647564394886984
-0.04090013394112434
-0.008089628767661533
0.02474555345454213
-0.014463533870248266
0.0739662171202193
0.11519711375128495
0.0036842334675079107
0.05741210833102111
-0.01699470664817051
-0.05150813646754883
0.0036840617699867733
-0.02690557442153059
-0.010488389691132811
0.026582762637939555
-0.03227296506877177
0.0123203002826294
-0.003207750993801245
-0.018372262122395146
-0.02599651924872278
-0.0010240766245733527
-0.002300037096256366
-0.009911333959092189
0.022722180639204902
-0.024405473159270302
0.0479660895693597
-0.044232890665361374
-0.06561544867781455
-0.02795518516181156
0.013458447893655167
0.05660171335035194
0.008992386558495762
-0.013778981428347093
0.03901853508247958
-0.015328671763949402
0.010766051020972847
-0.02219062988810025
-0.0034536908987033072
0.009601435154036293
-0.028041956986097346
-0.010836719524483717
0.00469299552634761
-0.015114942986398235
-0.04194382247380225
-0.008677140039905613
-0.014191812045247805
-0.062166119836224186
0.022308654518271374
-0.02152981104346273
0.0843055508730069
0.12879914407459725
0.04664020750171951
0.04671080401207436
0.027140796652407484
0.0016566528256017467
0.005715167627389566
0.06187238802545405
-0.038462773526662226
-0.1079197762075693
0.013656189092832645
-0.03267250668401631
-0.007729652950483779
-0.028098992947303517
0.11136547547986277
-0.07009916708465928
-0.12463650094874242
0.038050820423012
-0.02412610565329333
0.03081566775867536
-0.04021101548160599
0.005143653315276621
-0.02713328862395091
0.00625839241572816
0.03755654531280062
-0.013572395451140036
-0.03628169747616164
0.014016925783616647
0.1606132987329142
0.016417748585528524
-0.03354670491516969
0.007654525430198744
0.07029625410297888
-0.05750592218227615
-0.030846066410939926
0.023377365841832747
-0.03167820063891748
-0.006355141077286288
0.00030732802360146843
0.0036538174760070456
-0.005733186048955871
-0.03224168200166123
-0.038747581220521535
-0.024861385352332184
0.04525454838244253
0.04203818108144566
0.02324546378160706
0.04294272313341327
-0.08575401186482484
-0.003486135214940784
0.046611846886192805
0.011599878916831811
-0.005089938158202671
0.018459918244338677
-0.009696264063990108
-0.06256277766073516
-0.022851531601692864
0.05623090996743103
-0.01564542297698822
-0.05698274301148574
0.010760244406318132
-0.029713622762762255
-0.038733969283892916
0.015611893263238164
0.04361089044717408
-0.03212222627077295
0.0043995680458978215
0.021950967519822635
-0.0009067185410482775
0.009342538695119675
0.002200188848365643
0.009603587620405005
0.007155128159473524
0.062374466812093625
0.06430421323269876
0.006330859287931349
-0.0011063349278095803
-0.001292600859858439
-0.015538296555423815
-0.0037071755200682884
0.025727121166267623
-0.11516135678178929
-0.10573376988016937
0.06301905269348564
0.026561923133991184
-0.03862859405867514
0.013157570191123132
-0.005874499063229004
0.021507546541430094
-0.017381052976358932
-0.008775693519955616
-0.00380327753807332
0.021724978704788307
0.012294880097267685
-0.0016946692269336182
-0.013419480945134739
0.03883670364534743
-0.006093734101923408
0.01952517909084329
0.026089380917711503
0.01224011743465847
-0.015092899458814882
0.05119507388024816
-9.725048814712416e-05
0.02063645518904433
-0.1516602363048596
-0.10793508400153563
-0.054162255664840696
0.013285623613055365
0.056728348582078585
0.017649502077097083
0.0068527287082052295
0.0018481903715089833
0.053805591559784864
0.0377302207561168
0.02921717193632789
-0.04335167758731493
-0.04182741116566716
-0.03208675714367127
0.009701884660215302
0.007148792706974379
0.04236898046852088
-0.002339600254015417
0.006637412618868638
0.020200180029815787
-0.0018528670968430221
0.002057213986508636
0.013089125203035007
0.012799204621649985
0.12216874214247216
0.06116910560353579
-0.05711560172161603
-0.05734138609608744
-0.027150732853808097
-0.024351887250524642
0.0005285384907949783
-0.01057195210304101
-0.027057175861303295
-0.021542021315244377
0.03008831573237981
-0.010533346231731388
-0.01177223955032947
0.005673037979098866
0.02328776879918281
-0.005666797986113599
0.01974430345241534
0.018304952864967382
-0.00403740826465115
-0.03814984877899157
-0.016270167862451904
0.012629040626004756
0.01279404574862474
-0.0029659091635406043
0.016089904857006593
-0.01553670929135547
-0.011440850501964684
-0.002239707154461153
-0.003994545158040011
0.04736426750267331
0.03645878631355619
-0.03881841274891825
0.013052600777335593
0.02649460678038693
0.01134016965181304
0.0032860086131825386
0.04183793133885335
-0.06124042451455556
-0.04943194368439062
0.030963286287111185
0.01694462207105516
-0.03414074186753359
0.0062029816105534565
0.0033083385619930403
0.009492307555027071
0.051403620303553325
-0.003839230858292762
-0.010464863305364263
-0.015592326190296105
0.019972196379656037
-0.1265845024677353
0.01249691614321467
0.03080215760249031
0.023465134389082754
-0.037501468820175146
-0.17408295607403895
0.06497068945837166
0.017450222244660592
0.006447931439011875
-0.04047237837470535
0.01789521245358735
-0.04126105777223419
0.017901567761394087
0.03975929281260253
-0.01000215488292487
0.00622808271024051
0.0024763127904587575
0.07419094406706059
-0.010886241327263924
-0.017598694689294307
0.008958060512641298
-0.00949269171007114
0.040370125474464454
-0.0067752753418675255
-0.032458497424372505
-0.003599581547759256
0.02035719668793946
-0.004442043404308332
-0.023591061022467042
0.1456969935295816
0.04473776928286758
-0.010771621784975965
0.002360401039939311
-0.01662332047308602
-0.04166511940995463
-0.040189586033702436
0.0038960174966506888
0.0683156802497891
-0.08280820298609326
-0.12384137265296462
-0.0037260313596852754
0.017781616144357876
0.08500771295602227
-0.04290212185676129
0.00606951310032956
0.04687492961924679
0.037966629642908235
-0.032941369344872
0.007065296451546519
0.003440780308858816
0.012461443786049495
-0.202006884018354
0.014301408064837273
0.04247040518330947
0.001237589894463558
0.038288218689204755
0.016087189671584026
0.021235993631247303
0.0008641746248439173
0.02360545104539559
-0.007329485488302712
0.01023581375790406
0.052621396381548384
0.048823957504997975
0.018518405487835295
0.03357582841473671
0.01936565779408934
0.02512523447476266
0.013731692533332682
-0.021851788202968254
-0.014065234569737885
0.03304781748200532
0.014997208616149438
-0.05198062294961197
-0.0039041900773371515
0.013133085133140262
-0.0018115053432735785
-0.017912357696835118
-0.03459064059919399
-0.02189933915389326
-0.03322605338874548
-0.02124218197356181
0.00011713115021092481
-0.13261501922590255
-0.0730637277601346
0.0024142284291641543
-0.02898612142875529
0.04739068780484604
0.043769726536927026
0.009123175842666082
-0.025640478025101384
-0.05782898396985122
-0.03433952743455072
-0.02577612698662291
-0.006005274832778843
-0.020392592584867843
0.011908977055717437
0.028586146475358735
-0.0010800627707767071
0.173882869336984
0.03571954305305184
-0.05014425714137097
0.05115726248575866
0.00900616115825226
-0.020089750563432922
0.029854175050410325
0.03663210008754108
-0.005682408025576818
0.00931845923139387
0.012141000283994246
0.004022623170187712
-0.023805793166568934
-0.0010874755515783581
-0.026904539222044662
0.022680664058623522
0.030968990663872705
0.018514588815327467
-0.00897630603341803
0.002056279733809232
0.01578893661735349
0.021892946550921322
-0.04882521128303888
-0.015382236492450749
-0.026102083489832468
-0.0025559931559260185
0.005009112828055884
-0.025265925178565952
-0.003967557832444731
-0.014611730050948585
0.04048832290714664
0.13478560911595447
-0.016551237040864582
-0.018699664524679614
-0.0014175234126619426
0.008085706232330563
-0.02600850009463799
0.03446416164642538
-0.01952947050956212
0.006413053197371964
0.01433822309145442
0.033931888684575875
-0.048706926272692526
-0.04084575530001728
0.009959379761981416
0.03302358305236612
-0.027768779034167232
0.11137553605871243
-0.07622127961080212
-0.13027868654019453
0.04363298751119551
-0.03019776987890189
-0.007596165685960321
-0.023944505057298723
0.030672598124905484
0.049778495892215203
0.0033363911323024075
-0.009133073789810557
-0.012197599728945366
-0.03994621918608718
-0.01620551226183838
0.03382854058946274
-0.03334277534188208
-0.01484216856744179
-0.065773230775983
-0.014890919320838606
-0.0013343668505773356
0.0021000211289812117
-0.08199628858892996
-0.049161285229882445
0.08693008864512719
0.08743348492631646
0.06652606278978448
-0.006001530699998507
0.019207993750689663
-0.02607571783456821
-0.029406559799252475
-0.009937873573628844
0.01994341455412682
-0.024006428554506177
-0.023963823498083278
-0.013550079971593647
0.022007740047256964
-0.0013478510059984448
-0.031511446395038285
0.042530913687346635
0.00938225799711674
0.010734718965940953
0.03008147442809951
-0.03441685000655465
-0.039820483368126366
-0.02070981827943659
-0.011652995997491195
0.02040141390079118
-0.03438362680309154
0.0758099904545583
0.1556750393445676
-0.04155276786311628
-0.008982478702872033
0.0029993772715152392
-0.00016673928281058062
-0.041944574327839976
-0.030125169737805404
-0.06486776840386967
-0.001115187107332566
-0.01722250783512832
-0.033958033414301265
-0.004578804132455146
0.044209809683476764
0.01983308112497021
0.0308967703083448
-0.015032326167139983
0.05382631192002106
-0.021028362128945263
-0.027004876945215254
-0.023438248238658154
0.04240183912621083
0.18958840565815388
0.055427688011633044
-0.013500957178066713
-0.05800819007243367
-0.03433758321958522
0.020587055510984963
-0.05403695453088768
-0.047140929136122965
-0.036965700366997936
-0.01671845869798746
-0.036936712251815
-0.013614695597548443
-0.038416761154549686
0.10724004939836526
0.02552988879917884
-0.06696767951469412
0.027695415925022063
-0.035553342816453566
-0.020767659285667595
-0.04428702446096706
0.0010878506412743912
-0.03287251464050154
0.15066336895148458
0.08169885530510493
-0.02247095869777504
0.03509423395694449
0.029259064083877583
0.01719292629536301
-0.015788353936944107
-0.0353980012056027
-0.04917365984060015
0.003635533566072137
0.016238024579685352
-0.03389860894465561
0.03864598140794069
-0.016652348495916354
-0.027051825454619455
-0.013306014193613276
-0.0019973577949719927
-0.00934979720857604
-0.03576035550709203
0.13015984897874563
0.05865517063648668
-0.002214823176228674
0.015819383523950254
-0.010512428597827313
0.010122467912236945
-0.00363177484857942
0.004053812605346921
0.02401625862873933
-0.004788572802755588
-0.004951998084672718
0.020000369996770594
-0.01998235992974382
-0.02555865216610592
-0.022995400832159906
-0.027025712983722815
-0.05170691715060856
0.004622507805131956
0.009057207231709141
-0.002465249907467293
0.003598635559859299
0.024470477079630022
-0.04551044383549219
-0.14597374083348685
-0.01062788880547816
-0.024688745616657973
0.008492499537353643
-0.015681440505858898
-0.0017489470020025449
0.046727832322505665
0.015751387545400956
-0.01665929096923272
0.02914933699720884
-0.010902357602173838
-0.045418466069396694
0.0003831123092016476
-0.008091817642254544
-0.0535753811650931
-0.020738904736211778
0.01849595233585423
0.0100719233748477
-0.040111668591384285
-0.007001102024964557
-0.030659573222584086
-0.003804684325761491
0.009082605527983975
0.1464044909950984
0.05084962445493918
0.002522825943829069
-0.0008449165581696943
-0.027839251564977963
0.039455558282175444
-0.016834822052995177
0.13390297553620878
0.028015996458788616
-0.0367392500163946
0.02184315036872928
-0.03456277192414755
0.16237775509123378
0.044665844324980115
0.03444519430066301
-0.021130772675212503
-0.052958407146434856
0.00011529139185372622
-0.013414028637337367
-0.011782825066686212
0.0174803414286344
-0.11033197947821383
-0.020777804064807854
-0.009063476615720888
-0.05486024229172554
-0.0327800788284442
0.0126500412098406
0.025412386829470595
0.03056110530294505
0.05103337090765518
0.014501177940489057
-0.014781141974702181
-0.0028530217669098207
0.016917411335621524
-0.005429425847202733
-0.007385940475791777
0.01723488220005696
0.0068055759910745405
-0.014109966732010929
-0.012520168879823814
-0.015235571177646538
-0.020665944646856362
-0.012331694807592464
0.0037132911748635213
-0.04666359505716402
0.0031000973275826563
0.029047407309747766
-0.010766775184899146
-0.009075319207994514
-0.10208695763019156
-0.19477104095373482
-0.017090762005839647
0.05590512682143842
-0.03634055584545376
0.020084796168626275
-0.01576345953211814
0.027873274457003935
0.16846675669669198
-0.004389278724987194
-0.010337340449583286
-0.023212705351712982
0.014412812452834491
-0.024838845553442186
0.01684997779147814
0.05068668704736976
0.008911310324392144
-0.007811716401575066
0.003986806798274235
0.018056884347153943
-0.009543976005505661
-0.02902663955193857
0.0044357708541434455
0.013942361749380816
0.05685217625103904
0.05047550615308833
-0.04253039017517941
0.03279311612977541
0.0056673616869105485
0.021544596962284522
-0.005446432688623082
0.011812853259982194
-0.034443086908630384
0.05139839878302115
0.08404904192993914
0.012591807874951138
0.0021283971233985294
-0.003859005607323026
0.0014403981778069342
0.0008012301410810856
-0.09577245948005839
-0.05590001107597078
0.01856731549759989
-0.027574519769392063
0.014154596616435644
-0.012595976881703823
0.05543190564227274
-0.035997800549508435
-0.06367875789059901
0.02003973581886545
0.03717592742237956
0.002495922715964135
-0.05194390280300631
0.027720771860225164
0.05257482031841993
-0.017294661057482317
0.009954098006653337
-0.06364443705753824
0.05975967480161164
0.10000000050756974
-0.06857705067322671
-0.05980939938205834
0.003685551137959609
0.01716697097931277
-0.012766210803358543
-0.04892975538809054
-0.018501108401406636
-0.0029003176371679446
-0.0011277057141834356
-0.027098250998960717
0.0006996537522152498
-0.032204257548641826
-0.00955366173994326
-0.01692241973352603
0.04568498349434194
0.00028562413301859576
-0.00615618333120965
-0.021616192174212748
-0.10899116728645823
-0.01792702816665251
0.0023864847168030686
0.14599078970039522
0.03953546654843214
-0.023000368964486425
0.034545960011299455
-0.026957174412738094
-0.021091473307883322
-0.006264499618294062
-0.016839403787683758
0.007043395849890181
0.010212815146832161
0.0488899378735967
-0.058974491359568074
0.030203735939063687
0.1078759940124893
-0.014970503577824482
0.02344301916996631
-0.024796477614066604
0.011841697581186708
-0.016770438365358617
-0.005822864038855197
0.0661179634567168
0.014926284073546145
-0.05449792278863017
-0.012313636146172886
0.007112707806133809
0.006339136432259183
-0.0009305447408729637
-0.00591112230739131
-0.035527124829328925
-0.010672551914243909
-0.02198877782865984
0.02792791017267152
0.02335053826055732
0.005382433618440486
-0.0003675396752452197
-0.014984943383621926
-0.008555879297681798
0.0150008947387376
-0.004946837606148488
-0.028746519956495218
0.016967684710961793
0.02692548615149739
-0.050407965890533035
0.013730616512284273
0.03578196430505785
0.03522672687491102
0.020108403355569616
0.06417530173128125
-0.06048453647755517
0.014817796417495258
-0.026111657016736595
-0.06918843563579001
0.00792823576517533
-0.007002180377766891
-0.009359136719656408
0.0027708023294295884
-0.01781686205398152
0.01842268381061892
0.007217623373643944
-0.048933136418321796
-0.041735856351156286
-0.011538680266146614
0.050309736689198616
0.0013652397587628484
-0.01254054534960139
0.03308007271724083
-0.008717922379166071
-0.007986322738145545
-0.013331597949212142
-0.033572994345389094
0.022776852460807816
0.0028597740478944742
0.01453671172765218
-0.00399339320049684
-0.011203192971317902
-0.019684824212441228
0.02440488942200251
0.040470494683348436
0.006036174091845596
-0.002820928904577245
-0.025947514148686915
0.017343581187356332
-0.0055245879492959215
0.017382177129834243
-0.0066582001751217855
-0.003703106419184356
0.01718360615928399
0.009417175000582246
0.001457973081250996
0.005058587123910578
-0.04651108574134188
-0.018732103817898214
0.0030052044780112704
0.033434016295459425
-0.021657239064914992
0.1001057511400023
0.05199260569606823
-0.015825697842611484
-0.0005550885677636714
-0.02690829053323504
-0.03295366896152208
-0.0002997388156648659
0.02090822853277147
-0.03170577166862067
0.002539987605928986
0.0182880694646577
0.06009364297871428
-0.016137087573444585
-0.01189864149138374
0.02198002855138429
-0.017986183305576317
0.009351839179895629
0.030755118415004324
0.003871894252142948
-0.14294829127355865
-0.05704887167453384
0.010603319245352337
-0.03921873941137622
-0.0065200385050996745
-0.053018365428544934
-0.0009151150807448875
-0.0048825085612086375
-0.0394135269768985
0.002253189349225432
0.12775182361714812
-0.045669678599550394
0.05933823971279513
0.12320202389751085
-0.04090408389749785
-0.017029940883713658
-0.02278211873816997
0.020581778170691754
-0.03885909862677314
0.023212355884164364
-0.04195036720653489
0.002812246531151453
-0.05818463676417261
-0.10469716362979467
-0.030920396081165515
0.07234373232146647
0.11461344056190159
-0.026668034837723707
-0.027481605147941426
0.00546972219584789
-0.03247744184573
-0.06182495133701086
-0.05425925962585374
0.08040259853498462
0.22075170649796808
0.023358413658463934
-0.027202233147138998
0.22996372757613778
-0.06664859410288074
-0.16250894748840594
0.04158335371712222
0.020114288856211398
0.06877253479608748
0.01416903455469635
-0.017628317943295592
-0.017255560345377233
-0.013265112114627421
0.02511536039120374
-0.010065695755710695
-0.06863721058410041
0.0028114001486512124
-0.004513759074420715
-0.04001999496016037
0.028919281153981614
0.05372010538703636
-0.007084283732044819
-0.008819478066498704
0.033184673769349214
0.005576954130711854
0.001394895257252527
0.023386796359462857
-0.023485998770589128
-0.016222419767466315
-0.01448632108907681
-0.03579665477159333
0.006280561597710959
0.017467444350107934
-0.021948606253719093
-0.014537474584451144
0.025152719793907128
-0.07547946300569096
-0.09523224395378992
-0.010932317288168118
-0.05095980126385542
-0.016874536688371276
0.001919662757270007
0.004895108730904216
-0.025417146457818608
-0.03536341338009137
0.017372255647213255
-0.014824870684584929
-0.014650162435205009
0.10349389362933324
0.013042152413081926
0.001850972634376958
0.005456845245316132
0.013122322189851382
0.018360574024716407
0.021620577830641398
-0.0004824563313265863
0.024994625416738445
0.018048524564598413
-0.023112346610053958
-0.002738873914250279
0.058662067985340134
0.0018251353953021394
-0.01603938500286925
-0.011965157563729319
-0.0224013499124975
0.03184421932057693
0.0868947164898686
-0.015207261481572469
-0.04032722904281605
-0.04719295648748283
-0.07154876163089498
-0.20775624701425235
0.15322591876023964
0.11525561889745815
-0.06883932203628161
-0.037011831651630335
0.0019098017940601209
0.02420947053758746
-0.012881522673430158
0.0018498827192704964
-0.0005715736444254296
0.016350838092706436
-0.031914047217145164
0.004015560637827402
