0
-0.016842801274165774
-0.0021614198994487147
0.022955925527262167
-0.033847975812713746
-0.03834433494430401
-0.035507657568919965
0.005128255553715968
0.01778678898042497
0.009434969845422355
0.04170430039126268
0.03130581153466754
0.06519987609329372
-0.002658156356343652
0.0030446368157965903
0.019543556336957632
0.013710966779767865
-0.028944352443791767
0.007369704396835504
-0.02217268514501875
-0.009705489199801675
0.037804671924966955
-0.018551090258900733
-0.008535544275150759
-0.0013829663699351305
-0.008702656073578497
0.09468285555494431
0.06733054841861992
-0.03313292833821207
0.01471757687945656
-0.03716610834611383
0.0006787367404279186
0.02259319139296851
-0.0331546658048371
0.0022264532670171456
0.011487807016771417
0.020510845665827653
0.007012696109756067
-0.0032128428192385785
0.015587667710119628
-0.019596778497234613
-0.03866810279716641
-0.006822463389067508
-0.05404362528657299
-0.16539879480974673
-0.02557174383661964
0.03372449623440561
-0.005137842696670218
-0.019730925089500605
-0.04997911703460433
-0.006737267714034762
0.044795999261869966
0.02708823455218261
0.011487830264250059
0.016607269215868897
-0.021913869458137523
-0.006257656946660648
-0.01685097022241942
-0.029226701303484336
0.05921350887301995
0.07428100756199063
-0.001200053254697168
-0.006357964502355725
-0.07494388918673087
-0.027358490755929398
0.06574951066466737
0.012983211149266599
0.03098739006301452
0.06253599856874206
0.010551043385608154
-0.0027494362986822925
-0.0022754593561585177
0.03607925330674126
-0.014026903807887695
-0.04269852918722377
-0.019500518622231854
-0.015246407063818326
-0.0009073400012595647
0.01849955203292408
0.05165528156508811
0.07935614999468005
0.023083680663856784
0.010523607998349031
-0.15514098613984328
-0.09919939359214897
0.0718227332682516
0.02007674340478651
0.05645965803195505
-0.008657410187695298
0.03528269749142291
0.019880291517529017
-0.012286680103097379
0.005454809589027408
-0.01850077775182574
-0.043851776988370623
0.0062246024882338154
0.019718811276837025
-0.022063043783488254
-0.02098350873011159
-0.03397610536557786
-0.0035184884414749596
0.04205149478403259
0.0532552722686911
-0.03502309775759244
0.042832290888336885
0.009094584719484444
-0.10082381317630215
0.028734292150370117
-0.004684302405261404
-0.020958897207291907
-0.025016807381090512
0.011764394141716556
-6.964938307193516e-06
0.02070654518107956
-0.01797450717488922
-0.029375806841665655
-0.0073233210306060045
-0.048296190105766336
0.0437436414166685
0.03974486037142686
0.025644446093035456
-0.02243092584277882
-0.096781853922717
-0.03331544091680877
0.04267337797025836
0.06473642199465414
0.0031608307828190287
-0.00996522096931444
0.011632359543368635
-0.02487304428646575
0.01902412277892537
0.00810331973904479
0.006707539384487926
0.021010801399630595
-0.022121071641514754
0.006141641010014106
0.022905770907923843
0.01710656341925719
0.016956032919497575
0.030984181364723147
0.028082746891243803
-0.027627530299170543
-0.041176236032488774
-0.05917702612837913
-0.041732563758180755
0.026707089900112127
0.009887471690762605
-0.026069898368374384
-0.021695307237437473
-0.02949112502809482
0.020266299066457733
0.022074524799347687
0.03259787587081059
0.01253712293095418
-0.04737796266005692
-0.01458321842504253
0.029536936862282624
0.006196311931994807
-0.00045231524677007514
0.07693966491608242
0.03473857914707704
0.025150753839417766
0.06069068065067104
0.05154938075792409
0.0598299743967859
-0.01155094996935953
0.017576027627884863
-0.029028149921492025
-0.2357566346106705
-0.11587194572217938
0.05173868003599307
-0.009901916476458626
0.1753554220863976
0.09886263061191654
-0.0605734404287574
0.010710755944009599
0.02660029752372667
-0.03818703455542562
-0.012819125246954317
0.015483438128902184
0.00486221074948307
-0.08537000717601367
-0.14365708430665866
0.04677661977500786
0.012482684362720532
-0.02554649203798272
-0.0024999817731822136
-0.0123305420049059
-0.00948455755043993
-0.08097166318848385
-0.043923097198585254
-0.014050919576246938
0.0032178962678762954
0.024401810035574883
0.01648935718406787
0.02381712398907715
-0.010676187299560784
-0.014273261811047181
0.04022986289899892
0.07090881461914575
-0.025163569061414974
-0.008995111933431218
-0.011886403361348233
0.05659329196561827
-0.04016546811592748
0.057968685931780804
0.12790345000566683
-0.03303572462337733
0.0021965917505895323
0.015075932659058305
-0.032660637768807406
0.004509907522797779
0.02007565813955702
0.005313274996056114
-6.498307855892413e-05
0.01086328764789203
-0.024787879525803382
0.036309607059178954
-0.0313631398441612
0.006284198085138869
0.017455668665947444
-0.08168324603403927
-0.05518857926469475
0.0545337431518353
0.018178469326599354
0.0029950145901126127
-0.017816444835691052
0.012125855481421028
0.09117655814378058
-0.02141601997023164
-0.007121693190500306
-0.014560818368114006
-0.02358861513442784
-0.03289475644769852
-0.01763843520413474
-0.0034927099533706893
-0.018123428595923845
0.025374420043898702
-0.020093510198719418
-0.02055254650421582
0.0966193842661888
0.05175296081755741
0.00678485197781112
-0.05584261612714531
-0.05812385703930822
-0.017344322373127035
-0.013473411465396408
0.0025560214657592392
-0.0038018559376583375
0.02907375403885309
0.013300089464514976
0.017090430961280934
0.005437571409808968
-0.019011493531974434
0.008927611015528905
0.012090909779480593
-0.042751102850010256
-0.02809320087002441
-0.013481628160002816
0.010425875242789177
0.0404456646983289
0.024238651517693152
0.0014727495214448248
-0.041186114351038944
-0.027420878533055998
0.031303985509047796
-0.013903838623585891
0.01011413268794674
-0.0019383163348196696
0.017268934456651015
0.003841357862087527
0.008383522575386415
-0.04930322294486096
-0.009896659957775642
-0.016051417245850852
-0.06272046483644723
-0.0261054529844168
0.009055147007222169
-0.03188136781170239
0.01593751635527111
0.013532885102941513
-0.0486879094860864
0.004748011724539873
0.021694455114836725
0.014931009983271085
0.036557707839688494
0.0048528476431242895
0.02081884296913356
0.034634659825250866
0.02151189897202861
0.017720842055068717
0.003234055462034266
-0.0011692636237445278
-0.012316612083452246
0.0599771475563339
0.024312417464167183
0.0150873055620019
0.03725110347064666
-0.027648348465089262
0.03902726884230329
0.029541246445247245
-0.009891661111922053
-0.03275737902667895
-0.006160633573972873
-0.1000375727850962
-0.03081290461336049
0.08068153806781964
-0.0018168036058831831
-0.027687020376927055
-0.02608356874151933
0.028256479889478825
0.053404777439809856
0.02226492857523134
0.017236785415873437
0.0025984874800948164
-0.005162238894243629
0.005778648741871375
-0.011649613862426227
0.001909020165607685
0.05625736069273943
0.01025375812639896
-0.0019679789687162643
-0.015140283352426632
0.0034470966235030944
-0.023782306844067954
0.02154408527494905
-0.056212370733166
-0.006289560826633686
-0.01855095949203839
-0.09963462306801392
0.013697218351544234
-0.03371049861869322
-0.021041520028034645
0.025975138779341725
0.03426460818880591
0.09966431391837798
0.02604940340793739
0.011162270086106776
-0.07072826253644564
-0.14071038739734634
-0.010342969247489096
-0.048901330903211956
-0.03987368621438362
0.0362958208989783
0.03184538785903304
0.003871562574511925
0.022805980914563463
0.013634513872347648
0.010242204160954355
0.001217108533676563
0.03771616925665177
-0.007302827340048321
0.01589447028697786
-0.008542893632700903
-0.02387234238512962
-0.030977616027524885
-0.022562424526833384
-0.05240761404338236
-0.01711858146134703
0.02280307792189036
0.004926066234347733
0.059840954756265656
0.06544207347827627
0.018077600163714937
0.02035271320332977
-0.07415963050229331
-0.17479387701344473
0.059783020377100614
0.03101140904246059
0.00528723447387526
-0.034258942161743855
0.018271938081760298
0.031777582500050625
-0.007458420396886858
-0.021777087654831787
-0.03389411736040856
-0.027286259524748765
0.05672528089981374
0.04386730867413679
0.020121991733452214
0.0006208119526035055
0.03694250461698899
-0.03282091282764923
0.1464356397527137
0.1315453659066066
0.0034616756200266485
0.02318549060443455
-0.006377874807954149
0.018616809796639797
-0.015472893886599693
0.012449992194312108
-0.02550036632137306
0.02722419593251068
-0.025965225041015724
-0.02553051443888022
-0.027499658561428303
0.045251098784093266
-0.19474666038411206
-0.08146913090082795
0.06492834819655725
-0.0013142729692087662
0.007995273590970147
-0.05296487964387617
0.007216377549931107
-0.017556323480112383
-0.0026044392529235784
0.01073711399956442
0.04227572506501105
0.024575883367445556
0.02246637150644542
-0.022320437630535737
0.007231926193759111
0.014075226167478212
0.016785531816269367
-0.010002215996690912
0.016285892876492177
-0.02987607788382934
0.01675717032440482
-0.002704032079761576
0.005537878109541978
-0.013379924710830606
-0.0445486324302163
0.011249016010031703
-0.050885635957811814
0.005021989029119707
0.012160394502955457
-0.001470979108240328
0.005489649351108484
-0.013142286132927315
-0.0007007208805418643
0.010189738745193608
-0.044273084724486066
-0.08050945826296838
0.0747686075963871
0.0067988487954518525
-0.03409702189459427
-0.01627255620565283
-0.002795062345613191
-0.026066697061719022
0.037243749382058794
0.02506208967607492
0.05287750852200093
0.06487540262532007
-0.006485903126660097
0.017283458743017125
-0.02626887678913557
-0.0550046155807459
0.015128347996797126
-0.03393404464916413
0.015421922519317668
0.01241860893396711
-0.002965091973738535
0.112540318897894
-0.006714307450233759
0.0071255651138662215
-0.004212167171637382
-0.008661693821716294
-0.08038432239626685
-0.09456358216125106
0.006412184788284148
-0.03145464633441412
0.1324235860337183
0.08035547805779046
-0.0792988624723939
-0.06544884590796068
0.04923939941916337
0.01835389469951193
-0.03696513005852441
-0.020802842265998735
0.04285695168337553
-0.00132087952160506
-0.0010970924116128014
0.012359530749082592
-0.008217681845021961
-0.00934997683763378
-0.002035127885851325
0.028604133912327325
6.936065695959664e-05
-0.0017708818849902672
0.0004600049190881007
0.05361064435442257
-0.002033232823617216
0.027632521001261335
-0.04758354111381575
-0.059626380196070174
0.04972167425729086
0.007752898131911441
-0.010663064485845116
-0.012592154500438938
0.002455474154042583
0.022512378424099096
-0.0122562347364685
-0.018094819472328643
-0.0122587203344588
0.02026120465594778
0.019747658804963396
-0.015581138089578492
0.006109450005790878
-0.0019447437566905046
-0.052216282836280936
0.04591494729928331
0.07250393885722058
-0.0061169128140972145
-0.04886641294060949
-0.07003500619559994
-0.03262128990767015
0.03798075606303983
0.024854087467587698
-0.021804664755455533
0.020809464098140558
0.0323800368290472
0.023622017826861633
0.06497268872318013
-0.051466147485482755
0.005140007531413528
0.07814511930331527
-0.01820762559963822
0.01599367527462297
-0.018368884287507655
-0.014190604428886122
0.02013759377554851
-0.06598473375857589
-0.0934145369581682
0.04129528452223282
-0.042902477647086
0.015945653702880095
0.018422602248225065
0.02349090127859077
0.013220078954142393
0.005974393757428273
-0.034665155356119796
-0.006921602978986492
-0.05657318165409203
-0.037482992441387794
0.005575504838312199
-0.01694078977977722
0.009954920426324784
-0.014598291466692387
-0.012047239165538931
0.032423972005697084
0.03565910912409782
0.0418736620069666
0.017402421746967833
0.0670447061520536
0.004901650406334869
-0.01612367553675416
-0.07738554809226802
0.02544730498899717
-0.0060340781128263524
-0.0055220174191664105
-0.0288514063420036
-0.022856836473806878
-0.02094236968840311
-0.006732636052661357
0.0115550235516982
0.030882466443673352
-0.12184603849576883
0.02560905770892353
0.011042464874761833
0.034141076936123484
-0.0018065289650389309
0.0832364658136158
0.07862265785129369
-0.008975004193269243
-0.015434661145840111
-0.010174051140639215
-0.017148820010958344
0.0308973403826342
0.03565696931556804
-0.01721997133810894
-0.006448449575752915
0.07028131627346805
-0.016419380379922462
0.01724999629113444
-0.02667683709862628
-0.07208998635682645
0.037255566947785874
-0.012872629696303537
-0.010038873551215435
0.010853537828184014
-0.037635622245822814
-0.021893744522644056
-0.017479382354973223
-0.03867906530074058
-0.003442997464241884
0.019455174137758165
-0.020310177048274355
-0.026646245974652157
-0.013466300507376364
0.011489844062550027
-0.013131120161267842
-0.028909964766375095
-0.05234825460444801
0.09170921419868056
0.0723582044105177
0.0048473594302908965
0.03126399225784613
0.011645088094299804
-0.011441258511045778
-0.027428134534831367
-0.056126104939453386
-0.006187549133349591
-0.08930143841073439
0.05561071750153413
0.10765732356429816
-0.042557188118348584
0.004320398274022238
-0.03979543298940712
0.004218392077008601
0.04531680266833817
-0.028914387929653677
-0.05514794978790514
-0.024969524380707927
0.12741079812090864
0.08580044091943995
0.11758632749029033
-0.015864734970259788
-0.042627074408700616
-0.10583633879451702
-0.0632649827987563
-0.05417919584310075
-0.020445072580819835
-0.03541657229593922
-0.02402933123456763
0.03282993123622955
0.03401621286701278
-0.0003865049168255705
0.037230164859529576
0.008490733886124006
0.036228984375200696
-0.044393953657736
-0.04474370445003558
0.025627792810605787
0.09673285029516832
0.06564145181173892
-0.00903775621176976
-0.0027643776323497114
0.020220417645239238
0.037566365731340354
-0.0036987159258945065
-0.018987004728144453
-0.0008349042395005691
-0.04083088032364192
0.02902483948032643
-0.0037791680939165853
0.044423043467860183
0.0021781767111936716
0.009294308366974268
1.0260657068785949e-05
0.005882769876780695
0.025264455950423856
0.010786574963540872
-0.10200355911922127
-0.037726889896374065
-0.0020604240550473993
0.008774335429054718
0.01100069766903672
-0.03599769207238295
-0.02993966091628951
-0.004705526642686968
0.04300497576546708
0.018622944773411025
-0.10670278842521336
-0.03622719414134835
0.006167512982108576
0.049634591565823075
-0.01639554469689202
-0.020386336168441085
0.003968815009549754
0.006806124770750694
-0.048842446108663874
0.05966285582092791
0.023895679643385632
0.009761815289900673
0.03695599626880792
-0.011988423679700105
-0.009418909355661538
-0.01222789953973014
-0.00245666107782941
0.039955227568084624
0.02654803021659981
0.004312720723489897
0.02538584489159431
-0.04838201638109765
0.009831651652271432
0.039491084488357135
-0.018897661056034458
-0.00740061952121815
-0.007091579181036233
-0.010308067726128672
-0.10920209919531143
-0.03103147587015344
-0.037337226722832115
0.035101148189734394
-0.03466112982337513
0.03741582792279616
0.02357459316544811
0.03931328117283952
-0.07386789163586592
0.10586270926173802
0.2206870475138832
-0.03238471899918625
-0.025754739946723428
8.329826574069085e-05
0.011828835959032218
0.030140562662843005
-0.10914747657804753
-0.03362918104653373
-0.031334036014634546
-0.021325132658686206
0.002045672475041192
0.016463244162428375
0.01882067168150762
0.008514071890511399
-0.012197874682296704
0.023530662556288058
-0.004314753372074502
0.03271518874176848
-0.10862667521069048
-0.09846523777462379
-0.01435868207722814
-0.015285005798320365
0.0019534186005861543
-0.01765289317804703
0.027030366532285573
0.050081759275159954
0.02561525055717103
0.03606737153556856
-0.12618186710019216
-0.14953213633578322
0.04512141720897413
-0.033605246159422404
0.18728771325879884
0.05116773081785072
-0.0025686317035274017
0.011678379775303636
-0.005896529082495572
-0.02462307087499433
-0.023180288313475746
0.046747022008318546
0.02598698668401856
-0.01512463577201029
0.0019690727417427272
0.001274469995372028
0.0005492420189779462
-0.01070634384924071
-0.013253125368966091
0.0033298877957025274
0.014517578742806193
0.01452918371984108
-0.024448053104280835
0.1252894526202259
0.11166028047351022
-0.01017866655372447
-0.014352139925233093
0.006349367971510566
0.005765046641735271
-0.05654683762832844
0.04154742585997049
-0.055889960213645264
-0.041671098168938214
0.000977645274646754
0.022815620151646645
-0.025661552780405432
-0.017962843217648374
0.009670823387006875
0.025776975700328535
-0.007721873194076865
-0.014767443136739819
0.012048128793993897
-0.026889997827075022
0.005787186731771161
0.004893836598736515
-0.02280478490051736
-0.053803016151777336
-0.015287701298714217
-0.015351082861899954
-0.0034204255472172038
0.029169115891291716
0.01028666496062053
-0.05832799372862162
-0.06545605322658976
0.005348566572055676
-0.014344674604873575
0.009154563947005543
0.0041381360803309335
0.037231846693356545
-0.046250180473282214
-0.0870880845941976
0.055134865589171016
0.07006172593869707
-0.007628986121947811
0.06548128619804532
0.00909393953080251
-0.01751374536980993
-0.01341749020502021
0.003146636253784503
0.029135202732794047
-0.012116162773371972
0.009586479206560796
0.013198927713266015
0.0023701923467329454
0.0054598868355853316
0.01671174116278815
0.035765480416678624
-0.018002918807844548
0.01860335270741027
-0.021078146721056956
0.007930265800885931
-0.0238247768669117
-0.04348992272548903
0.011069975111522905
0.01524533281697072
-0.011300052527316267
-0.0009776440827317877
0.10374899510930986
0.11125613909782024
0.006940738539857185
-0.001947033716023462
-0.024663896409136424
0.07507008575717947
0.1149943115735577
-0.06384924545187724
-0.035458171335819626
-0.012717256530153884
-0.17781282323517789
-0.06753491053592196
0.015734314079447934
-0.00998585605892444
0.009428320763404933
0.009357456347534045
-0.0375757492998158
-0.000800468960825057
0.019100810129330265
0.018161046722826323
0.02669352806063747
0.03951615345364633
0.012784159610266278
-0.04800047947103654
0.005988860854920099
0.06075722509618037
-0.01842326286367524
0.021540464407535397
-0.022301896110290997
0.015136309784010822
-0.03951837664248519
-0.09538396723613071
0.005983635172608955
-0.02398605423513133
-0.00179666645050889
0.007731254697383989
0.03349823645290021
-0.018446889820862532
0.005360575137491447
-0.006201364429862176
-0.004242315926223584
-0.11343346496053294
-0.04952840912293967
0.104285110114318
-0.017079878279886506
-0.012699982500668372
0.03387681558100965
0.022221670286472203
-0.012411371699689987
0.018216804807279777
-0.032546976782949454
0.02194175018357768
0.021615753955885927
-0.011632281554531932
-0.011444169052512419
-0.001522191989625477
-0.005158313108929201
-0.010204988741638372
0.01839764387743505
0.013072514344519802
0.00014898565383243852
0.0003568411177848523
-0.025763619385693545
0.08352801930714958
0.07403497235181146
-0.030441180813177
-0.024531699017200197
-0.011565469537820122
-0.008054189884263497
-0.011507615127654866
-0.0474351698249883
-0.021228200849666538
0.0031957381279406716
-0.011188183949836662
0.0701746979049903
-0.01600500519324855
-0.04927527592419615
-0.03856554711512531
-0.01139538905544834
-0.014163209971251178
0.01866991352814008
0.018466909115783362
0.03628726644058635
0.11481947458353088
-0.007493378290069785
0.025724968122813774
0.017648698871001237
-0.03602253525187244
0.008366467931573574
0.003076729233567699
-0.022532001506164627
0.001361606000030032
-0.007305757654661773
-0.028444286948051952
-0.005948920899558245
-0.0006221260972995013
-0.027205652038265096
-0.01960313165295684
-0.008430420657971335
-0.005326351269273809
-0.03066117015596081
-0.019563220418680107
0.030591179759500386
-0.025858286156756876
0.1033122835066891
0.054100133481714274
-0.00973401982277528
0.0298577881459245
0.007212452924500358
-0.010367835680741266
0.028123313403837523
0.024239496278261597
0.0010898945857960832
-0.004167705273518172
0.0031330038241328376
0.01258330935181171
0.06340384033970138
-0.024848283397784464
-0.009260504297429216
-0.016403393618991412
0.012523907881296646
0.03738516837488561
-0.06645055073704309
-0.13851140725339825
-0.009406640035780229
-0.017075649387884063
0.02116378195985238
-0.004524140281364624
0.0184287214040308
0.05102484836617173
0.013453988157493772
0.02332109317420807
-0.04217324270262937
-0.021667916384078063
-0.002034318992474141
-0.029555152320773697
-0.0009852985734566083
0.013687680724575754
0.02486874341150096
-0.015684312986438402
-0.005813779149129005
0.026267609936190785
-0.028181287278852996
-0.0345421886983396
-0.01789892580574856
0.010145727552148445
0.05289978530978853
-0.07686568917701153
-0.019658000257969457
0.023873706619346232
-0.03442685421948843
-0.02387049475166068
-0.018977009250630023
-0.0260888887619435
0.04813846956187116
0.04684653384632501
0.009896149111748955
-0.03281437451903386
0.044798292261857615
0.02772893989526701
0.016378386551532936
-0.020342769130766786
0.006881777619269395
0.018772607901757367
-0.0010257088747348036
-0.0360438838928457
-0.0017481315416569222
-0.024313838660857633
0.08937130254577544
0.051971969103865506
0.007284190161234759
-0.03128636591721527
-0.013033359978117944
-0.016226664877035023
-0.03839793608867444
-0.02815702358189529
-0.016624046488127764
0.008450371603449126
0.0059023270819553286
0.024628383855247574
0.024539242272068145
-0.014089109673906905
0.06069355319030194
-0.017080964407469347
-0.02334890431442297
-0.026000532915711687
0.0345100520411472
0.05119797082738497
0.004208351798367387
0.017294467700347888
-0.014469442833980021
0.0020254971277939684
0.008886006200443908
-0.00478650490464786
-0.011361124083409958
-0.004683300868945381
-0.06036756694843767
-0.025614854927937844
-0.0201985168986594
-0.0090899291098859
0.022994875413504985
0.03438656353585387
0.03630960781198713
-0.025464351613441554
0.010980480606000691
-0.05391819498172275
-0.07574890196051036
0.0032416244234954135
0.002058251333003847
0.04700911144639742
-0.03753394714778448
-0.03800845695164018
-0.018455115671084408
0.012330332955372078
0.04329013353355931
0.026026721716804306
-0.004258138592381221
-0.002990452074113585
0.0012097332695256023
-0.004326387592979709
0.005502384626657605
0.012168851571609992
0.007058877882846315
-0.02947484141898438
-0.02106812162932701
0.02884437354693872
0.03929026057603854
-0.013179415076643887
0.02533220539985359
-0.03367857887515384
-0.002131228032275878
0.15154670013728513
-0.043028874986631396
-0.021256629676820342
-0.0022594931999411045
-0.00955174199968979
0.06078128455591463
0.04925865965716468
0.01864571392699545
0.02141539024116875
-0.0009693530858715776
-0.03428590050001847
0.017189741721235167
0.010736488481792589
-0.0288412855406282
-0.1211473174230423
-0.0428437964750798
-0.002794672265902249
-0.026095128860353874
-0.016301961502308494
0.04672241659032617
0.027311258528290774
0.0030323694344499942
0.007927571924835763
0.00583428181307909
-0.010588013309311797
-0.011974373323529715
-0.01638732053429091
0.006439081572668548
0.0020670785383540328
-0.030190399988542164
-0.0013111137855430959
0.05039259168546382
-0.029878338088770048
-0.039997065683954995
-0.0030307650279741893
-0.005557733430807217
-0.03948703748527696
-0.005973867707616536
-0.06626921327494716
0.10295070051535486
0.07898349696892015
-0.04831177374370836
0.00870633282372956
0.0047510430889376645
0.016086446681407327
0.008468660612186197
-0.013999838958368854
-0.03882951531936585
0.04600444195885808
-0.032757175623760584
0.020066528160128567
-0.02000538730851851
0.061944332198993785
0.02429548002101848
-0.028131384053444643
-0.016036350550101233
0.001745811369900342
0.008750479408885592
-0.021870162291905356
-0.015001164583033981
0.0465769374156799
0.00961503602541697
-0.041789094973772443
-0.03416224983840696
-0.02468919108069606
-0.04668700425443311
-0.034888752790285485
0.06479543837149909
0.02720143054742021
-0.034700691382781514
-0.04181159395302868
0.05326886803341071
0.22049253602348645
0.05015940721223132
-0.03430480436825943
-0.03435652099496602
0.04171703178699144
0.16522813531945477
-0.08917773002682862
-0.06310502239005146
-0.04348602450217696
-0.08732044616183615
0.01352415738348919
0.05608307985744257
-0.034621040237092254
-0.022905220087997218
-0.034088695102429074
0.00498348396430029
-0.028316753628662667
-0.005977825556600775
-0.011123980906110787
-0.008090220127546555
-0.08050198883327274
-0.017803533120990433
-0.026574895718161167
0.023736975037658
0.14459884048365113
0.012307903219600947
0.02566456939625883
-0.02777018594892987
0.00034373151530208866
0.04365950824198829
-0.005100057391118658
-0.008934375497121583
-0.03083823800647118
0.0037849994668743858
0.04083672748954952
-0.025309992217379146
0.05141892390359178
0.0065561861328024456
0.0052070203251708075
-0.030216455216739744
-0.021710770773812896
0.008762676656007787
-0.00756473585751259
-0.07204465461250073
-0.029076472928150042
-0.018848613626324017
0.01644778960002692
0.01061072575700568
-0.03732806400081973
-0.028440169279019555
-0.05419406146027484
-0.011047758752331454
-0.015340195903322567
-0.017293927646742133
0.0021394421618341204
0.004168715246156442
0.05347309148603879
0.00543312760087498
0.02458754047640348
-0.009509898367351515
-0.046330158201171416
-0.0018629695455094294
-0.012436379425710192
0.05951640784225354
0.04731376693412638
-0.0028070835853323747
-0.04979248343839944
0.03202401919766686
0.027667523654581857
0.1114036644540915
0.09794549982195765
-0.04326426560086894
0.04403660550388977
0.0024693908336114517
-0.020757060057864166
-0.002441182991699788
-0.006459895070659953
-0.00245034312721244
-0.020992909881343676
-0.00468112832960805
0.02668416873138261
0.03552563276129007
-0.015270756260000469
-0.02093862094782878
-0.02254353864692916
-0.036590823014018434
-0.004547516286924094
0.028681410559657058
0.01550720236114974
0.007946068015272825
-0.015002546956515421
-0.03365152754888394
-0.03195595556745271
0.02497264072996038
-0.13998790420607796
0.1233844227638283
0.12105029304192395
-0.02375530537795933
0.04107248450689253
0.015705737922160443
-0.014570798069623091
-0.01151017080116047
0.010762053716680313
-0.028323377971882713
-0.01634067791413538
-0.16268693342637894
-0.025281291803433244
-0.005632226319322006
0.016300751456951926
0.011981889660358423
0.013103098591817089
-0.006105493866528124
0.0012058663024339246
-0.01458890900632603
-0.007341421028196236
0.047748961703922885
0.029346693889416603
0.00138744409474428
-0.007595208855838108
0.021575083138415333
0.0015387168472194275
0.00991246332307642
-0.020882503817618574
-0.005069933993992242
-0.05263211707582124
-0.04122215337625006
0.016220382328999906
-0.03552395574025554
0.032589018049822116
0.01927324117724247
0.023965255783644758
-0.00314745177162526
0.014587830707863932
-0.019272740163168597
-0.03139015860188127
-0.032659265307111454
-0.04266531860134281
-0.009631765685915474
-0.033088865068152604
0.02543335829999369
0.008889638757052551
-0.016837950041168056
-0.007688568877579435
0.06980335606702794
0.09730782218865533
-0.04661526561104359
0.011792595136183111
0.007545808212526511
0.04739724915820832
-0.0370138714547538
-0.009706083674993166
-0.032733795189578925
0.022390118475673883
-0.0012454528832783972
-0.006209693176729754
0.010483676932025392
0.033844346957635316
0.031433223248488844
-0.035422062549533694
0.010435721773157219
0.030588911455958708
-0.1364334693358567
-0.013502102556187275
-0.008460795747974544
-0.0014224187446851694
0.07488318593038586
0.07928558550948621
-0.001486365982366189
-0.024468813245209435
-0.03869436647539544
0.09812166027831533
0.08493873201586295
-0.001439936978879865
-0.02269640045669684
-0.04242197239014235
0.004820983918171231
0.021405887015770224
-0.015996818680625125
0.03225473881679885
0.003678086278097701
-0.04102172867116936
0.01578167345427174
-0.010261836424089028
-0.012853283611635501
-0.027387395317277866
-0.042438902716027925
-0.015805765476372628
-0.006679545566471552
-0.00827896262025665
0.006630978359592719
-0.010393603331824363
-0.13544593651745665
-0.031155195565569914
0.041690652256430046
0.02823160926490851
0.013500501380107286
-0.006086509758893431
0.028996130430517218
-0.04825191497023943
-0.033722672667700786
0.005566140829842188
-0.006644087037699106
-0.001155480217084825
0.002141289734187705
0.005199320322033145
0.025705941647211787
-0.004496135407791496
0.03516567259541652
0.1734183135968593
0.06393815592280506
0.049101372617797644
0.003566136072067753
-0.04714895403625342
-0.006042917846652286
0.031201012386000933
0.006436879196384553
-0.041809923027940496
-0.13138807534170138
-0.0455416883904835
0.05594861671464696
0.10522095193109723
-0.03631910786611797
0.017214077702447286
0.015628739049493485
-0.024259902993412474
-0.023768405646813224
-0.01610552051416349
-0.03233246679569613
-0.0352785429614043
-0.030974338132535476
-0.00603991974136069
0.04472221795966863
0.012404927490016515
0.012482187567187318
-0.01053299390426284
-0.025093619777254078
0.04611090542181699
0.028397462706733892
-0.03632380293790529
0.026347826240085262
0.06026571756061967
0.007475038587546581
0.013893471941030253
0.035518476669555085
0.06746318151515765
-0.004900862893201899
0.0065875561642100965
-0.02920370359363552
0.029976783626405944
-0.12417446054068336
-0.1236212047664425
0.003851654279996056
0.009442148417677517
-0.009346860779880423
-0.03013443133282083
-0.0028579618333644096
-0.02284723714532357
0.036181703465191666
-0.00212292551495628
-0.0183119030641741
-1.1096467677691553e-05
0.003825820996406343
-0.003606657209450656
-0.0043781765313737255
-0.046336332749722854
-0.0015602785341366006
0.07663558119550003
-0.0282658903243118
0.0627447868424858
-0.004725324899543419
-0.016961905994286906
0.009843595489487765
-0.001529301720906661
-0.022169103908863143
-0.018216008816130544
-0.17559690715194065
-0.045952959965514725
0.04032865343914267
-0.005277062954574722
0.004846546708698892
-0.027334184589317204
-0.043807750049121345
0.05802896349483123
0.12368652792454628
0.02286135992594985
-0.010393166114909771
0.039254629720214505
0.06010840153796782
-0.014965075620890582
0.011176299577912803
-0.047350139310353936
0.012125610285104834
0.029452523521694928
0.014729248334931323
-0.0034951062483535742
-0.00045137243480420296
-0.022191450395719643
0.16629658162999295
0.14454036600778503
-0.06663295166742841
-0.016290145502744352
-0.0023011417821841695
-0.036641274311869323
-0.03873323731978953
0.02102593734623947
0.029097373783668244
0.00015319739229484281
-0.037876977582953955
-0.0090213609645302
-0.008187320589721861
-0.05211765281535202
-0.03128510979603802
0.023424701032295644
0.020777227088998124
-0.01790618174355579
0.0819422088274553
-0.007291851763686379
-0.13920818707259758
-0.01894530882222976
-0.01916365221032573
-0.051082648792616675
0.004911860208501042
0.041321491405683544
-0.012684350669953269
0.010255738202584007
0.03552721305947591
3.445648826444359e-05
-0.015245430355681603
-0.032927484489143
-0.014702269432372447
0.011660360911159967
-0.003871501855488059
-0.02788362107154336
0.0026416595691513864
-0.04551616294486438
0.0013747209754127593
0.044862746076030545
-0.027552508870460405
-0.026672694403533866
0.02432700489872093
0.01942369656724611
-0.007067204719091115
-0.01831000798868995
0.0202241234081188
-0.017319201107903692
-0.016041373982900817
0.06774236100138581
0.19763208799381463
-0.03236848698160449
-0.013364768528688186
0.00867543537096454
0.0038665852500232617
-0.02879766657000925
-0.01713224398648443
0.008801817756588934
0.008729916797001866
-0.0053711708958519245
-0.002268410696960033
0.01173351292173575
-0.008283353801886346
0.02031483535383115
0.013115403201867262
-0.016609851691424392
-0.019521069875553927
0.02586017347887351
0.01033876202540027
-0.03185962129729105
-0.016568472281098458
-0.00017984453235398134
-0.01903488034963765
0.010959964712059032
0.027016210990110614
-0.02012200548012073
-0.010911317308605754
0.0033917041492705453
0.0280935326482075
0.006971514330079334
-0.004726220475757758
0.023333663193290298
0.04057540845715783
-8.944127803689194e-05
0.007102431309641109
0.03135062397796393
