0
0.014630631597498249
0.025331186305988726
-0.043067992696590444
-0.019210981463270833
-0.0121655084752223
-0.03045093141190249
0.053732432864486264
-0.019722834646255
-0.00410991582146386
0.03622385644138962
-0.05325505029520852
-0.04824356352392739
-0.011122858022272605
0.008936623881811177
-0.0013662776265275728
-0.001149415840714118
-0.027522573930948188
0.03877231005446602
0.01182184930519017
-0.00920795932922768
-0.007725296445474236
-0.027140947147826937
-0.012167206655403365
-0.002833584352825315
-0.0021748634456859803
0.009270638954546735
0.131518061487657
0.04028366459550398
0.02686780470615543
-0.02145691552423822
0.0614083383141321
0.10493487460685831
-0.04095957293773519
-0.001879093028432713
-0.04454345441583524
0.13451126724256235
0.10061352977410115
-0.037397493945862614
-0.0024611611492908734
-0.03404622182394662
-0.02082344745109287
-0.029738812339365695
-0.005318855377306215
0.046498867582307916
-0.044563047756494084
-0.05916794496360571
0.0038524908763052637
-0.0181973499935838
-0.028014930946801596
0.0031238664838516565
-0.029507224866134038
-0.022046692322845236
-0.03508078442801495
-0.01650155295367314
-0.019581028703592265
-0.04102361412121908
0.007964850034349982
0.033012938366671976
0.03396961098334986
-0.011124020280116257
0.012747141095712624
-0.024176169329486064
0.011015643400676428
0.007525592751020265
-0.01470709039840799
-0.181147534197815
-0.08488781208801394
-0.031055119452768225
-0.004980550373045501
0.05366695733564458
0.07534562943628095
0.07335196488898825
-0.03396710004995674
-0.011381946538771467
0.004791623770330064
-0.013778199693197296
-0.006022475148607542
-0.011316180178526255
0.04000167574214359
0.014738133921099555
0.0013995307299666628
-0.013274975819181441
0.007757863253229864
-0.05307766128206651
0.059388012512987046
0.13826035770021525
0.009448096166521239
0.024062713318628724
0.002946104294317707
0.009492149420880988
-0.006934309409473994
-0.020579653303452194
0.04782144097486147
-0.009820987078583195
0.0035750724994548073
0.009505774744110632
-0.01863689451132049
-0.10490593382279378
-0.04770550212424598
-0.1161145674019562
-2.4215325563379e-05
0.009654657346455842
0.004012103409149977
-0.010750218636311818
0.16357234478035398
0.03311265263206338
-0.007789762950631546
0.0296555658658696
0.020055685473842896
-0.059170560890162906
-0.014466837911457812
0.04292644800490157
-0.016791864081924884
-0.02784998128722233
-0.006644554932823414
0.00660876221931757
-0.006439786977045027
-0.006592816216894194
-0.014760007391074768
0.0008235861182964878
-0.009921351224471638
-0.016034718510213014
0.013692140285728632
0.02026095483867552
0.035523867815879476
0.02657072077440629
0.013537278697753872
0.008191882918984797
-0.005515107188390852
-0.008197557274083608
-0.030247360692270867
-0.02883795943371546
0.055561210013068955
-0.028376534530667245
0.011102913808565271
0.02296302450689664
-0.012769944031801166
0.009084304714702103
0.0006245369270286175
0.01932640014154662
0.0008797445955330984
0.009176174031456236
0.008227390195123491
0.00312030441250846
-0.0012420172944317038
-0.012336117056521382
-0.03251779211023604
0.013091617220532963
0.03824219626439438
-0.01528285528372848
0.00648793762364455
0.013612771653425665
-0.015531037407680413
-0.019220631823567036
-0.03825128202158128
-0.0029101309360396576
-0.002564008866435021
0.02280027188503751
0.023682600656628694
0.04202395299456422
0.026389879984387726
-0.015690989390132724
-0.04382454679529199
-0.09700206605541446
-0.021895408843650526
-0.0227042052352804
-0.007150973403170992
-0.012931358134207215
-0.007164071155937965
-0.0005942016228841552
-0.007103013321244142
-0.01987949371511248
-0.013493885602971217
-0.016293237888961254
-0.006238759838358976
0.010969792164292367
0.07243581838095643
0.0407387485110092
-0.06343338061520673
-0.013058426981709748
0.02230392030704526
0.013767662380627302
-0.05226939973810359
-0.10936122197296298
0.04097702798238238
0.007038661559016137
0.0037069703089858772
-0.030273896171475023
0.1236301505449124
0.09670665294871124
-0.03328343977400579
0.044826207338934346
0.021121792343365527
-0.00443321755509861
0.011710462755819141
0.01345720441667467
0.00574216130173657
-0.0007882929503184267
-0.01923000754913193
0.01755344101953526
-0.017066817846779467
0.02919423427920923
0.06671144633058078
-0.018623564759405208
-0.009641294040748325
-0.019469439129240127
-0.00206114233136473
-0.025940265215100972
-0.01306295330769232
-0.005197711573558217
-4.884492575958406e-05
-0.025840424753345196
-0.02878895389148795
-0.027360450938643355
0.003973673692269957
0.015851122247619084
0.0018276572985931477
0.011985940471078062
0.025323845435631504
-0.02304093758336667
-0.048552428589829305
-0.07247115572041246
0.022121894535427455
-0.017817693802174597
-0.01300731236021797
0.07868141398221264
0.07205984477268852
-0.049684994700092064
-0.018131693012103857
-0.03613039929360777
0.1403786255455171
0.13470399093364982
-0.05232648290812037
-0.019993635507911958
-0.02214730189059262
0.040629263971427076
-0.010983805586638605
-0.020231613845059872
0.028114518054987343
0.15055886386154177
-0.15127662816527238
-0.10398702462619296
0.04371100259552106
-0.009398129702093213
-0.011233585637029751
-0.0335313659656165
0.01099652759390436
-0.009831796566289212
0.04020074490525459
0.010850838082906879
-0.04060345560207306
0.0009423503930788703
-0.06434859077887141
0.018796718972689246
0.006123775895912347
0.015010380438954616
0.004417933195192855
0.01978936216927546
0.0046755139020845955
-0.03473078368499314
-0.0037895498653750205
0.05318520052690438
0.02752528699928886
-0.013530705011415966
-0.008913488633048838
-0.050874372330806716
0.03711462614581217
0.04126533566972811
0.00627358374698615
-0.05333325533932828
0.07032364023146576
-0.06466101444365445
-0.16650715952272052
0.048434581221459765
0.005215008848423048
0.017297429460652325
-0.014967086460728796
0.0044528763912991005
-0.016982403404148826
0.025953832908338983
-0.03077799972938147
-0.0940001495705058
0.016929945883635857
0.03277163008457843
-0.0031333891499917333
-0.017062193134014136
0.03949952837197557
0.014993506042123246
0.0016205460956876582
0.009302198834123638
-0.012401709492418651
-0.006744643990106454
0.027593692581599077
-0.00016797369396112885
-0.03725785989906027
-0.02499500207056879
0.04646774406907287
0.02150603399503421
-0.04754786668140081
-0.0009773034585305483
0.0268979364239823
0.05363470705037067
0.04569350851914745
-0.02976776540034811
-0.03880988872975171
0.0257778684045843
0.006011189169181765
0.02118210195605732
0.004903846186165673
-0.009637405305374366
0.1540163876971942
0.07121581424169679
-0.05349682614583496
-0.067611543521022
-0.026301895950040843
0.013053270426365879
0.009791719844090874
0.008418766220770955
0.020214502713933605
0.041872674037307676
-0.0950511873453858
-0.02776179664742984
0.027945808542139024
-0.01259193057128082
0.0050832670922857865
-0.025110748668240403
0.027855623461830934
0.0040282240675993935
0.006749997614141854
0.02115385299427092
0.030915891508770905
-0.015012983728506407
0.011343804568875087
-0.07359020335504268
-0.009181172024816378
-0.005489992984110761
-0.005042086338610294
-0.039579220310628514
-0.0029361653517839576
-0.012090901567650462
0.06474963690508183
0.014927448701063944
0.010412411054686042
0.03353570137784274
0.0050004542123492125
-0.03073958962958871
0.025958544266481864
-0.06516078997727823
0.01991811728859633
-0.03603848532018774
-0.11988553130059007
0.029852626358810322
0.03046983146696599
-0.09269480561170863
0.053950608567372986
0.05368996107411284
-0.03262011655241322
0.03629017991515887
0.026107438274187513
-0.18104092926804016
-0.07485052157050977
0.10600996384633292
0.06504808154445882
-0.021763601099450126
0.008412392002577054
0.008959341475745076
-0.031058808913482172
0.012750634266531922
0.06050320680311195
0.014802805870400034
-0.05845339502170632
0.022256759931527474
0.017487909998449225
-0.007812088018259074
0.018048042324942466
0.005154892914230748
0.005208771306940796
0.01808720010737399
0.0025960066416237915
0.006554531201749803
-0.03389457902602581
-0.005331863471848762
0.015028635681810502
0.022138402424790527
0.07701304140127031
0.080581154692641
-0.05242603252091994
0.03185454774734096
-0.0033148341432433434
-0.0037118035956347634
-0.028523496796042706
-0.014025058430355127
-0.024352312725948563
0.015604256772021314
-0.020063249550725155
0.003455619291319832
0.0714289886877693
-0.0034080132688156543
-0.03272023439236443
0.014320616777785374
-0.011831538185344874
-0.033365958917280523
-0.03002298182272306
0.0023581183991171527
-0.01349865177616094
-0.010511333017827274
-0.03185138517151783
0.00890447584972568
0.004032841926337796
-0.02607292266453428
-0.08085036500973733
-0.018464160031986084
0.014359776640390391
-0.004155140177520604
-6.628040803805614e-05
0.013215226636139698
-0.02697955480277045
0.02667845165909875
0.05837197857623905
0.029224873398183148
0.03204212396897719
0.03586281866095636
0.04295169249880607
0.008258615742356824
-0.02574349459988824
-0.0520984085170734
0.00682557511860908
0.008303944874557635
0.02914176792349777
-0.023728009534487785
-0.02889633576188533
-0.008782909201541005
-0.017038300370998717
0.020748215257598977
-0.010067277806060496
-0.02830470375825438
0.08115467735989361
0.02068037166027239
-0.007427992740954322
0.014347148964076205
0.0058554425365214754
0.017695900629498565
-0.02984338734825632
0.06000912565374261
0.036395384372987366
-0.06938335335449758
-0.0030057298663739816
-0.010569275868228027
0.046493734660695625
0.012522144075106292
-0.019259291510666337
-0.012027100490064193
0.006174970306748818
0.05521255070317396
0.03064981977638211
-0.08885203221236267
-0.08736405328436367
0.03582451529262183
0.007999723910126297
-0.021796184713161054
-0.04786477190955971
-0.08233469944138125
-0.059888301737583687
0.0379030468664786
0.0017167753470664552
-0.11026513401639604
-0.03159754052391741
0.006933294260542776
0.02897365734915899
0.032223115457460864
0.03503861459955144
-0.008481743116251224
0.01512519298819364
0.06280304606782433
-0.017118691642709447
0.0001726554484112972
0.01458797249973243
-7.88948481714107e-05
0.002605564544438828
-0.010278261994515876
0.014944486980989536
0.03057958194007174
0.006786021975014943
0.0022239903639407668
-0.00835808261389015
0.0365262730558937
-0.07427472033607482
0.012273505497567866
0.033049857942952565
-0.06350417701859976
0.04154825808825417
0.08112106987647313
-0.012416404518491131
-0.019190781557019927
0.053198334081645995
0.013131676476786858
-0.016702467349965108
0.015505443059583929
0.002091771863664812
-0.022998020152808232
-0.04137434676838488
-0.003647922702984545
-0.025190984877960343
0.022676452907212184
0.0281002316834645
0.0051759645162084995
0.007911987965535857
0.08696890079043215
-0.01974993837997197
-0.015970248345372338
0.005207394963648314
-0.0034818971289145725
-0.005481390432104616
-0.04103747814690243
-0.041635797640501716
-0.012845774111482144
0.06095676409378016
-0.039864997301049504
-0.0550812878103902
-0.016302073158337486
0.04853950758451701
0.022105862158353064
0.017422511613416902
0.00205947383100501
0.002863728296167504
0.005971422115296428
0.03534279226525956
0.003391250556563366
-0.0063771421814358
-0.015500768393567453
-0.0027144873780414556
-0.02441416001064195
-0.013135439428510236
0.10132400689033279
0.01792547893744786
0.015610776133795537
-0.006002088566476796
-0.026118943330502083
-0.09465528118478071
-0.04939658213106409
0.016124546563522697
0.0415118430031051
-0.03878461639092474
-0.018874091750781762
-0.008717950984498997
-0.005664950561501666
-0.03623890982955056
0.011791908359009446
0.007321884936971609
0.03797790931278569
0.020851582642980777
-0.012589558753700296
-0.005640518832085682
-0.020481888379363
0.013812183693219545
-0.015660433745661187
0.013909882043579116
0.027241708166836406
0.019948454555928787
-0.01809691567451398
-0.030195566690751605
0.06552235563362954
0.019376798427625894
-0.10353575930695921
-0.0443860334144122
-0.011818603958675056
-0.032478276103549954
0.002419748536290029
-0.016402623270607052
-0.040282315888361356
0.04371752147456436
0.008945413887125506
-0.012989957984926151
0.03493887773877662
-0.010025217057518007
-0.011497341374782012
0.06529335802220332
0.1373098911159842
0.01540242699652238
0.027437979216363213
0.01224583159203095
0.0019157661134120581
-0.00030937113059901925
-0.04145770134753866
-0.023427512533165513
0.0750471705003421
0.040211178788339665
-0.03126083278195948
-0.01866296379868183
0.003568747378119086
0.03385947523014213
-0.03554961658330987
-0.02263750824655854
-0.08421183799208991
-0.028799818614560973
-0.014527683274197267
0.025794193330260912
-0.040348863807618
-0.01979179272044871
-0.000982435894734359
-0.0004771419127176859
0.004372168744125358
-0.00734462814544946
-0.0009202093011192915
0.002904951023639523
-0.03126744162063347
0.11580357574898391
0.06806624384564453
-0.04034343556770754
-0.014481206244720234
0.01930109946773492
0.023502768528939396
-0.018298260692425877
0.014573583593774576
-0.05996949007601936
0.03785193620747987
-0.14827052474789684
-0.07132083631348338
0.028065668897833962
0.0661509929406891
0.04482546572838986
0.016795940965109397
0.08374421048793543
-0.013468699243890695
-0.060593558251951674
-0.07811468940646764
-0.013118740160726663
0.03790870105131978
0.017860030664354733
0.025465027825351854
0.05752727489602624
-0.012229792395410916
0.008454997849531303
-0.004133022027271327
-0.004463400258181942
0.008538802957550603
0.03592029620836936
0.008678445458798294
0.002673185521873363
0.008364533920949274
-0.04670344747451725
0.0025346635057059206
0.024081333162101332
-0.0066508712774274404
-0.15693006444002172
0.0031188159422783786
0.01197274676520341
-0.0023582500069399934
0.02914600181650353
0.03346710196398545
-0.025653311658205454
-0.047415359372498855
0.08566322729784771
0.06474349128189484
0.035248369531407434
0.016524467849943037
-0.013113795802668709
0.008883669529723224
0.024472719358307103
0.02626632441941262
-0.023253523670013994
-0.030401983610896452
-0.0068596400078698985
-0.012235407081182979
-0.0697209686500773
0.012397608613913364
0.003555176598965886
0.003313975126518548
0.02167569051959034
-0.006137891349649294
-0.0015383125642332942
-0.009279014985496737
-0.04002000134058467
0.009885982389238018
-0.04436074144293516
0.013749967180969712
-0.08576689697519188
-0.1148989786922802
-0.03113409226523777
0.02713534717144521
0.05972572598195532
0.006893875088225049
0.004884258827486415
0.0036498502958005647
-0.007216551039890461
-0.058507701235271624
0.05122991798426632
0.04859326703267616
0.0264268222133524
-0.03556833179940707
-0.005582134131403649
0.05155543013958877
0.03371483903810219
-0.017948786139888775
0.03722017970484664
0.07375399436971322
0.020401346020550503
0.0011720273580215735
-0.013495788694447921
0.006491937384982573
-0.000672007928378705
0.02239047373195324
-0.004360003731558768
0.04010085220395636
-0.00916409255419783
-0.012780241507483676
0.03335250886644281
-0.04054792596503052
-0.011564731359149238
-0.012145496492365003
-0.04599917524881018
-0.023735742389528025
0.03148200740942934
-0.018043344257691704
0.002728545080066389
-0.010287484679076307
-0.015505247823562654
-0.06640788338169046
-0.03448056877964667
0.013434505549267815
0.010538800410807892
0.025123041919249144
0.015361003196332967
0.03196400279548307
0.042701586627595066
0.011074321935943227
-0.04062122068236488
-0.0054516166925335716
0.03788225427819855
0.049484559272046785
0.03546813961545871
-0.03876403911977064
-0.0638221289085579
-0.04316662954250893
0.014217389214103619
0.02038496539500683
0.0204776456392842
-0.004076889449834835
-0.03469775890434844
0.006823665779919742
0.020376590543542843
-0.02469255814666115
0.008678984645997966
-0.02768928453202884
-0.030858818887538254
0.038788982136196345
-0.007033791051309401
-0.006869302771258511
0.020207920503599184
-0.016324882386787302
0.00029904739190563835
-0.005326680419110054
9.870047850051082e-05
-0.013175933176454036
0.005776480212520483
-0.01635379137145292
0.014633508858117235
0.13955889620728723
0.015998548590944732
-0.04000038506753834
-0.014163077443965857
-0.03171367612728902
0.0644368608086946
0.03544558577696388
-0.06747926434569956
-0.005033229425888349
0.17609257517906124
-0.15335079093441795
-0.10447850284138782
-0.001972545459455054
-0.04172272887149893
-0.02070926431615119
-0.013717559974277557
0.009896854874637828
0.0812510281114294
-0.011874568275614738
-0.028840306201311134
0.02365439571629094
-0.008214688610503097
-0.008845802300362497
0.014604125904449787
0.011158086075376704
0.023668286006295405
-0.021872523043250703
0.012616207972905254
0.017518655504398975
-0.0336665241169928
0.05003134457245964
0.007089528826445366
0.035147293724762364
0.00819359948127254
-0.01194238483579318
-0.018908247157274672
0.00035362228820488004
0.08312066873676262
-0.14694069957670813
-0.03839341236027443
0.0869822094882409
0.01641574226977893
0.012575987959390937
-0.011055108032369358
0.06888793614033904
0.010338636642666852
0.0033205484823822106
-0.04196050787106543
-0.0349909545000902
0.02359522163767839
0.014296915367552496
0.015551225713709692
-0.005528805768678795
-0.03194958247386512
0.0035691090094791753
-0.0018154949808253666
-0.03798425050327346
0.040083538521997225
0.0659796236747802
-0.10943401140163181
-0.07620503147402562
0.019612424799441704
-0.04535146551978634
-0.02151882327134953
-0.0030180873781621206
-0.024556587185030787
-0.02277138683354385
-0.012168122459416113
0.005908240404638393
-0.00048185527442571306
0.057345809395861064
0.002920340245658078
-0.006324630246533064
-0.024225939781877103
-0.004794309418338515
-0.038848558624580774
0.036820615702134324
0.12115315218973663
-0.04328631614755649
0.02995263681506567
-0.04504185777545056
-0.011710146572130117
-0.010982064004391825
-0.0035283290927799874
-0.007221281626030339
-0.02343235401522035
-0.003648022724411088
0.002826175199570833
-0.0506416388686731
0.029686694771480407
0.027079876004197128
0.09482076378356737
0.044745742352967396
0.0024892530936994517
0.005714503337181497
-0.0386160807597297
-0.01662003474851919
0.0019889369846444985
0.013263688893529892
0.014506072432941518
-0.019738835604681166
0.0016008223772729408
0.0033408745666179763
-0.009473085030257575
-0.010431753102133862
-0.016980244206711636
0.010787493429609772
-0.025448905992167214
0.07370037991280437
0.17387843708560338
0.07934385210095417
-0.0609501165806708
-0.032834947624548895
-0.008706246467772885
0.022474256768398846
-0.036032304779016776
-0.007320538362741861
-0.048776194244133396
-0.0025999441998238995
-0.05410793582438811
0.05470579692517864
0.13880962251911702
-0.07683277542106977
-0.007456518666118266
-0.019521428450008878
-0.02943149234261909
-0.058103001662825934
-0.006745926293805966
-0.02027935164455598
0.011945805173620597
-0.058945597453695715
-0.04397928928644854
0.01696557938050237
0.07222350651733335
-0.029708146612582448
0.009400164715011794
0.013831977683484641
-0.0283116693326907
-0.04501741165116729
0.0037637975485980604
0.006758932686735271
-0.001140289495070201
-0.03043710682394538
-0.04085725201320837
0.025769247012495892
-0.052782285656763815
0.02739786949169751
0.09205262481346595
-0.02262380694175289
0.11511264423095152
0.05490193709469863
-0.004887009000715933
-0.020813485514709698
-0.025340738559400455
-0.004923711310627662
-0.0062411536686413195
0.0026115914007680064
0.044762477964138764
0.053714655200579726
0.012673132040035345
-0.028165456655550477
-0.034827092272230575
0.019638843665076188
-0.009282535042620206
0.0026606288542967665
0.028749334273118363
-0.0066882727260413125
-0.030369200218442798
-0.0406374747872421
0.018658373149474508
-0.0804416933140269
-0.11073280004783852
0.04264912806225269
0.014709884223486607
0.009654437139528781
0.010008922141796352
0.009683358711690303
0.0024275108723272143
-0.046619850804410126
-0.057999937618081344
-0.03633036757630055
-0.049276028847105725
0.1068505392167923
0.033183936531454475
0.003316413637210843
0.06105017745757514
-0.006543817513804437
-0.0287933428642127
-0.02400884397284714
-0.010516283619719936
0.08398440993184333
-0.004699836370610341
-0.004911076111651183
-0.04051459148529137
-0.03090476191727044
0.04225545679065372
0.003150520324269826
0.011578827656748327
0.011835345017707328
-0.031424159869111554
-0.03901397554753477
-0.04557218626581234
-0.03812421325619115
-0.015473511958515837
0.13940677710368887
0.029048269896513938
0.009878347683113027
-0.010711646022756902
-0.0030057288192824523
-0.02201970331831954
-0.009294753743047921
0.0030821324824669163
-0.007957949027697718
-0.015452420788123122
-0.015548229861417998
0.04055676412846627
-0.0025123428160542995
-0.01444835888195425
-0.0003716345572190016
0.01925198015155457
-0.02075568115448444
0.020476726842054475
0.018039647742613244
-0.000384902653864983
-0.011314366894703207
-0.046577603379070666
0.0533069020901034
0.076009372153902
-0.03236155671584039
0.014991540502792704
0.017957772111376637
0.01156533189401006
-0.05943725465348267
0.04821953369672631
0.1233636948869552
0.009260672765978238
0.0467181563674866
-0.030600892299681336
-0.034620433917494316
-0.01735939455265824
-0.027971595490973236
0.011356634907413121
0.009146888128044959
0.05430779343047346
-0.052031811861926014
-0.08932786869577658
-0.030183698007363535
0.029759362493793802
0.016752578954775166
-0.02635194198325787
0.017533393603877182
-0.010213472413005062
-0.006868611569886639
0.02538120659887801
0.00034927737517738525
-0.01845157526070878
0.008662668133466968
-0.008799131337464058
0.003254150872322151
-0.022005671173804132
-0.022210489876106305
-0.07435583885342856
-0.008434773167009142
-0.016350570078061143
0.022173078595634707
-0.009232417143450437
0.0068681803946781346
-0.053882978783592925
-0.045305060098984946
0.05423078712787858
0.015308637213064628
-0.01391643340115663
-0.0005729035119963235
-0.007104148848666273
0.03781490862970679
-0.03399066348770102
0.0423699776123072
0.01119597708140295
-0.0144314656716435
0.008866948950067404
-0.007175940215013954
-0.021212179666950513
0.07576806934524237
0.04011639673757743
-0.07713432409956905
0.019165408290930018
0.0051224447941920674
0.027421679267050667
0.0007861419895975538
0.04623595963072775
0.012079550067086104
-0.02594677498810871
-0.021593249020715077
0.03239163144250796
0.04146665503811099
0.0594906783699976
-0.021774597109365586
0.03276352409362125
-0.04595753812433553
-0.07717166610127736
0.026988529687067924
-0.023714584873924915
-0.013121458898909808
-0.050293306235596094
-0.03407810476343187
0.021326925760639336
0.0032742406745944882
-0.003290094317852595
0.015537049470137645
-0.029273918186209318
0.04871931677601167
0.012312132119929932
0.03203950689216728
0.018510869099045032
-0.012943345117500284
0.026986378773134544
0.030518914662035615
-0.030575426322671576
0.02493060663671845
0.07372258746606918
0.012198892358847255
-0.009311054007642731
0.0042978722246493515
-0.029694283946499766
-0.11732838112410068
-0.0011021825609348267
-0.014952133715656133
-0.010562468635196273
0.03139584649127475
-0.016972824384720704
0.008701888669380027
-0.0016242414258488497
-0.023800792801733577
0.040023143106085644
-0.014950719556815898
-0.0024619498143796338
-0.0002630091716630253
-0.0028585426954605025
-0.050973474049444974
0.01904021395636558
0.03893002696202922
-0.005194169029228981
0.01913912748219455
0.01606092045483655
-0.005066741121731708
0.019648357355024244
-0.12742564622943514
-0.08024317810937791
0.04370037031134859
-0.031698573147878904
0.0018878252851132692
-0.004147504307769405
0.06334236800924933
0.0062594643823459676
0.0036982344768763087
0.010571933233959536
-0.004125817166965758
-0.04334750001381703
-0.076358741618428
-0.095492499885932
0.03343464634822034
0.02543354986223862
0.016262166515451582
-0.06477278361594316
0.08176846087808225
0.17247803821843977
-0.0018297223033070657
-0.00812143495883841
0.005323571568620431
-0.0015308104517452582
-0.011735153520852344
0.004181741456487854
0.02025691908209384
-0.020324905712773688
-0.014450188794687893
-0.04989713107245417
0.018143517804491967
0.03956406737484156
0.13311731763768941
0.011948299583662529
-0.010024733025634279
0.01031553881260257
-0.0019414938162433952
-0.00014193195898896843
-0.02717680879978398
-0.01741181682319096
0.012735410175345607
-0.070601098522501
-0.029719737256503852
0.04388911934279246
0.0034580909868855898
0.010775082496035952
0.024576313461386612
-0.021868495805394742
-0.012383296741517478
-0.008369984661110755
0.0002244552286251541
-0.0734078527679725
0.11912366636622802
0.1309247214770014
-0.04322134613690656
-0.12437373545854528
-0.04500303085958982
-0.0559864575808329
-0.04159924345029643
0.022025178683834586
0.002569029985889452
0.014487595076736403
-0.04788822336433372
0.003230598418580747
-0.030735519306797653
0.02883737759943684
0.16874393847347421
0.05260096136394723
-0.018713397807770323
-0.00904209481525715
-0.06069807939691594
-0.002079101615780574
0.007592646619428701
-0.03352993625017798
0.021173023409424008
0.0013493949231002435
0.010787808921977575
-0.01291551419699655
0.03968887378916521
0.017375099170606756
-0.038161164954357625
-0.02028312442068655
0.0005652361237259824
0.004803032484205015
-0.012574094868556053
0.032492490247556724
0.006890381177723776
-0.01156369617114878
0.002605643000079043
-0.03292597021629163
-0.014730412198861542
-0.020077991283990026
0.0008883355973204022
-0.016138368361337377
0.014067694908141156
0.0010340778762287747
-0.007391582945753595
-0.006321722164615298
-0.0032006330680698306
0.02575181755134083
-0.03498442034449441
-0.02483361893616936
0.012804066957103736
0.009278193280922217
0.01089496518084729
0.03806660498473405
0.06022748621617321
-0.10247480109679863
0.015219615747415427
-0.0056563620340307165
-0.005964637077748697
0.0037987200829372905
-0.024422852752667736
-0.01771499365011624
0.01090034345549556
-0.004592777860023058
0.02309338741197386
-0.028966071358116272
-0.008005749314166954
0.017870521380217393
0.00019986892837450376
-0.049272524716600076
0.029020286214027628
0.19614655313692772
-0.030355061201067797
0.022556459925162732
0.0050956312742801
0.03695024637247929
0.045772725828909455
0.0058023403680264995
-0.01439093761970438
0.0030748880169520825
-0.015895238555444828
-0.01308422669659877
0.0600048191286945
0.008475406000276678
0.018789430354684142
-0.00980810820355489
-0.03907940838685026
-0.03034143564422451
-0.006253174627068037
-0.037187365598053294
-0.022847376582475345
-0.08781082129794411
-0.0629967015939682
-0.014895328236261017
-0.02217786306984888
-0.02295167597826135
-0.038852014766446605
0.00405372451143384
-0.017960672635495948
0.04555387045145413
-0.015962664166190275
-0.04831909089734971
-0.022979355603326243
0.052557813398680764
-0.001067268254801916
0.084697871022188
0.09026434149433649
0.1023001584092452
0.03540354495763581
0.018899334862660405
-0.008704232565957008
-0.06515398156559778
-0.07064140642021924
-0.07143667133394173
0.0025476185396849415
-0.0006388800403428166
-0.00024789005235099963
0.004700319541981142
-0.01780868361923835
-0.0020972358343082564
-0.027613674403442756
0.03647317769456234
0.04866399189427372
0.0456348870179396
0.021264538353641966
-0.02747864110090011
0.004199419486089566
-0.010492781957948094
0.009303977301429817
0.011136428156636877
0.004150531574409921
-0.0338000931615615
-0.01222132693746244
0.022683741074764126
-0.05486797661988431
-0.09840136157864078
-0.022638483124435393
0.1284699522306022
0.05638771497936585
0.01672159745470725
-0.0027392233811550674
0.0007079161351587605
0.019926154982699788
-0.02866692948991821
-0.00012806313531844274
-0.02113223202319871
0.009545044561105186
-0.02857149109090771
-0.03475998738252595
-0.000726238618610377
-0.017255603946404335
0.002301237534525763
-0.012195286802179055
0.01463562246556271
0.0018035415525094961
0.11809399293541464
0.024957828905004916
-0.04834783051830775
0.006617839240807881
-0.008360269728575644
-0.013542929461327676
-0.01986707279837835
0.04958586035018007
0.02308089648948317
0.018845424297491514
-0.01785065653247877
-0.028492526897230624
-0.02553631514086549
-0.03153785234996449
0.008940209000474191
0.0006190738453765381
0.006849838175813176
-0.009253682299630665
-0.028560257661733198
-0.007003749620561554
-0.0011518742366599614
0.02890788272045445
0.01271863984369873
-0.010859559627035224
0.030812220090254677
0.04407273802448799
-0.027811916158435222
-0.049274114449276936
-0.00037949957976929105
-0.010077636701675044
-0.015566142030616778
-0.014714291465656356
-0.004508673389863968
-0.02674221135020917
0.01408274145113574
-0.010200527623300598
-0.041331346485075186
-0.022815947565501114
-0.013910735137506841
-0.0040186910693274114
0.0032239667109289884
-0.013074500899271787
0.01719235506282683
-0.0016428781565593735
0.02887896946763858
-0.016301180366190823
0.013081821382272377
0.025044315557074932
0.03527651600556662
0.024928720442049662
0.030610539598565658
0.02128155674764406
-0.011864171223337555
0.022852356722708043
0.06400698740042955
-0.011445440196221754
-0.03254009360313238
0.016663239291126897
0.0574822986145006
0.021908749956577895
-0.016244024261952844
-0.026820127536863036
0.0635007747663819
0.0787697619518562
-0.006748031102371228
0.03481550742493704
0.03551269254195894
-0.11766058939533408
-0.13208209217779412
-0.05188710403553948
-0.023871139042164164
-0.006396669016418914
-0.024739432491383755
-0.013676810683609248
0.07930041274171304
0.051125656210416266
-0.015081254179890974
-0.020298703137943925
-0.054211960387142315
0.044429771642864824
-0.009644056829955812
0.02435357396727146
0.00421035292772014
0.02762537728931486
-0.005713076731020928
-0.0074571567796142876
-0.027344885250836917
0.016525275448358714
0.04880694782999029
-0.040685234654446685
-0.0406228883039526
-0.015171453214103476
-0.007151907065647668
-0.03983160522971078
0.023759505495239683
-0.0070827246076398225
-0.009099607791186794
-0.036369208613425914
-0.06745497396106327
0.06860579713533146
-0.03778627926817492
-0.007866077147863727
0.023265983108587157
0.006135983649523019
0.025119097606254207
0.040265981508448005
0.008934888796683988
-0.07136740080165917
-0.030858023268492907
0.03656696107977617
-0.01367839591656587
0.0058984024042078665
0.08260955581742525
0.04593713705832051
0.004675479369790656
0.02028829375424319
-0.026488958857882484
-0.0010378104159834037
-0.06276274928983043
0.004745313507629577
-0.0028993534162875013
-0.001252736017537143
-0.007621384324006844
-0.022788509842338045
-9.23335430387184e-06
0.0168931822744808
0.0026900307479268046
-0.002333330798085127
-0.011238413357507703
-0.021330771388895855
-0.0026981184796122963
0.005446759480540854
-0.052126357983550226
-0.03185755613658169
0.018056103596126232
-0.008757498138314654
-0.0015578364305941581
0.01325108141425598
-0.0061724297119762645
0.026539143752446936
0.01331395472266618
0.006945409112993036
0.03658449560081319
0.028235486169058015
0.0938234968756985
0.050835680443433666
-0.02634467042569846
-0.010507556224135454
0.05507948785153902
0.08271002089964068
-0.006557800029690123
-0.0031013005448840237
-0.02933367356361396
0.01923101917761746
-0.0489819989897761
-0.05120624665617292
0.0023134034210936087
-0.005419236917929678
-0.005948273633207896
-0.016415702563828058
-0.010855477037097994
-0.03438276064176983
-0.0024557566974244198
0.006004602706941446
0.0030680095677058762
0.0663624010158343
0.14772582813721383
-0.04713206542582863
-0.013695276872397705
0.031067306157620826
-0.012321831786033669
-0.03939616528182909
-0.06320830172410753
-0.0230318523992015
-0.01564214162888583
-0.024253725736506724
-0.006477147290605233
0.004830292382573673
0.033362913348498675
-0.03849629043082343
-0.0036675082301383067
0.010709027136209873
0.0005481650659556974
-0.032442679135886325
-0.014285703415128212
-0.025177031416935936
0.004072703843864961
-0.059057604082179
-0.037283532293610866
0.013643363169574438
