0
0.00295991563439898
0.008729690020997948
0.006921005021408807
-0.04193363879524385
-0.018842126655339127
0.042582876992884246
-0.058886921475898066
-0.0078037438940603415
0.07031797566804929
-0.016832993681020956
0.010342598139804803
0.015029425548703491
-0.00700398407079601
-0.012623930569320265
0.003105748984683788
0.002611522771677541
-0.003411705687418543
-0.0022415399786205395
-0.030399505319652874
-0.011053939933727577
0.01491544760410258
-0.019838361466078112
-0.002361999856278204
-0.03353184799243594
-0.023164435741957305
-0.00478437271100001
-0.03567938807278039
0.006754902215127724
-0.019362471665043266
-0.03170137132018612
-0.007678783578321187
0.04845211746989498
0.06579537447435574
0.17599737283441969
-0.011272305396545978
0.06942892770220134
0.03567180334588
0.00947684142398071
0.08178866544498636
-0.03216937801013071
0.05513397932539384
0.09763138578493519
-0.0009986000179135726
0.034047060611812154
-0.010593018331681086
0.002682470761256942
-0.01514690403496898
-0.03636632069153362
0.0005157276652049239
-0.012632687565785674
-0.01858660507643373
-0.03135614432581627
-0.05208745537459765
-0.025838016894448625
-0.003292643833718345
-0.01193675224517604
0.012959603507120058
-0.03642070706326633
0.024017261980813647
0.013841000905425322
-0.021904925191622397
0.01772987999201549
-0.046115967477299666
-0.008371950160435557
0.028103429694160187
-0.011752472537361277
0.03139589271584768
-0.02025825421963661
-0.04783573533670106
-0.008478900404436343
0.03351246814780073
-0.013980868053863492
-0.09159697397811542
0.05985584714207084
0.01715383704989084
-0.020827839000381473
0.02744204266518497
-0.050657115915910315
0.011525787441500285
0.005853580746005854
-0.01608892629771847
0.0013166424104177072
-0.031141719407211808
0.007155854033916849
0.04413515540418366
0.034011550236495325
-0.002400299501241923
0.004763040522671119
-0.0422377906526296
-0.11360084124515066
-0.03240642010405932
-0.02796550511108788
-0.05451503704052529
0.12696513635752826
0.00478064172693712
-0.003432672888135421
0.017765271808334357
-0.013467154735997626
-0.026639971389600392
0.035299648077040724
0.039642293635900196
0.01569948712633487
0.009290264687780365
-0.0012496055332152144
-0.015336672115606262
-0.023534825019447012
0.010742758241806422
-0.0015312124243001583
-0.042172282742726476
-0.01701372107708648
0.01633665342240414
0.021726128216168508
-0.015859687825113492
-0.018168711782386462
-0.010756579559373824
0.0006388694736931183
0.033248420839473235
0.04484278870853751
-0.02033142366549884
-0.013661274142620604
0.0010993693711167322
0.0013454913961500066
-0.02195278285460894
-0.001004188813243567
0.002341448924976524
-0.016566611252713276
0.0038306414605324794
0.05131677156636691
0.15294837257464347
0.015336456398856058
-0.004054696787426016
-0.004608475185775514
-0.012448713036415492
0.0017516010057381528
-0.01786402707261439
-0.027348607609993237
0.011171141578775001
0.050601049433716
0.020009140017065528
-0.021549070688345686
0.02424074419325169
-0.0009155589224158721
-0.02740552927588592
-0.05723454512723333
0.014004169074951436
0.0028396255826758014
0.04023180517742626
0.06633812171525368
-0.026128239440898485
-0.009113444644111863
-0.0308657453073755
0.010896250609056395
-0.019634029357197377
-0.02662318861371149
-0.03898906621560694
-0.03234992371385971
-0.021100326238253524
0.0036853506957057434
-0.008962920011512405
0.03549369148041714
0.017244675171709054
0.028083091167562853
-0.0009058371177703978
-0.08525214157179882
-0.018994047113378244
0.02064756076057844
-0.026879198434242878
0.020991905583839097
0.06891332491240026
-0.06620875495621151
-0.13264065962406316
-0.026639891975360312
0.02390852453863223
-0.05320428983549987
0.16880219416276931
0.10278212334609432
0.013431068719210449
-0.01106355878604426
-0.004144060206708974
-0.002673735695022419
0.0028030317910516167
0.047822225100602404
0.03462266811693302
0.023985221194114115
0.023372289096482434
-0.12635704190638614
-0.025593064226808796
-0.004104571132384117
-0.029260228575195866
-0.027140147115168833
-0.12766817461748886
-0.008115575022978869
0.03465654545444676
0.011308827883125537
-0.005175817259036511
0.011149759716752606
-0.00239105134958985
0.041966903347018684
0.01285078689942833
-0.004468261240160381
-0.008243387133674666
-0.002065367840884609
0.014318458223793507
0.013032281105358295
0.0008810784622611823
0.01007668474092509
0.02420482910874582
-0.0032077386041948846
0.036431287304070616
0.007215897722931574
-0.0033324186089518566
0.0024600864312184618
0.015644555938206406
-0.0004651163128468763
0.033276436390330656
0.01802838306544103
0.006438564967210829
-0.0008750600117658527
-0.04187732943161094
0.058553811802609185
0.07220692229205278
-0.07557352535949859
-0.06565057194537419
-0.007153895562074336
-0.03174119043795561
0.0036524958967025624
-0.01656342839831418
0.003919744643559804
-0.002511110468067625
0.031844033220082925
0.011353745856659807
0.009230213285997133
-0.036019315567317176
-0.053216549797392494
0.008278630953479502
-0.026058048771289116
0.005206693223201756
0.004295967918689684
-0.017604743525094675
-0.01590409630635376
0.011868530796050705
-0.007769158831583244
-0.006447996597686822
0.03014541564043512
-0.026835049186537296
-0.024079937562318205
-0.025590353826799587
0.032286934318931544
0.07002348683265917
-0.02448363613302149
0.011762222528194265
-0.0019000433644298159
0.013458591120161716
0.013770564429887343
0.02374290828618449
0.05371232806509541
0.013563273165126106
0.0050095752741733815
-0.011759839314311436
-0.007851093100547706
-0.008604395201185448
0.02148948696073482
-0.05780575379977844
0.00871707896151026
-0.031182317276796802
-0.05552954801273798
0.026702087705692615
0.05321422760112174
-0.0074464144651853305
0.013589756486949605
0.02341610911149099
-0.025378252044421925
-0.02293961579572722
-0.01361150153910288
0.0035405969161380903
-0.03157751008791433
-0.023145957954695005
0.003996216644135445
0.012505066233470854
0.007527041196817552
-0.0005775703823449434
0.06149776606072814
0.07990378744177228
-0.014195929284947367
0.03600952298050742
-0.016379686640493784
-0.0017884683292174544
-0.01117232450961383
-0.007574057172639323
-0.030962566383737147
-0.00791953468337116
0.060434507878268366
-0.006082664758270366
6.739964351893762e-05
-0.006636461656968313
-0.013231809515826922
-0.014411539555906657
-0.0018749628007204428
-0.0078636892949188
-0.056727420728323166
-0.011444786679088981
-0.026750768383744943
-0.006245085018670842
-0.010611633289863802
-0.028387270563448433
-0.0211402536804662
-0.024516446152038553
-0.011516231770818364
0.006042799667979658
0.01889516159764777
0.027905945792832117
0.0008867804069627482
-0.019025886116657762
0.0046858356118721954
-0.014888457947542108
0.029354473802656895
0.05651414539891327
0.029685003269362794
0.022762176943931754
0.008194077099720571
-0.08048120270902161
0.03968550248077488
0.022697252497971217
-0.005958049475477683
0.038988496683717025
0.011943158334370175
-0.010261264695256494
-0.003957374181492673
-0.03748423114161294
0.0367149514308048
0.04913007992502635
0.0344639657660156
0.04824270029262653
-0.014445791937998347
0.033507744176208644
-0.03691470631229643
-0.028754250376567803
-0.039824788983727634
0.029809912140900233
-0.045945384386587365
-0.061419368011388406
0.04486543760874982
0.03415702055374076
-0.01908441184987068
-0.08752821172764695
-0.032333732784087174
0.002438239248672356
0.010528755831985658
-0.012530727257194675
-0.031173061710853583
0.02287674212568115
0.04709872632626991
-0.008524559095989023
-0.027726022149838762
-0.026018062848137163
-0.011056196983980505
0.07072767654619125
-0.01185430928919612
-0.006312953866244316
0.010878851854735408
0.009346727374261756
-0.005743742590565026
-0.002929606924668075
-0.005099434754238699
0.0054490290537549035
-0.012832015760888845
0.0018455021273339524
0.01072737332031549
-0.023929540308099198
0.005995956852768212
0.001351387343080281
-0.023151705873603465
0.007919799749387623
-0.04064111233842056
0.0017840723715797523
-0.00774338212978129
0.052968218634639574
0.009824199761910101
0.0317000269561277
-0.0011654312829157023
0.04171829576273562
-0.005786852881864718
0.02402875860565285
-0.03724539572583144
-0.07967397999321958
0.04376378293087933
0.06774739638687344
0.005148953144264222
0.043242683879736225
0.03053020408563069
-0.06752836319358735
-0.01786282734938213
0.021587051979470587
-0.002383130586391735
-0.007407668182224966
-0.02502852255039259
-0.007862724432487634
0.03438383440944066
0.01700363673887896
0.03012942154863299
-0.020139753674211554
0.00943409569460218
0.028496214257130902
-0.006271151365926749
-0.021472565768345244
0.01964896253105077
0.0444177296584218
-0.059395060977930354
0.01808444130367402
0.014740242719293372
0.009147525391577694
0.08594003044644946
0.0016909046795052392
0.015992862053860513
-0.13562172427946823
-0.04845269599059628
0.015311851607054502
0.01082208223092944
0.02226077155582304
-0.12316250997849001
-0.11084771338697164
-0.042473348154746286
0.07671111236170057
-0.04611261735696117
-0.05160337636186476
0.007346834133392006
-0.0037112677784624727
0.018128848492815906
0.01054139262574302
-0.00016216116573886048
0.009713747246266093
0.02592668480904239
0.004810873765213961
0.032336885222688266
-0.02535578419190014
-0.033753202187109116
0.04676485748805701
0.03106397674795406
0.0033560524205642657
0.0006816280263327919
-0.008064808538663041
0.018256544866524033
0.06427022893405056
0.07017833732738069
0.02669906306309281
-0.004513973670400575
0.03300768050587972
0.023034586288603043
-0.04049134025556041
-0.07128395441763742
-0.03303320792283893
-0.01478355253481633
0.02473105219329184
0.01792206140593591
-0.026621839302708766
-0.010565740941959875
-0.0029039250322227496
-0.023602776950013615
0.0016209456687528584
-0.029906012860954703
0.041234487416259125
-0.03088527854529713
-0.06462805639368163
0.04262228952407276
-0.0019441537311059606
-0.012756763356097631
-0.04802112778605958
0.02704775711648902
-0.010042826548373126
0.059304037169310646
-0.0014245359910860793
0.002687170495479451
0.027862412884287976
0.045580704727687715
0.0102285890902699
-0.005791384996529836
-0.014890228683082509
0.00443704725450206
0.011318255155264892
0.012791322983168516
0.08873328910251126
-0.009956813698525904
-0.014742436429056937
0.015792336234916056
-0.01726326545962612
-0.006922608903746409
-0.022838373067107492
-0.022051560873489258
0.003788408213996385
-0.004486781583968315
-0.03454243967090212
-0.044345366927523444
0.0012292994790703586
0.006538546128662467
-0.022727417505415355
-0.004867676722571229
0.04580657236797648
0.01155950875269492
-0.0060351644995087755
0.0055329592987175364
-0.036638753669257215
-0.08572696128076462
0.00180139288906359
0.0466868895920223
0.016706168987362217
0.007728938811705103
-0.046238017642351616
-0.03657570754458835
-0.016145123613753257
-0.0033894981603092567
-0.03962849416381412
-0.021875253743287058
0.053888922011484715
0.038574103801287576
-0.039304591407661876
0.0023295651598658628
0.15063324478970833
0.07652660660550271
0.03189294707824811
0.01588882845685867
-0.00300203563156976
-0.0022376082826625053
0.003257686445753811
-0.0047927564243532336
0.06566070961573559
-0.05428854595214225
-0.08539121370867042
-0.05654812208908092
-0.023261334241897535
-0.049072098722232706
-0.028704214081440138
0.008143698063144161
0.06875251256033493
0.24642976671626235
-0.009752157024332256
-0.024494471688889918
-0.02905187794702826
-0.03038783073288149
-0.040393645173318685
-0.014025974662751128
-0.09318421536018545
-0.024565257380180856
-0.04646295043820164
0.00620988712000034
0.010739051986291952
0.11921423753017858
0.071776734228657
-0.03422387783380997
-0.013953144466199878
-0.020792148893401776
-0.006208172610384427
-0.03595910078112636
-0.0473583341668753
-0.01652198216791131
0.02531346799734767
-0.014434365889367551
-0.0272830709259287
-0.035187014378773925
-0.060944977414388285
-0.00882276943542724
-0.011123513864251717
-0.030053983988196715
0.050579491954279784
0.05356159408798973
-0.028101782128130297
0.050399625275702006
-0.015931659182479782
0.06254978224665535
0.11762701741836587
-0.052546824312228714
0.012371166535709329
-0.014539970868489054
-0.009577533444840209
0.0803923717320663
0.033969270315504174
-0.027216619915314537
-0.024431821569755062
-0.009369934700408894
0.005638780808276247
-0.009435085736389404
-4.350150993965526e-05
-0.015375158869395646
-0.023320876682079744
0.011823753920133778
-0.02417182028717144
-0.009237758829349357
0.03206509570843804
-0.001344791919083133
-0.03407568271510764
0.21801886062962914
0.06063475081422138
-0.06012051782826141
-0.03218156430297166
0.01777655823536547
0.03873890759582859
-0.043250472089055525
0.010124715311347614
0.01603174467519326
0.0007845975057775167
-0.02474607373679293
-0.020148739059949933
-0.05284720306317233
-0.017555921930659975
-0.01665248341077297
0.016043816664514595
-0.03340875903519866
-0.041942124013133686
-0.05562631429625215
-0.01571047585352814
0.010002343780825304
-0.005406748763211242
-0.044588493651004014
-0.04472952872897232
-0.015688577912051083
0.0020654441511982462
0.014339595358352015
0.0051773846523312465
0.03799071018580401
0.05049774664029133
-0.050019130619841895
0.011096207996971875
0.014367320114605148
-0.011455426855808637
0.012653785217112998
-0.005426961487723393
0.000914459459787208
-0.002275331244880908
0.033729216998080964
0.03255222931014359
-0.013850594347548137
-0.023222736642528264
-0.0188008021098086
0.1057680851403207
0.01432711996606797
-0.011784776679106242
0.029001426781152105
0.010054648658861014
-0.004640259034845111
0.02172631318488045
-0.020442797503596167
-0.04220466264766326
0.013867752912705452
-0.023957838083062146
-0.02948446853012692
0.008892204837035345
0.02891359813001548
-0.029458658337931334
-0.1184893282701533
0.005093659733821011
0.023236098668654108
-0.01618287173625107
0.02107085818078789
0.03543291893875831
0.0017454510025329602
-0.005938384920050842
0.014617133101249074
-0.03348736850382336
-0.06997684088479028
0.05391003428027509
0.005248454453512729
-0.01604719676735022
0.04090033122729603
-0.017863662128374463
-0.022323404601052005
-0.020948112004717828
0.0015454600136389372
-0.009517622355703307
-0.01998924546160173
0.06637840489544149
0.016520945988307823
-0.02942009844170129
0.014196366434448816
-0.0027304076638107514
-0.013483325535283907
-0.06543059079189605
0.113606790568378
0.1530654659184351
-0.00439075827820163
0.003846013660433286
-0.03241432610499253
-0.023763509660619797
-0.009137111954878605
0.026491443766666446
-0.013961875813479812
0.01595523136625253
0.011675814151400758
-0.0347179533878794
8.764971907478554e-06
0.007496544052816514
0.004603879084083089
0.04603910215882721
0.025865262678185584
-0.0308623086656783
-0.014327873162120416
-0.008146039400389408
-0.029841985092963007
-0.012118283540030155
0.0004987835464181649
0.029749560997744826
-0.02290321244008027
0.03773969766420986
0.029016300524490286
0.00845781885795273
-0.04035475817639607
0.02445288073755022
-0.014756679555424463
0.04453659929953648
0.011610205982516919
-0.002800882469167568
0.006209195528582135
-0.04345616213414466
-0.06441106454785123
-0.01349304478623986
-0.006978367298431331
0.019330035935626728
-0.016446424982469628
-0.004230237367385163
0.019336158889117213
-0.026759165654122608
-0.019321357205362117
-0.09025097015910288
-0.03307949637381551
0.03234582805268611
-0.007763984594985495
-0.0027644040802149226
0.012456306389709015
0.03971899244948414
0.02336793730047136
4.4595233650999064e-05
0.002851617027338763
-0.059204276088296426
0.0026837843790096026
0.08150888463589966
-0.0005927157463449272
-0.016019220876698173
-0.00607580427011758
0.03963703752659411
0.01250034918484278
-0.0024364487498607966
-0.026844433705434552
0.005691698065733767
-0.010441594924037791
0.01205230324993392
-0.0074298977487780435
0.0246213765653348
0.007115466246573104
-0.012472610283553863
-0.0206243212887217
0.0037108079138587734
-0.041705516247050455
-0.11491915030188894
0.017143376339817083
-0.026870230970490936
-0.029086512883810676
-0.017291421555075567
0.01096356942740155
0.005265038161545211
0.019567111929327807
0.016668879316367496
-0.01619253385719267
-0.005999697999544805
-0.05779057358981296
0.02136459818233931
0.10052136722800563
-0.0076450534654415115
0.03585547646013943
0.10297447444054561
0.07010693040222955
-0.045074490974029095
0.056223098384560806
0.11239774456619298
-0.024027022328736488
-0.025045995176181644
0.016036082573646776
0.03546821579630822
-0.0070374310095235775
0.004368387867925879
-0.02735292976050406
0.025473513156912504
-0.002719156283562518
0.013903543315438456
-0.07944865013066228
-0.07746699519397206
0.028587135670233417
-0.03272643106706967
-0.01749310014695408
0.001605234163921897
-0.012863842160368863
0.02518798577413642
-0.002714111925711995
-0.0008307962797542935
-0.03820945681005905
-0.03557178907391022
0.005122528591537232
0.011736862550202438
-0.008766172184550862
-0.007969647176070826
-0.01415072567587424
-0.02414540086801506
-0.01785097822473319
-0.03331866134734726
0.029522353363327678
0.03804365093645773
-0.06264406090608884
0.057277696268226076
0.1252699162034533
-0.0691088539548877
-0.02667708505030495
-0.006105191674276345
0.05224110661742626
-0.01753806631497239
-0.005314791569401348
-0.05196984915507223
-0.01572037508857513
-0.002670109919980309
-0.022615450624650507
-0.03498200653735475
0.004594709941858497
-0.026227156122240903
0.019752340394991786
0.10545205927617719
0.033525339000581515
0.0032155887799283378
0.01633568451170358
0.0014342272554866253
0.05645296944501452
-0.008241935750934352
-0.025917803656472206
0.013448145787373944
0.002619086175602151
-0.004689421228773746
-0.02428704415549304
0.015277204127278034
-0.008082215191155553
0.05908817762006699
-0.053691001132818224
-0.027398153120200705
-0.002209595730971798
-0.030229451660710654
-0.012725720842898152
0.020687061295524462
-0.04733233766604694
0.034295260613194156
0.001421263971515543
0.13474896572774434
0.056197462635794906
-0.11991719657643271
0.0028903582435687437
-0.007381395528630405
0.01038095053420696
-0.014627014798032772
-0.03181375869255156
-0.07718655041165588
-0.02668885035342208
0.024467937144792885
-0.0056424397728134824
-0.05267775730645801
0.009036270811805152
-0.013226832103377075
0.13868271300575324
0.08077154276726106
-0.0802346663380847
-6.24506081683581e-05
-0.024907658510955975
0.008353457506287977
-0.028641200872960536
0.021948232716625375
0.004058122042871223
-0.02455882773204749
-0.04045917052911278
-0.023278651157615342
-0.004906466111836425
-0.007063081470265022
0.009987204841377887
-0.018802002708936266
0.03983079003107673
0.026953399150615794
-0.028889876190689234
0.0003437280076898139
-0.02118939661699157
0.04205292682399913
0.06052563406830538
-0.026480506790642393
0.012568880909296821
0.04047872726860415
-0.02616808795749169
-0.0034718323411468887
0.053976549298306246
0.00277705145951477
0.006107837639646716
-0.01163450566954912
-0.007324872775955609
0.0002776132684638058
0.004359897454925204
0.002972229663018501
0.0114416024586736
0.010077274784033157
-0.007502022130176753
-0.05666493119660838
0.044037259314455866
0.0937996399108555
-0.022577793622303
-0.003817368340865731
0.021901803593368477
0.0014948119037089518
-0.011288721702353422
-0.015820026083842986
-0.0007945245087080546
-0.012446964722792818
-0.01006969937247097
0.015287817258651287
-0.03484393747342212
-0.03653435536475327
-0.0018169840463331695
-0.023189576335582215
-0.022363935041347174
-0.0027716424908616664
-0.010410025453918602
0.0089993826388075
0.03309805385445987
0.016901426197524227
-0.07659901556298761
-0.09056004696429995
0.00793453291339965
-0.013559218066798454
0.020533970788452933
-0.001482084553295702
0.023057547526971582
0.03674652588783679
-0.01203243155326534
0.010462368063164647
0.016693606499561132
-0.021194091004373666
0.014285319912927832
-0.025759350431719456
0.002727467685021703
-0.03382875895863736
0.01933569939639346
0.059579385020093585
-0.02594552361521678
0.043439071833259325
-0.006991855533259459
0.007030619055544746
-0.003840507189295295
0.009993926911906833
0.013063160625746252
-0.017534183117094152
0.025925598514877374
-0.002213156485251649
-0.043925142802346724
-0.03334312100723619
0.03601192020114226
0.03354777818354816
-0.020332473934417457
0.010334200432830709
0.024360054564817074
0.025779152165999623
-0.03346400528051105
-0.020450549921353478
0.006468330479380497
-0.04593100009056831
-0.015569857452678122
-0.011417854413930086
0.0010302255185937258
0.009915292926474556
-0.004859582866592401
-0.009427975814014729
-0.016669094995849346
0.01355941504632234
-0.011941403516423223
-0.02358353274417171
-0.009254453599642937
-0.00404729021445709
0.028128360315203774
0.01550493485224571
0.02092150014351857
-0.05042516824137012
-0.03720666982098825
-0.01553808164937295
0.01421287924355318
0.047988059910784454
0.029547758398477317
-0.013221509870138055
0.030300821096529554
0.04817978888707018
-0.032192250896710656
-0.012227823275755143
0.03893280466682822
0.1543360893938681
-0.008280112921896364
0.0038172425780124857
-0.0008982028413207198
-0.02453232432637552
0.019040063932531073
-0.011620568761246031
0.08606601488837265
0.042093318822683114
-0.01078191079083623
-0.005929911209834471
-0.05202931961314725
-0.04598223554651252
0.00982798287549353
0.03247137023200792
-0.007691829768708981
0.05890160868896874
-0.01168887617773305
-0.0059952391167705935
-0.007055215721748424
0.016869515610604277
-0.007088255093745706
0.041283815674973384
-0.12424066659407572
-0.1236543870153252
0.051282479194641795
-0.00848368610663229
0.03795979107074365
0.016430877748167715
0.037458210664810275
-0.07882032148626247
-0.08136804541783568
0.0168825922271239
0.018801742068613583
-0.006727496243212383
-0.03702219936434245
-0.006270801159837984
-0.0027084931346206087
-0.05536104472431148
0.017511238618770575
0.025653809663680215
0.005495577936180939
-0.030360790153710154
-0.005337293080986526
0.013379575062019967
-0.06808932570350988
-0.01425229019731492
0.006480422229813348
-0.0011019366371450344
-0.001379305575961303
0.01651965513501542
-0.04185742019350768
-0.00040967287362690414
-0.027136592725846228
-0.014271408728581859
0.017840000353897822
0.04525235561912669
0.022536737466456753
0.0008101743302175855
-0.02324058487180681
-0.005265299732845498
-0.013125062353471452
-0.003539917277011051
0.017246642694629444
0.01638336998129319
-0.015120226373889102
0.058273369175540664
0.030270221367746816
-0.011999398794152334
-0.016925537475701222
0.12561082036096158
0.10433419612455598
0.02303449992961121
0.04513241462404429
-0.05379331094629219
0.0012140112039044214
-0.004510148820373418
0.012898618249919499
-0.016472539256411137
-0.02317041338226971
0.001902522485157434
0.04009564308951065
-0.003749533154166185
0.0075089290658901875
0.03231341979665897
-0.017388901666256815
-0.012484491228146497
0.0004203544896982297
-0.055423631695258616
-0.06021112769432924
-0.004463548821366977
-0.03649241001974216
-0.028260836347941538
0.005857195182165058
0.09306941986972388
0.013625659057315798
-0.03640430692577859
-0.005526229941336112
0.029607327682448392
-0.053761586489493446
-0.11878867907504567
-0.010005680410272782
-0.004937362572710023
-0.019188120694628302
-0.04180345846212048
-0.010350525662909173
-0.004793282340220151
-0.027843425127389812
-0.05631176680295954
0.006365896212994218
0.06844534890879524
0.0772242879456769
-0.017584092571529944
-0.014962484605036424
0.0036653809133333254
-0.010156001645127671
-0.059125210003187295
0.05273194639451194
0.08092693088333182
0.02852331604497346
0.02301146015965737
0.012018785676744786
0.02469726019281639
0.012086231397874233
-0.003978826613092034
0.05123553084149248
0.01299888455083625
-0.002517298539197389
-0.01724549202768645
-0.03458160981769884
-0.013742349432904453
-0.06076164971937593
0.00862967899330966
0.007057122315071772
-0.002605597817520997
0.03086837239689343
0.005666177899846913
-0.02212845990324179
-0.010501663470928582
0.009522693060692975
0.04741257754599975
0.020150042820540733
-0.006208727623612411
0.030894296564629022
0.02066407158096764
-0.001261958774711409
-0.015796272600566586
-0.009415172633819559
0.049566078489033175
0.057900539468632564
-0.03725866468835365
-0.008710629097398007
0.022159637653757943
-0.011784308900242464
-0.037406060526482314
-0.014264761414252834
-0.003095846175913661
0.008844895831665643
-0.01991858436925865
-0.016299908935781825
0.004403427239135907
-0.0202834291043981
-0.037785457360815566
-0.035708021288742384
0.0945285224396161
0.07956672498536868
-0.07709709300264961
-0.1129593617229563
-0.006926317077461038
0.021956278090303906
-0.0021251877611994634
-0.00577476245136093
-0.01939097226824348
-0.03747285736548548
0.0006380343724967351
-0.005927167311576401
0.008851611090940055
-0.006590361780505061
-0.004814356166094795
0.004349848163146012
0.05830132620851133
0.001126966047396177
-0.022668232443356476
-0.029405861562868573
0.0013927095726351498
-0.003185459302888823
-0.02044133158398191
0.05480179590623829
-6.0666867112825104e-05
0.06366625704459221
0.01246966495833843
0.015325896829539843
0.012340124901943122
-0.05146658928256586
0.024929433261857006
0.02796684187619458
-0.0421309519622313
-0.04172709592499369
0.03707999218265165
0.08674587025270555
-0.009989727305087015
0.03019924830993596
0.04117990950323116
-0.0029200860145022355
-0.1796799140518615
3.227911894511705e-05
0.015189722806344294
0.02194608877726876
-0.000252157973715576
0.017027704939940488
-0.025259249931234688
0.025625413134138273
-0.014711364469475057
-0.0187523734110622
0.042809777176986585
0.03901561341167885
-0.012255858692088735
-0.0041456389767144716
0.017079641663617504
-0.043582868386999124
-0.05913864412739291
0.03729021426901655
-0.000549813801257749
-0.07054678056798046
0.0062705952254541565
0.012477971219683357
-0.0030883347034531224
-0.01758090721916549
-0.035401291515796726
-0.03695902496752057
-0.019276337339664818
0.05937979653124076
0.009429881524291164
0.03994891787010596
-0.02449952408352198
1.6040726134063725e-05
0.045498967788669194
0.021761987496347127
0.006327272399261358
0.044867513327549846
0.026036650609108727
-0.004238007411322942
-0.010536325070026685
-0.016150682003024355
0.015338657688636285
0.0532505836590281
-0.014079609644172854
0.019274626431691165
-0.03265268467259632
0.057242295793120915
-0.015023196263260888
0.003259333308544217
0.00818246563958473
-0.04895911817117126
-0.03420890958968004
-0.00947017373365647
0.012836467534977124
0.00445024893154168
-0.030716497558760495
-0.02267084834268531
-0.018863906574873603
0.04817770519368856
-0.018533163775670804
0.016035844267884385
0.0008960751262164264
0.07690207727547867
-0.1478903903491271
-0.13940074646796577
0.021151338953946847
-0.02317436489575917
-0.00556472708713357
0.0198544782976806
-0.005871252295679623
0.08018131283608076
0.1342029938204292
-0.017891706728648073
0.010323728967095618
-0.04013681189891072
0.011239836578070359
-0.004230722063744162
0.012434068936391048
0.0054309992192289646
0.09081515599490769
-0.000642178287047377
-0.007594330420632212
-0.029692641184620255
-0.025134376907207497
-0.055677437996753884
-0.0016161439551713643
-0.025099800557788984
0.019601522296972217
0.0016324203778392901
0.0021950404691424073
0.008258401303544874
0.06942908455385786
0.02243289769066439
-0.020838216549711425
-0.008991697039286824
-0.04046564988043868
-0.007929957820045139
-0.012966831437118218
-0.014259637230673434
-0.010903284201245806
0.02837042834707783
-0.06218035277561143
-0.04486186038128384
-0.004428770286772634
-0.02692835846559503
0.010501954823741127
0.0028611310109553055
-0.03319211560475361
-0.010657089938520783
0.01293273057766787
0.009484199541043249
-0.025041820891948584
0.09140540696084759
0.18008439685173355
-0.001086458402866507
-0.028712084707568048
-0.007813830857259044
0.011767343099773548
-0.007334914011706011
-0.022061737430640167
-0.01620162867832752
0.03993581538503751
0.028555167911162378
0.008255752327777874
-0.002272323552197214
-0.039240694753478265
0.016966826930442075
0.02352748383646371
-0.00724590244081125
-0.026861436868462967
-0.09430302013411573
-0.030309639386759443
0.0005225010557525654
0.02132617014107687
-0.02327288007322954
0.0060662522021518355
-0.017418041025270364
-0.012132123102877715
0.04562951232335599
-0.008488999528184339
-0.007750388812110844
0.018836662583416885
0.045059881349928096
0.01608639067330667
0.024920367459068973
0.002922459541971225
0.07417549897086241
0.04008315349682225
-0.0378944113560776
-0.01535034970214651
-0.054069829738340375
-0.12271668384801039
-0.04417451648921025
0.018633273162837076
0.07338621873801358
0.06001223933693704
-0.05472806780829332
-0.011769920624847247
-0.029149557191600586
0.01107976701259646
0.033367925726844945
0.003855664642276956
0.030375941854751457
-0.09580806359104528
-0.07293880878478992
0.04964440854715611
-0.03628334397239448
0.06214930274873193
-0.1557395103058924
-0.04930886346040155
-0.014297895743502842
0.061572467346238086
0.1641879128567505
0.04225031935627128
-0.04851489561510111
-0.03477145110166848
0.198757509418313
-0.024875972885454838
-0.06949000923443396
-0.047476969268291175
0.06578438702747179
0.16171757885558607
0.02878606260555993
0.01215278027559605
-0.019568373164431
-0.10322745050506628
-0.01241837259824535
-0.02170373281135894
-0.019738687569282123
0.0004234421301060123
0.03332972635096536
-4.0327488968684114e-05
0.01683756178910599
0.009250181947381446
-0.006167689767323895
-0.03935429860787386
-0.011875699870331598
-0.00845173585277927
0.031504461587040164
0.015667889798309284
0.003963324587680388
-0.041542727991191436
-0.014034882230075768
-0.03385661734638427
0.03654754611282248
-0.14857385215606134
-0.08977749163562529
0.09836967876180758
0.04462122854807021
0.018113586541767625
0.0022406107793649004
0.024568243317053668
-0.0016629155762816685
0.04763578043128945
-0.02810073473194176
-0.0019713060650563834
0.027254573012410594
0.0032403472550751895
-0.04491475949996126
0.02541919589527475
-0.011332132599245712
-0.014818640789459683
-0.0009399470606121841
0.10899228051757646
-0.03546275913005306
-0.01736768708083505
0.006124726987380924
-0.008547943368662905
-0.021258448737821893
0.03362955535295738
-0.04275751668859739
-0.0037762362408896933
-0.02501992925747218
-0.029578931399927025
0.010631973843943767
-0.01313378112571738
-0.0476829452853779
0.011901570450990872
0.022893985920779764
0.04379250199620267
0.03118082761435709
0.006558676536347623
-0.07355167206093455
0.04592001828008787
-0.12000977239145408
-0.08454345192367552
0.05118621002820043
0.0722147651172802
0.06250368699813834
0.02295955511135698
0.055490676737760286
0.09773564873949724
-0.01150366477008187
-0.008801126947504647
0.01078651634710108
8.929261066578789e-05
0.0067757492300601066
0.013109161312998325
-0.18142332004467215
-0.0539219933770802
0.03420791673521139
-0.01761296779568114
0.002866079328609026
-0.03505963480604941
0.026120305293875302
0.0034055980290468844
0.008838502790557982
-0.040933878932387244
0.03647095280201666
0.008428969141504868
-0.011974215832209567
0.025363521665843717
0.008025246836368736
-0.010237429120229652
0.028311346632493475
-0.034404345755582405
-0.03704547496059568
-0.028285476420990927
-0.0064509529778075895
0.0540838571593258
0.043819626511423015
-0.054904702231374045
-0.016691090152583535
0.020574184112724773
-0.012841402264011701
-0.0056912919908743646
-0.026766683801323708
0.04643616093853432
-0.008101451648561155
-0.0037603287180202707
0.02976373056833793
0.021589960588612633
0.051694322054728584
-0.015755649705443922
0.009804728456820422
-0.008044599770987999
-0.009804643843725539
-0.01092013881571505
0.025648828896404532
-0.024698260112471716
0.008874757364897566
0.021214825005498785
0.02102608986362832
0.002419673754536144
0.046497125681977614
0.041586354016624576
-0.025878748969708754
-0.008887839332596945
0.013867452727791201
