0
0.021677529009906413
-0.037913084795744234
-0.08955932982304811
0.004107541180063138
-0.011545013195937676
-0.01037649388622408
0.017815188718782703
0.03146898340513226
-0.03237674966523626
-0.010502034743842252
0.010756268278350651
-0.012866843099131909
-0.006210990365877468
-0.019078119086725256
0.020432116680409847
-0.08072685831936956
0.010434018799712579
0.08624011798843317
-0.06567360179250221
-0.07316650551639924
0.08564037481629896
0.09042319275081089
-0.043277322861225646
0.02149318108759654
-0.0203780197519986
0.004039394956273525
-0.0033235773846331733
0.03800484393356861
0.001600809301338618
-0.020591167441076696
-0.011906664966140708
0.018521974979392317
-0.00598653196401542
0.013499032383754463
0.027667202681249052
0.012097853650803469
0.01570713882328762
0.006024238881292829
-0.022407756178277123
0.0003541859579994464
-0.003500279550685924
0.046627452836370424
0.05183397653022407
0.04456722221453537
0.01585078130776572
-0.008165943371071365
0.012213272595245302
-0.048626288066617396
-0.04771799572433598
0.029340548201358885
-0.009835307291516831
0.05145405773002237
-0.20666860991080868
-0.11112129182741497
0.01919083864098146
0.04012837426621551
0.056018957494821615
0.014889465605671167
0.004182675865960065
0.03398942678768132
0.01926785428407613
-0.0061052482953392615
-0.027289400688743554
0.018802516401528357
-0.0378442479237506
-0.031210266272272108
0.012663923006904713
-0.036829880054160886
0.04093862459934425
0.10158147972398744
0.011393163690952848
0.0031910357443254178
-0.032226224249753056
-0.031221525011300117
0.030042904068259126
-0.050136478363741424
-0.0172329030753468
0.028953572586703898
-0.023905912373854456
0.01790096886428536
0.031315266076163875
0.006411446910123987
-0.043204974973752544
-0.07026639865685869
-0.040390584824228325
-0.03266224775385667
0.04130998704477102
-0.05523843093775822
-0.023571133856263606
0.0059327517989878
0.02222701687157017
-0.008866129068901597
0.015214464346961457
-0.004092123085930146
0.012523404368508718
0.06678406722832297
0.04722533892020788
-0.04148702065578928
0.03787467421307185
0.054482324644323676
-0.004292018422107284
0.022290437458187203
-0.007084487306504569
0.010591318288294954
-0.014008080792572587
-0.008921789358476892
-0.0005308985171107466
0.01242498322674859
-0.015082743812969856
0.008220805618552037
0.01329287272605342
-0.040098784343466205
0.020756159853270166
-0.001772071908426029
-0.007355480720813451
0.019610637434283956
0.005820913642974516
0.009764902149424989
0.0183235196260527
-2.4829356133380685e-05
-0.020541929702928723
0.007809537266389439
-0.014589575861815866
-0.006894457351718221
-0.01719979175882929
-0.06943515690509512
-0.008935336695901047
0.04101184845079861
-0.01231292846757279
-0.012821591153207948
0.04121855450112644
-0.007048887360228446
0.009790121745725732
0.006915705470337661
-0.0027055745515128845
0.023874291927359407
0.010831036288322457
0.028711885489180175
-0.04834380393452995
0.04631245643146296
0.118060658600205
-0.011081119229974389
-0.004847558167707913
-0.009126502417568481
-0.08515504812444412
-0.029705484173639923
0.00342824857401876
-0.04454893927835566
-0.03571645771774054
-0.019411475370629754
-0.016677819441817336
-0.08431658916344564
-0.030745770809774465
0.07175707903330769
0.037924415224595054
0.004625037326079085
-0.1547125639423162
-0.07223045884436352
-0.017926031556474552
-0.009410378011656086
0.05821559384017701
0.08334181426414333
0.04355443518073708
-0.0029518133061207244
0.033463736864310374
0.006485775406962336
0.012030569848681194
-0.004705589972451465
-0.0019382991269784634
0.01684075608628901
0.0074800129758769785
-0.010540457017417921
-0.019840404737977897
0.09763809578746084
0.004455411782145103
0.02471793559951242
0.023538891110612466
0.060800577841852346
-0.004579839483277249
0.0021770512264862444
0.010464559405826447
0.024297687229175174
-0.009185038804563082
-0.03718489908584557
0.044646088998557834
0.01052003917428621
-0.01793320474241158
0.05154720801403521
-0.04424934957532275
0.08482255296150872
0.014356481694500342
-0.04005716968083729
-0.02694256585250279
-0.004472607515454651
-0.057287055443668494
-0.06609824879406155
-0.002961021776495888
-0.016003967325197384
-0.012799224499338535
0.0023221887451736313
0.007103253375380854
0.012009989121625491
-0.0044222774236910255
-0.0046695078847204495
-0.017469081776376814
-0.08871403554425734
0.020707850871641113
0.0012141578851334706
-0.008587494972597347
0.022514354627495084
0.018935572404384197
-0.013820928016637798
0.011073190783295068
0.0033948684166014553
-0.02932645144248005
0.0003198534255452571
-0.014789880734406973
-0.02431306100208094
-0.010932571293436395
-0.0028123676808370214
0.0037322489516592645
-0.009084881927621125
0.007842523917327248
0.013476228214199673
0.023504365242508526
-0.005669351688503226
-0.01106680488521967
-0.0034839362048155738
-0.005360845699978555
-0.003419410298754122
0.0010317691795130117
0.008796517560442078
0.020188431873940097
0.007693690000069625
0.06625838090989643
0.007848500470117497
-0.06109462703546969
0.11191413594518056
0.10595457237427719
-0.0544719864076108
0.010475511563660639
0.01920902631051692
0.004027491890352233
0.013707300299779892
-0.01686528659292034
-0.029119182350830167
-0.016962648983319104
0.04194275302484376
-0.054826090960066846
-0.10327158912034634
0.0013879735712918585
0.022303265491976944
-0.04030154629083572
0.06839022096647482
0.04237645105017235
0.04344706999598368
0.07603017621495435
-0.1006151130764421
-0.11267696962455857
0.011259016701507425
0.021033964748286258
0.02516435335108589
-0.005471901923633163
-0.00477147129473055
-0.09530686574424564
-0.1036952602656536
0.04003422319384906
-0.010527923441603743
-0.026788559490265984
0.05654129573072384
0.0651622412853555
-0.018620572020545734
-0.02549726423034748
-0.03687542751839648
-0.030131724021378002
-0.030755006852752596
-0.007308304810753148
0.019417162798663706
0.005451716941637268
-0.01637016980229026
0.15992929738255934
-0.10692899985368827
-0.11461931106923769
0.05976046811263973
-0.03063226593100259
0.03571120670385233
0.04627849883512221
0.0072205619404218
-0.004367537855148463
0.07176189467974685
0.016377673798917407
-0.004746268093635778
-0.020927037411811504
-0.013044006806905817
0.00015934125793159177
-0.022181422064874393
-0.04194357368576327
-0.006385531200042585
0.005177472321615696
0.01880258632215933
-0.011909963048274975
0.16263328302179172
0.029925458425759763
-0.039847506999344265
0.04816948076854579
0.041888165315582995
0.038589701962723454
0.010184193474134403
-0.004610808693756997
-0.010447712518788474
0.02283553276978618
-0.0039779630824050135
0.04745341844961776
-0.03436818006189714
0.015685790739985734
-0.042017112331162634
-0.05388154467263286
0.005390853198380827
0.03704440293605208
-0.016630497174076022
-0.01657604861460266
-0.020270734064669966
0.018934284427689498
0.055221809181078114
0.03101428314532917
-0.013617354565162632
0.007463626235875742
-0.022193889155480512
-0.0076001668823130935
-0.004856200331989349
0.01717946862884814
0.011567528848242565
-0.009458816879398146
-0.023058569967262892
0.0016435021793463505
-0.039501120048424564
0.012312827155091091
0.05249429658610436
-0.018149529830861353
0.010118283967760183
-0.010129891299883145
0.009030651285707764
-0.0007311041449471005
-0.018106231625111168
-0.08485772981238669
-0.01688709778979896
0.037474042467808895
-0.01109134845175465
0.043124953736427565
0.028710967043830162
-0.010938157870231217
-0.1054664253618373
-0.19014299269973212
0.02068707507561185
-0.016539083654305193
-0.03995304959126707
0.005257676017967363
-0.0515649741850636
0.0445122089798672
0.043273720671011866
0.008255007737077217
-0.028770583548316974
-0.032701027133845845
0.018819206358341344
0.024062454041992858
0.023809512938163087
-0.026682132802961903
-0.03052022148522136
0.004914590001401115
0.01649743158224764
-0.00311595935146377
0.030305215278771155
-0.005899467468447745
-0.014091651436270131
0.008497652229681792
0.046918415601897086
-0.003215286399824699
0.005085604899786123
0.03075522281273837
0.02155598869753014
-0.003260938059605443
-0.02768045986838601
0.03826747704899413
0.07480624851302163
-0.0007886128871135039
0.020662849525934064
0.016437751930075965
-0.03170374012310768
-0.011287677241864278
0.012667930056649604
0.020298292316553376
-0.001256364108650425
-0.009998355563312302
-0.00026597411370868633
-0.005725415566731643
0.010155841541450081
-0.027334584400629084
-0.019338155615904178
-0.043410352275069584
-0.02855881192352056
0.07973835059110833
0.05185102748397955
-0.018693119883521157
-0.016826045673462825
-0.02166314781796236
0.030456722042940816
-0.012740089943777212
-0.005482660857101206
0.01942181779415181
0.00642979177259869
-0.004800332290338458
-0.02031846062891372
-0.06922694996954454
-0.02853059160652289
0.019905379210477983
0.06815319827025886
-0.021741299417691404
-0.01903482187415395
-0.016480710908374826
-0.019351373931019576
0.0018264196700381553
0.014753307060904003
-0.014071253195284643
-0.01913286394752935
0.05065158607380902
0.12434161229802579
0.13153849068756507
-0.00046734216322901167
-0.007427800832768784
-0.0021727493210841995
-0.08102018527533111
-0.0803737881544394
-0.018154325271959117
0.0517544354796745
0.01004068503053871
-0.034313304156229005
-0.007790385333490674
-0.019634311197112474
-0.02114961659342244
0.02228081738139121
0.02278092909067264
-0.003088034679143232
-0.00029500324803666175
-0.003163887827784926
-0.03862878691040615
0.01359634949677813
0.02229876049930363
0.016942343258311822
0.016269802409225466
-0.0066464197746426
-0.022185205609883317
0.03829375781281026
0.03385948995429386
-0.030002575261983584
0.21795671423092433
-0.05002747876106662
-0.044219041290292894
-0.01028225615442807
0.039094256495815105
-0.15976197135188938
-0.11024052637461805
-0.022781493190492323
-0.021412055576163685
0.00686855165189145
-0.0732428260503134
0.01145967048711788
0.04716376188960719
-0.007766221131544879
-0.04408870082857387
0.07312237313217801
-0.022235555413034628
0.051462477242322856
-0.11337638376989956
-0.08036827770846564
0.02208950232061282
0.05129182291288149
0.1423216170834327
0.0011777282132707813
0.004207188805094969
0.10089244236760866
0.07490930866317802
-0.05445057601408839
0.013539102806930615
-0.0017847847935848625
-0.010921088572276506
0.01587185436495183
-0.04188591715473034
-0.026544840832503292
0.023040956473684655
-0.0505160944946432
-0.06938283115805786
-0.011081296812365684
0.03256128107748525
-0.07581416507474985
-0.07359913049862193
-0.0011341623783942892
-5.07015540754672e-05
0.15287081932986268
0.04590151941116262
-0.04939841509211382
0.009422677976305863
-0.00781326182050925
0.01496461364321202
0.07480317957128008
0.026300952530493384
0.030590350907232666
0.05994433462445833
-0.04284465643589292
-0.024727027650390497
0.03119245632740899
-0.014594144455780717
-0.0975987645165701
-0.06048053302733563
-0.020086831025966364
-0.022736280782813187
-0.059303481614675864
0.011043217164159931
0.012638646660778647
-0.028462075319771272
-0.030905708279473806
0.01480261850801235
0.013363842554550476
0.045468573659293014
0.014230951543782757
0.044174250952229765
0.11043056182064791
-0.020462983166176844
0.013671534674976463
-0.0030454637980825107
0.011222677815166967
0.021888134285016656
0.014657021187555611
-0.0013012801666066112
0.03558677137490743
-0.00554946448668164
-0.012752809337379005
-0.10937308481750312
-0.1430152582356559
-0.012986649256938713
0.010272785027053668
-0.012476496676896875
0.026197206107299517
0.05806927584824174
0.03643667411376435
0.006470736667877911
0.039153853089083604
-0.04273829463967927
-0.07072257315274083
-0.03619662602445004
0.020398857288252737
0.005127325740793359
0.007436971031370911
-0.0029027108989460888
-0.004799771900979538
-0.01738984246686555
-0.008461833586250259
-0.043161550321278386
0.12673418331097688
0.1463214606345177
-0.0027594104649918574
-0.0826440211664963
-0.04727000425949203
0.07774411165682822
-0.008040095781424972
-0.007750179609935854
0.00443004592232315
-0.027607692752839794
0.016631490498770996
-0.0335432473043325
-0.09253276806644872
0.047433751688691954
0.025362089543403448
-0.03885298467257408
0.01605242009096705
0.018796727310055078
-0.01873746997479509
0.008075470196325941
0.010968998716066868
0.11771144138375031
0.0074008925531453855
0.009312641008961604
-0.025999224206933565
-0.04354996762977843
0.01562893469309745
-0.01837873992131184
-0.02013628778241914
0.05030505068119023
-0.0027534585744279044
0.025134369158336268
-0.019425672271526424
-0.0903489659355397
0.030757957701495232
-0.011768332775826812
-0.02626196156241369
-0.038357144769699376
0.021725610937827884
0.010545561917915855
-0.007129578172956795
0.0006835988456695439
-0.023913462782420486
-0.009396228209501166
0.048885918141522225
0.010709151936641029
-0.059436781946637596
-0.022263368785596493
0.02191767927975419
0.045195852720736965
-0.006381579467313157
-0.026737213667596592
0.019188462743158875
0.018469533293712363
-0.01844950204265829
-0.01710911070347645
-0.022012290696710318
-0.010023481697752256
-0.014210790459141158
0.0021623596200437555
-0.022660764219502805
0.029056513678741916
-0.00045791353782798685
0.0911470415185943
0.10759913205468928
-0.08458884158913656
0.009097446330099835
-0.014462718767628826
0.042708090287300396
0.016616614921671314
0.11096468424013561
0.03338840364591497
-0.0520434450617125
-0.006950594862401862
4.309685837730792e-06
-0.021909070761765164
-0.010734322998443077
-0.020722210016650207
-0.006069291270954474
0.030712821140062917
-0.03940369334409771
-0.0971466365438755
0.016669399783632223
-0.021460441337381193
-0.005917018468459294
0.0037152830162425596
0.009516652896657709
-0.003431054892463172
-0.06086049395578785
-0.01267744551250539
-0.0193914558561759
-0.031170958974577057
-0.05227288025949336
0.0243085570268314
0.06522618396526046
-0.022628063810848375
-0.009112819063938607
-0.02406762788706697
0.05361176832277866
0.03408800889387202
-0.013659726179861442
0.005516688778682943
0.012509354131363946
-0.0068289992037593675
-0.03170807773278191
0.02212574683282603
0.030058114461890446
0.06115522870886316
0.034483503517494234
-0.03216889584070325
0.027432471795257977
-0.006467126141714508
0.026405419885531287
0.01111292885925984
0.006235844742993805
0.017753485815844836
-0.018933003314274294
-0.010174544880447884
0.033848146961549176
-0.0045863799027143805
0.028225868281558736
-0.023464597421368763
-0.005976892635440177
0.008368956057643422
0.0671199974983609
0.03961676316744285
0.004967826081570278
-0.12951950597258227
-0.029260525505273024
0.0009004089167262222
0.01788501816734628
-0.08930801573289039
-0.1558551438116466
0.00180448665812044
0.01441390433824447
0.024079981043789014
-0.00564531107885348
-0.04057932617372845
-0.03954779379603591
0.15895251090684645
-0.02101222932983514
-0.005706907673261569
0.05305396540168241
0.024768006136916973
-0.03267851529515392
-0.018475620339383107
0.010504924725592894
-0.01654595771341581
0.009873330260618669
0.016603184757337738
0.011299823835349696
-0.043553078812200816
0.005370800647769779
0.028908515033225057
0.0640203293663111
-0.010217526323597416
0.04548489916952254
0.02549071192009538
-0.09774855755090309
-0.011679701677908959
-0.017420799141603174
0.021336213501641516
-0.0041892632854500424
0.03019691246707811
0.008823393786119786
-0.0065129672914037715
-0.0014379713393085055
-0.002286430150145356
0.02456334069253688
0.014755543451944896
0.025146461437222253
-0.019596135113561935
-0.015286106747168246
-0.026346840687773636
-0.09087712883152156
0.004618831104222537
-0.005469613887995922
-0.02681263002076206
-0.01785137397248796
0.039983790532471246
-0.011693594966197957
0.005214696085423385
-0.06188338479528282
0.012272649093280285
0.04341778935904295
0.010150597689011092
0.01771750525736036
0.05924150287152647
-0.04345664277163575
0.0672917843237618
0.10204423506232026
-0.021664532485285232
0.010224949884264584
0.018286367758420626
-0.03317189962502917
-0.020883090389887553
0.002225362945952678
-0.053131468347613856
-0.05662518258188355
0.008145512572861686
-0.0665930509680292
0.04498955190204488
0.008680968176273327
-0.07897508213822041
0.02591290248211144
-0.031962772626448824
0.00862073544926533
0.03177369319217459
0.08038992578860323
0.053313851885502944
0.018799102770910864
-0.009376135028148616
0.02123546904123894
0.03163826127608497
0.026038683555203
0.012565921210193775
0.03900033330143943
-0.01334356086283718
0.007739345527507929
-0.0019488384644407448
0.07438680386592707
-0.05333580685673495
-0.1578513603441094
0.013452887817994263
-0.0220587320229591
-0.010088110021184678
-0.017911360110661315
-0.024373010177905965
-0.0161959586210813
0.008043342620770557
-0.025539958605688202
-0.009328332589786466
0.00084076155011941
-0.004235206462946749
0.01933236125559029
0.022891383895020583
-0.01859653577431531
-0.010810953820882666
-0.013932933368891513
0.011949927600999971
0.006690239166193443
-0.016386403030907517
-0.0004053096733294304
0.033925499764792824
-0.004698648464780861
-0.017178130911322417
0.02019394342940941
0.017414825176303703
-0.006281969618386421
-0.021008888968236748
-0.027936712628899733
0.005544955532205294
0.002291318486947464
-0.03656918479131915
0.0283166484790599
0.040150114591077465
-0.015796944832707622
0.006460902263899913
0.02704678769004104
0.06165576449769116
-0.002424463737422944
-0.04169854022580579
-0.025196012878582412
0.040232205208472774
0.015432324885169291
-0.054694645127094134
-0.020884329555246824
0.0184021104597809
-0.0079636611433555
-0.013719615437867021
0.01648572691619279
0.019970187321407245
-0.01577734573549873
0.007687173730634006
0.000572636632944756
0.0072655786645923265
-0.004845419880784213
-0.028613666373704452
-0.006890008040068638
-0.030472536099800867
-0.03348693550624052
-0.03263010243906664
-0.018287104576093647
0.007529827767252524
-0.04045068996640249
-0.017825677349983346
-0.01920649901730151
0.1449363249770165
0.018454050164401083
-0.0630264383106336
0.0046309679742921
0.0425866840694684
0.1467920322325801
-0.04913514850374313
0.009643544619611052
-0.021937577506669092
-0.002979625539801267
-0.04322401859044661
-0.04316819092597297
-0.0435728580685885
0.1309870501470298
0.061909028796027055
-0.05293775705431576
0.012046535566505472
0.022250461680556194
0.017011684892963168
-0.014874294351029008
-0.06076179927634574
-0.007924269262581706
0.036025501325039344
0.007136446292036308
0.021201838333061832
0.0032281888552437624
-0.030545246381156133
-0.006026715916866938
0.09466837055341475
0.034952508927794335
-0.006892685764593214
0.005912930051799022
-0.09257780754051514
0.0206334071643736
0.00201098908701434
-0.004130308491394448
-0.01600591921892012
0.01547765770973495
0.0018432299981788532
-0.01074218478933113
0.09900561630400301
0.008648475842977645
0.010522363473764132
-0.03428049059576854
-0.013004811625481607
-0.026822336483192835
-0.04078826814562377
-0.020200849862733853
-0.005799830735285311
-0.01663106468554002
-0.016323183840464505
-0.011700204174885044
-0.012848325042258692
-0.08185031780004283
-0.012231164308713358
0.08931217087828837
-0.015504936255935709
-0.04866275968686938
-0.00241384268311076
0.0005315515519690409
-0.013439124125102798
0.025539341105011534
0.06405447328136948
-0.03787400629283236
-0.002197459994852429
0.01317791044442273
0.0337724465115448
-0.0033917999238629436
0.04267910054019614
0.056521444117015214
-0.013420275795428229
0.010205526124694674
0.009595402499416759
0.02475739972671552
-0.01033382238759383
-0.016993806782831796
-0.015907178674244356
0.0536589508044909
0.021697313416977025
-0.17403661496334386
-0.0019277610114626185
0.03293579949958049
-0.010151651185093235
0.036320396778995234
0.03288762254830085
-0.006292151700384912
-0.010184017901106249
-0.06530916380218496
-0.023741076920742493
0.033971452707719875
0.015044514899380468
0.012963385261482632
-0.017386488408258242
-0.004982181158049752
-0.006996928698326386
-0.006732233423982385
-0.02013364862272527
0.01287061161609969
0.0019957839216503837
-0.018584889311120168
-0.01621493189026911
-0.057546791054476326
-0.02409747034073702
-0.014389922755469096
-0.007378442166249924
0.015487787730140867
0.007200239444663507
0.019092741700007177
0.032373667152820675
0.025056583296970057
0.020069786218195135
0.03521060045399674
-0.015550407249220157
0.023159769960036374
0.027039350630355084
0.04030911420765335
0.006915004811802401
-0.130018411752391
-0.04182327720127591
0.005701083153818035
0.008067051250558782
0.0036301968060509166
-0.03349489645336706
-0.008116834791556303
0.029126932449330324
-0.02969065222090067
-0.02535503479370862
0.12136291601075944
0.005222400731628586
-0.04837749442534604
-0.038990681449747606
-0.053654514366373224
0.1797686912931576
0.07670712364076383
-0.10789377295144478
-0.1116293886304099
0.04984412684265555
0.056699917525458166
-0.06554117322189736
-0.01223089688501638
-0.013303902690512522
-0.027729617024589735
0.035080396276555896
0.004782293118534985
0.030646485523565782
0.08779362428712373
0.004465811845377901
0.01309853827205437
-0.03031214665341818
0.0011583291695399889
-0.01414031701383453
0.08163833713744852
0.11319454267759668
-0.0022938738072964342
0.00760081791310596
-0.01807273456166663
0.04097912718215977
-0.05606458495043011
-0.03534724810653863
-0.01044902927723813
-0.04062535563712017
0.004823515068683454
-0.01495839754665324
-0.037347199239102014
-0.007284702561073956
0.020297187190943006
0.03821902324132119
0.0091295096512984
0.02967506740671573
0.0029724311588915134
0.005567831559321969
-0.010710196250311386
0.007939510627332311
-0.03553566830652012
-0.017008401390670825
0.010946858023314524
-0.0007173706306833516
-0.027879523465110675
-0.010762836721480866
0.00751472869207483
-0.02712786615544327
-0.02578165228028141
0.01458364770349979
-0.025393392565104214
-0.009975110165527705
0.031574313781885466
0.0315307768983626
-0.031775862028369184
-0.14040274752260878
-0.01844633280896132
0.03624092136011222
0.024701794989771476
-0.029332171487388307
-0.021520761040062782
0.008185242349634537
0.016718114128129263
-0.02700751095974316
-0.008333281453099542
0.013111483102772204
0.019676763014111733
0.018511765344058434
0.00817961661415913
0.01078874658504264
-0.016374249375422586
0.00896847847285646
0.004821559415503446
0.0008934385305118365
0.02953839116879389
0.014390860061370895
0.08542198349509281
-0.04612716776863142
-0.006541198639631364
-0.0326213490611698
0.040773097800995875
0.03353642761563449
-0.01204533201441665
-0.007984858321029674
0.011564586214193814
-0.00892172517961459
0.040511796126404896
-0.018534077469986563
-0.02692827156312249
-0.02238636780472915
0.014823635372321044
-0.0352824077778237
-0.008622028874861201
0.0004950124253585156
0.029021652910810967
0.08399075883017779
0.015969634185068114
-0.00610798100274228
-0.07894586191960548
-0.007750321457574957
-0.06252728613925096
0.02577187109867905
0.03499347918513256
0.05944350789349697
-0.0064206598386177096
0.009037833713233379
-0.014976890249731908
0.010487363369446686
0.012632148359865524
-0.001437037969731812
-0.04088840361198389
-0.055538842336928906
-0.04895259403960037
-0.018858842793204024
-0.01105290483086389
-0.027915894804623767
-0.02739555612816637
0.02150875681038388
0.058030056150563385
-0.002890943713310558
0.0024880811609274607
0.047091689240223264
0.024593022440566367
0.01540297308247793
0.02716229209498784
0.0040623046704191795
0.008227528425810607
0.023723044200849714
-0.000741096038959143
-0.02218161743565807
-0.01558445244591381
0.0010303874484366396
0.009462410532836255
0.02014594127879535
0.009771531922835567
0.031471109265824776
-0.039371227444566344
0.07636759243881422
0.13537371925483918
-0.03118886766308054
-0.013104151088912027
-0.033508261853820616
0.02734744917910558
-0.08159127656245498
-0.06763261472377059
0.011655493847510077
-0.004706708740296161
-0.03201147057955117
-0.109104722402272
0.004111155325332687
-0.022942238894235033
-0.002444251418966234
-0.021029878653537844
-0.026813268487478895
0.0033744708925436
-0.031733052429317385
-0.02297561424453423
-0.005645698627461748
-0.01172261648923175
-0.009257734654844633
-0.01419653014037373
0.00707260562733373
0.02310870823413757
0.11170930354580663
0.021350124613523695
0.0023838483856275577
-0.006952996047100783
-0.02086781438795487
-0.002852574235869061
-0.01069308353545434
0.013382585181403178
0.011796701034238539
0.008899774017461884
-0.008755534585055017
0.05436487676232452
0.042537827762501534
-0.02565411021395926
0.039311362681821775
0.009167087027137878
0.043739460997371686
-0.00867450482672709
0.009355194670573079
0.03337091615949825
0.02493431540574322
-0.03138029527512027
-0.08312137656958485
-0.014887085849599956
0.043500712103794706
0.011481353564056355
-0.016509308169398718
-0.024995034009603068
-0.022491403446292562
0.0017822180210548255
-0.010876829580879236
0.017069701754543653
0.029604271624526994
-0.02300450086773459
0.03027365525737624
0.12457691640940766
-0.17474940131733435
-0.023905690152501508
0.0006818626115075741
0.011037861303438817
-0.019439662240464
0.026412250535974065
0.02578232314851254
-0.01643686913429983
-0.03021370410860555
0.01080066855886866
-0.006368087099976445
0.0286003477219801
0.002799726281322604
-0.005548517381307304
0.020042593619793336
0.010313386235264224
0.058556669003944434
-0.008701059083789445
-0.021711391995838804
0.012824065391447625
-0.013885315922731293
-0.03033224784042115
-0.018928954370097048
0.009272809207044786
0.03109069162669316
-0.055876428066655756
-0.029124969463019974
-0.07471838244155371
-0.11904776892558543
-0.0017534422778079785
0.02132409770591372
0.03977817749674083
-0.0312191589374192
0.034547258143488996
0.0219449129209325
0.05180539932664231
0.0407696644192085
0.0006426743524031149
0.0623466359014407
-0.014372124404317845
-0.028951302000224506
-0.005396183588137022
-0.029293080422262054
0.029849345159070038
0.015906148663608583
-0.002172515499478732
0.017248006534864326
-0.00801654464308531
0.07704990374216168
0.04480743611068341
-0.05603516066769651
0.013590961982181808
-0.017321954292050766
-0.14694240749772222
-0.08202546338722153
-0.0319141368904535
-0.009971991364743367
0.009303691220955776
-0.016778523331300716
0.03036594231485573
0.1781781197569682
0.02181941219174848
-0.06328417007962892
-0.0235030306106138
-0.02662864841707459
0.10722434309469137
0.03108447424399983
-0.03757891535706392
0.011052609571204424
0.0019741108452016906
-0.008722324566674725
0.014351061233033946
0.010844213766973433
0.0028374243722731197
-0.012254500226680527
0.01558898678019263
-0.03617557379942286
-0.023616877522391475
0.04093301060501981
0.031287758607258784
0.008403246788209506
0.0009498421258925387
0.0020259025201521505
0.06144861152651297
0.07722382691301428
-0.0062426144413488234
-0.03390225399497743
0.0021692782337122828
-0.00861576341739975
0.002876990327294664
0.0005614258825134612
-0.01904638275101886
0.04887541404047641
0.019395501764667346
0.004742240903175682
0.012773044364895
-0.1002632951425123
-0.08760505183878971
-0.055376769002624754
-0.05104697563017011
-0.0023825340392470157
-0.007122794679314218
0.05217239194934265
0.005085330074500859
-0.03784906879638721
0.024618541648234765
0.06188994431915837
0.02809666714411528
-0.012000126034110827
-0.041756830680296946
0.003679072450142806
-0.016061987358124447
0.011131688723626914
-0.002102274898438077
-0.042998880470965256
-0.026921595506712522
0.02091933423080468
0.012434003181351249
-0.024517343433930524
-0.002254768252465055
-0.01380624355720039
-0.038619374754387474
-0.005119235506429965
-0.0012766033720180304
0.007464057666316768
0.023762029699889366
0.029094927220454935
0.052818354497351554
1.7601265750399368e-05
0.02236401424785632
-0.00620773039960802
0.004026964461822155
0.02879354136639172
0.03161435971545642
0.0007888835814891566
-0.10864155252011583
-0.05452034838358293
0.034594609928565494
-0.04293186700847523
0.05249448652850971
-0.009998193546517282
0.011668971715671514
0.0011348479675511885
0.022770411045747084
0.017558020139338874
0.025422710330679162
0.03956254903598996
0.036808672848165164
0.07361849603955128
-0.02623274720774538
-0.006361688729603457
0.007735558092170656
0.028097978479774802
-0.03128043976532248
-0.07356844307880861
0.004931270861282747
0.011908818509926101
-0.033040738470084256
-0.03845195095410966
0.035276239789117515
0.04763178429559322
0.029425503147016415
-0.03995153559168425
-0.06539750163586178
0.02474689016905672
0.0057586646470289505
-0.01015298963503944
-0.012650966222745592
0.029112421071544662
0.008287795990141247
-0.047172054077340736
-0.010895338214948508
-0.009994879779110346
0.004546613620471231
0.0021327286768835817
-0.01846979812544971
-0.029024299616018018
0.04029487732899118
-0.06247675320063681
-0.07246734261336246
0.03775156285830687
-0.020356140425136178
0.006739138612699483
-0.022771341944175634
-0.020741246333039972
0.0031830685807306557
0.01517900593516241
-0.005980762915971445
-0.005391284437272862
-0.002531687327869783
-0.041669642984890606
-0.0009738908676143099
-0.027351722238528765
0.01695563547115387
-0.011299165085400584
0.05541557804020638
0.053789853024447255
0.039100915993739285
0.045713073765078265
0.04165654141985426
-0.08507123167591739
0.08818166557263714
0.101961436898989
-0.05115582748290366
0.008500517855350748
0.003678450334236097
-0.10613966491951565
-0.013182571100092248
0.09254707278127954
-0.06816822823253497
-0.003379600489102529
-0.030188203173940453
0.019333034671463762
0.004333192477272321
-0.02517142216754174
-0.03943233856412248
0.0043555892555747116
-0.03443664948264755
0.10132481748704221
0.11177112422296925
-0.00852637976180824
0.007614793119898209
-0.043557607626078416
-0.030013544356730117
0.021215368476881612
0.009985882946635997
0.05161822372377912
0.033491116430824
-0.009120193193947518
0.08025927878192819
-0.005948967860949025
-0.03575303987636751
-0.012426717071682285
-0.0014510063214478064
-0.05901330575549178
0.0057921653477416525
0.01912342499729321
-0.02907898208195927
0.03767861789256381
0.0009604688111750564
0.01551496404675041
-0.10854293475294402
-0.07999271450885774
0.023937558148408294
0.0007838755875417124
0.030136629185037993
-0.005056875603729176
-0.009431435270146856
0.014483748911716924
-0.0010382357735043148
-0.01176981679743954
-0.004503499390135551
-0.007815567111169281
-0.01630347261852804
0.0011859448301896453
-0.0029628320222951543
-0.004541530051980951
0.026339475199220676
0.07596981125748702
-0.014097341845524186
-0.024190573700225676
-0.004119928000901097
-0.004746850412472267
-0.012754321427373738
-0.0015344341208972368
0.00811374408418347
-0.00904539626886289
0.02188029645968726
-0.04522106480998183
-0.034143981482849126
0.014631045578526571
-0.043804328900677106
0.0019224073553165122
0.00923259060057923
0.007674499507997668
-0.03695129658288311
-0.00870824057815758
0.03149723465725464
0.026260819219446653
0.037596302200881795
0.0947930654386997
0.04614117241239079
0.00047159239746726153
-0.007721529294011734
0.022189385692681782
-0.006790889957959498
-0.07241034399526117
0.000854519839950262
-0.011997520070293397
0.007721612058480587
-0.02348969282659944
-0.008225869887243773
-0.01707961497850466
-0.01970694153296617
-0.02568094848778042
-0.009487811752807331
0.027408557285380882
-0.07139833753292887
-0.05356983344306304
-0.01175749597604229
-0.028042038405287552
0.03133177862132746
0.013626278266479792
-0.011543707405702984
-0.005605147804602161
-0.01921351974962006
-0.020361870029237138
0.04269933669166489
0.03392690943732716
-0.02847998210418077
-0.029510850509746927
0.01708916057615383
0.047791662535982306
-0.029482066406357765
0.03518750596135939
0.06705063320599954
0.15656500373654267
0.055153554052187526
-0.04783881383130976
-0.0015347903407223432
0.06473964817754652
0.061374396432415934
-0.04316427243736292
0.044583208707583824
