0
0.014882273755631009
-0.011339204305684483
0.0021417212882544677
-0.039955507110667365
0.051880733197888614
0.012888074424557808
-0.014289005744783746
-0.00027503604849017015
-0.013085835990744971
-0.001751012627134448
0.03087524784586958
0.03844165907174774
0.04127778635309194
-0.019292484337748633
-0.0029798010658212766
-0.007550425979368878
-0.03534131038514949
0.003599493028479092
-0.010052946807122841
-0.020317350636232325
-0.009020260922135061
0.011825214580516575
-0.00029318960145001096
-0.011532953784352254
-0.0746899254411161
-0.04690634711122135
0.036798775568694465
0.0028725794057130193
0.028989774824202588
0.021310821819335385
0.028260817378805633
-0.030831705554006
0.05939824389832527
0.05165717313821777
0.007612655297823666
0.004348160026990852
-0.011629797124325457
0.005805364473321659
0.01481402574036537
0.0252541605846747
0.00020677371413933902
-0.007866800423879043
-0.013913918199536118
-0.0039530079193606455
0.02476384505596512
0.006610767652652823
-0.10162454778842094
-0.02315616848279251
0.018134866647968005
0.02265525706855181
0.011761388322972861
-0.10297429554016824
-0.036047471545625646
-0.008397403219710295
-0.013454887606107115
0.0208796090270776
0.0020929074990810163
0.007362745673120184
0.0097447564039488
0.07476350419887746
0.012000351038287923
-0.026996351923213178
0.04686818791978085
0.032274838400002795
-0.01061024375815061
0.014959080104941949
0.035074901168893
-0.04768161274941179
-0.08377544794100727
0.04961202172059312
0.03162428447165953
-0.0017372800293234095
0.004286581425338011
-0.03094119301534567
0.011925491323537275
0.0009975911594339586
0.011758874667414288
0.01842892584941063
0.029070195916850138
0.02509584194527009
-0.015704847841808943
-0.03483024853753122
0.04648070148610943
-0.1059086565652949
-0.11967203072806347
-0.009291229576446423
0.002493143084708318
0.0431333702752502
-0.008959814730958507
-0.010169967227201086
-0.031975757856836394
0.042414225739307324
0.008468898953442675
0.03191469055871461
0.03135845294275486
-0.053694484191463714
-0.07530767938312778
0.018915988057499434
0.025205455978651262
0.014566533807525425
0.02421002591447681
0.010558783535204036
0.009460071411091602
-0.018142282808465117
0.021171638106641008
0.02722790922635442
-0.0861218859035099
-0.023616012847720153
0.0523621328716575
0.015062211623946158
-0.0590244057890134
-0.01710549349941216
-0.016286210360110277
-0.00912056713914159
0.04261078863669603
0.07041193751314295
-0.018537332466919288
-0.01835596792512461
0.06201107941161824
0.008134429739994556
-0.034431402219077624
0.028318568461137592
-0.024282114341767434
0.035059481273962044
-0.003912908339020926
0.07099927424399523
0.0042262218065694185
-0.06735308484118863
0.0023133161880107916
-0.02214464173781452
0.005957477126837217
0.02926643117643206
-0.012988955205175366
0.1363329834629419
0.014737240856239892
-0.02990322086756611
-0.0101206060169792
-0.013883657392641675
-0.002427254338626758
-0.012681678313149106
0.03556288572184993
0.05232924879273685
0.029992496461434807
-0.02194792544049726
0.03801636913548039
-0.020048738035874494
-0.03927412014174754
-0.021214472445885934
-0.010293766159322284
-0.03682142784160392
-0.07154534257566525
-0.017001386078582554
0.007494430597066305
0.02748149790031054
-0.0067524172664096965
0.0018345725950466196
-0.03211592724787341
-0.02591672902365658
-0.004427318314333805
0.019562763284018746
-0.044343629460031314
-0.10224571304617411
0.014534764211454543
0.011757425383245578
0.009020638718330615
0.016795793437477304
0.013518499012254695
-0.0016312238489797947
-0.016200483970154427
-0.008430134297344778
0.07571152338477075
0.13195425415606307
-0.02882515557621592
-0.027519815326357
-0.05380359429551131
-0.009428582143596912
-0.03787925786452946
-0.025684105815334805
-0.038498813892334144
0.01743540873792871
0.023196985920036883
0.013330376218717297
-9.215561719656484e-05
-0.004461830837619863
-0.010212508440115783
-0.02807444397571138
-0.01572513448266063
0.0074793669533012
0.0020167205255956313
0.035979143163086744
-0.0053744886419207424
0.01523690932459615
0.017129262752297474
-0.023574590569534752
-0.007045789486805726
-0.02638469197745067
-0.002721605069194785
0.05625463568695615
0.007029097672955704
0.012542829993959802
0.0054141413824549236
-0.010920045350971993
0.005038567086811996
0.12608929878594194
0.0427825149849376
0.002945035308089191
-0.020605216908974655
-0.010178921095387079
-0.010940832697162898
-0.003970438165732409
0.028909340545977293
0.005844004706301197
0.017936269388696115
0.031102271958908884
-0.01895426934900913
-0.011172083458829819
-0.00093393224293069
-0.020494478156382303
-0.042536408439523214
-0.02886064842434044
-0.009601928079338866
-0.003487281851765924
-0.0025577143478932815
0.010730569491116119
-0.02553618168551269
0.019790902128404224
0.01470442298303197
-0.01909464958620657
-0.02348131715822237
-0.0004522874568201937
0.02216619222930636
0.035381326856570756
0.026421727625696247
0.020417802188769252
-0.02592945778118684
-0.0012917412332668068
-0.024883283164869784
-0.07525836726448408
-0.12918408923936084
0.09708846196285778
0.0891801227095807
-0.0342471139511478
0.00910584943361401
-0.010299144570204394
0.054168378299919225
0.023239151736284568
-0.005287374875030845
-0.04505261134344398
0.0027054412242085747
-0.009194679198588787
-0.05272503830949818
-0.08356309497993508
0.0945514316430909
0.043547653059184684
-0.0021440001771700404
0.025931978951689316
0.08092153859735766
-0.05835934470397305
-0.08083687381240448
-0.0005371929028577372
-0.031178836450779387
-0.008113140162571048
-0.02774869337091845
-0.04900024946703747
-0.018655495045199255
-0.0019078822197316394
0.02804184345638224
-0.011329443777586648
-0.04065150246420259
-0.015052337381547138
-0.05170557574008279
-0.01762782161683958
-0.007674424433166873
0.17575162111547898
0.02295614502967091
-0.021581348674285388
0.05216724201475432
-0.06448309038873533
-0.05538986721808735
0.0052016276346156295
-0.041382196694611635
0.011861574590347323
0.026813200220842617
0.019611016009808593
0.004946863879151934
0.03889029028214006
0.06657117369478009
0.12641398757503594
0.08370731902187771
-0.0013554831278621516
0.03767896576393784
0.00339249785705758
-0.022063840063408672
-0.06182592103715985
0.021478853350652083
0.014200054441790807
-0.07051586271213879
-0.13732286873280794
0.050984872630346775
0.08723997537847122
-0.020642244005705378
0.02414318806917047
-0.008598985682496639
-0.027932938991177735
-0.050085722744314554
-0.02095230454391327
0.010329913983342154
-0.027484251620785025
-0.02113434402628656
0.0019039010119406936
-0.026196285015925688
-0.026440601728546648
0.0997191048525919
0.0621419218354776
-0.053121877063158365
-0.049052767890801284
-0.027861863551963656
0.08855658997121954
0.08756929031497408
-0.021019217896511205
-0.01343712663123007
-0.03906778357734732
-0.024071860178297304
-0.021349811973501023
-0.010597414863582877
-0.05731012266789234
-0.01069935189131474
-0.019278846890376393
-0.010004291129955007
0.0022542246463133847
-0.01961354507006722
-0.011445624318179066
0.07190228838129119
0.005516328567056949
0.037657858175327054
0.007884244837087164
0.0027983961592532892
0.04669416954000983
-0.016346316388822887
0.06655039679210627
0.023531184408203145
-0.04630345362287835
-0.03407408108087463
-0.01797614277193006
-0.0022615713803997165
0.057270002414347175
0.015680014551209622
-0.14679352842227497
-0.06490086844138045
-0.006807918252809521
-0.024305205334123024
0.1635804711067848
0.03654764379637782
-0.003120467528971989
0.030395247954759293
-0.015047237307888851
-0.013982417580106375
0.0077019533279491905
-0.04410850524070878
-0.007594358174141148
0.01931025964451248
-0.03579815448221995
-0.006136802439508473
0.028369217533766287
0.0507020604993876
0.027950199579883993
-0.006309269630336201
0.04141061570430226
-0.010398092091084448
-0.055343869712420335
-0.04933384904316389
0.049527717183422575
-0.04066842829883154
-0.012403121486183465
-0.031807994333065685
-0.0053778339408223725
-0.005420796760203362
-0.04065307500470225
-0.015084791236954852
0.004558946390610249
0.020256896000052364
-0.05737348632132571
-0.05215348287931369
0.023936659701815344
0.0751324746927613
-0.006506835200498897
0.008810027340748072
0.02201384451174546
0.00963743271004606
0.05228610456173972
0.000871017449122262
0.0025981407670500833
0.04640272598099833
0.007130254700488021
0.041477760836030886
0.059881110089532105
-0.11479644053763015
-0.025746695820247602
0.018583949957078214
-0.0062244657287790816
-0.08681360757723776
-0.12782317508562002
0.09179602181731024
0.044840299693836856
0.04414367111548474
-0.023723339584579756
0.007572694480362405
0.028503049737973792
0.02035744621742115
-0.010754450771418518
0.002295688025209924
-0.011326313863435477
-0.016967403255625523
-0.00566616153485872
0.02615485907958274
0.003636071306002305
-0.03682275312896757
-0.0152549033978156
-0.05199349432064964
0.06895969756813108
0.036737211499017076
-0.04799719237655838
0.030470499203046203
0.0012665992519859128
-0.04849762511574358
-0.05916521935352535
-0.027221350740235083
-0.026762382516674777
0.0399116891301467
0.02430150355174887
0.03745561115911576
0.034075283364530765
0.004710803790668216
-0.0006693978876405335
0.008693703826037218
-0.026849899574186795
0.012887742636206172
0.02525876828401243
-0.03766110964162913
0.02335686110077639
0.03546718587798885
-0.031290691957711884
-0.0017094847586664752
-0.0039101908861271465
-0.009590601472597778
0.00685256470370959
0.021006840955907505
0.04958853572034064
0.07797329147754753
0.030972954823544195
-0.07536627687805886
-0.056226798562238625
-0.03750285184617709
0.032167420052510144
0.06304109652591787
-0.042376313012348274
0.048381064299750254
0.08889550211171213
-0.04070548585528763
0.03869267052521572
-0.032436803601553876
-0.06370147867263105
-0.013627682916681615
-0.001249920671195203
0.009186240017581003
-0.023694219252218533
-0.032945426523612015
-0.044206839356781866
-0.03461315180653161
-0.0012134796273161408
-0.018952318853917828
-0.0184504506239576
0.01811313415650943
0.007367341919824701
0.03303831630863496
-0.013964929021116521
-0.050518841056866555
0.03058080928734986
-0.011775390547347575
0.07038771635620654
0.04933735279660409
-0.013058470793299855
0.023739801767576712
0.01375046268916126
-0.0045091393127968124
-0.03302652862570107
0.0032240422393661847
0.0071150086191127835
-0.016852843876667595
0.0019960617738056735
-0.020054961861118895
0.008952133316467391
0.002426079950546459
0.0008497665056724615
0.020681358368798444
-0.08119648691790181
-0.10325526823602899
0.024783843668625117
-0.03033322767340883
-0.0488544941502815
0.05209923956730363
-0.008483241477016342
0.014663515195765834
0.1086082525159467
0.051530034865622035
-0.06306436163681435
-0.0014109127211352178
-0.02852868452090228
0.035291591740274984
0.02056963112355335
0.029569490643429647
0.017629426464398964
-0.004809053373108712
-0.03418667256894163
0.05311162395562684
0.01591950654873173
-0.023725497192194835
0.0008606444442446659
0.032948379653251626
0.008296257958814262
-0.004005721736732129
-0.016081298635925084
-0.0007712410136444229
0.0034774321305341056
0.032603846742401535
-0.08485146341058898
-0.07799657523766539
0.037645273766566525
0.05926225267326554
0.031023260455207768
-0.02275963277160481
0.048201567053167804
-0.024296692902575294
-0.026064507010283993
0.010321016506127309
0.02323136921157888
0.008363041764950044
-0.011704350139676434
-0.040324899569930246
-0.08337619515960236
-0.006581451692131655
0.0363070805811359
0.08403581500751438
0.06469036039775983
-0.027936819381186404
-0.012776752601361428
-0.037258256064442156
-0.016258069523788214
-0.020215833872457116
0.0028943981905724405
0.03529838476160008
-0.003071020862702947
-0.024131817922346487
-0.008526471985908383
-5.618978392166777e-06
0.08999024312669754
-0.025976231545567274
-0.0009832260145932854
-0.04809479863901285
-0.02799252371287344
0.041352425865465274
-0.010024691756775448
-0.00693490335711432
0.011584755865852727
-0.019537002138063947
-0.01523527846806721
-0.1045741162646186
-0.1045334942011499
-0.0041442184478027895
-0.046658521425392244
0.05060012440751723
0.023878692186567754
0.007375958155914708
-0.009402063754665884
0.0018973294683652644
0.04705940625038584
0.031131214927433867
-0.018564294675146926
-0.012975086612074308
-0.0006500419510441326
0.03329554656290263
-0.02967447693671205
0.11548217626027231
0.04371481601697988
-0.04704793733065604
-0.010418114888122235
-0.024452988687866307
0.012227141023332073
-0.011163774698095772
0.04604199678189475
0.018054724933796604
-0.0093345479416472
0.015473878690657448
0.0006891118795676516
0.005680550055329555
0.032160083820290966
-0.005548732505361519
0.013986037518275847
-0.043672499035395954
0.12750808151574938
0.05659694038074968
0.007966399159526457
0.012066404053784568
0.004336246238655851
-0.005566308837421939
-0.016616828002075316
0.029012336955385448
-0.014533877203948943
-0.035657665923096146
-0.007529057226304742
0.006583433595350804
-0.043044159461101066
-0.04566760598555647
-0.04800222042884813
0.0007382094175045303
0.056241566274108576
-0.01850893380666073
-0.019785990112332844
0.008831972119646996
-0.016509840909520013
-0.0366622217016606
0.023895276363359225
0.037813169063436056
-0.04021483130110383
-0.007355337177004423
-0.004986538711644331
-0.017866653961717032
-0.011052884148761126
-0.011150227086315455
0.031549756281224486
-0.025955229295857748
-0.07076158864829683
0.0034044365189312286
0.0006277583212852157
-0.033645286907355
-0.004256508884248448
0.013269744280569084
-0.029543960881981357
-0.009984073835898992
-0.005816382836584179
0.04425508946850395
-6.773956324749466e-05
0.07372074961868273
0.04577087357749068
0.0010273275431862876
-0.013022150203781882
0.012143846224162253
0.049225519521656956
-0.030306722655054588
-0.01968669900415533
0.028313508141235323
0.0038855293016309953
-0.016678892872347317
-0.03504790942608672
-0.02330701607871952
-0.019574344962247817
0.005629679607739637
-0.018221251302579927
0.0010162454513675697
-0.07544888593798682
-0.06407496466223493
0.009226635877231961
0.015741112952112727
0.04382536440087004
0.053000839925203894
-0.060600640099736466
0.003422954543047695
0.061551677464608046
-0.010620949056328311
-2.7997469708954372e-05
0.00807262487129803
0.05402338442734896
0.0724703597543302
-0.001436739687832355
0.023827364412002495
-0.03642160040813203
0.007267030732202766
-0.04578503758607431
-0.018981277646751494
7.149658492419157e-05
-0.014636149372495437
-0.03134660170454522
0.02943174823483192
0.15320309879163904
0.013682437826474467
0.0008620701310175366
-0.024317914975887832
-0.04317345843467536
-0.011498623470667303
-0.01584076058403247
0.013869436577967974
0.005603556422965802
0.12708859675903508
-0.03389789619482235
0.01078437342560804
0.0468914888579888
-0.021625660067035587
-0.03200731076532395
0.022583186300898013
0.008379752403872119
-0.010848474123688383
-0.031546291914607345
-0.018410952966781854
-0.015723660540161815
-0.0701108974893609
0.013211340692559765
-0.03603827147058658
-0.03331257905687803
0.012744577155083396
-0.009861474940907566
0.05295184304691685
0.02492169799094138
-0.01750772530560038
-0.010675585850591232
0.013027608659998758
-0.09537176944424683
-0.10012478082807019
0.050624621277051134
-0.11558751175688613
-0.06013756434161892
0.057784171240275704
0.17568344345116013
-0.004792102846093025
-0.02627109052229508
-0.01249558621664904
-0.030747582344101326
-0.0062264510644325
0.0003439840402809361
-0.03376161425447626
0.06115300639024707
0.0558903385575381
0.10428656075387835
0.032167209963373994
-0.005360501786661696
-0.025797265016355642
-0.038842608607822175
0.00890344239605323
0.048744059399330054
0.05219952563985953
-0.03316345904067919
-0.022337490630956212
-0.03459581116357625
0.04248157230785692
0.04146039830168901
-0.05688524550219217
-0.0355937573052702
-0.008313597845178537
-0.03408747934863624
-0.01157638730345575
0.007787373409032314
-0.07267609673045602
-0.016334178510394832
0.048092590016090155
0.014669711478850683
-0.00422436514143977
-0.016914132629147
-0.04129276257084164
-0.007103195089627616
0.013488816999223887
0.02911192330515833
-0.01246715736249536
-0.03975872687143811
-0.020595216400090828
-0.0223368447703204
0.020007635675036252
-0.01588989458799163
0.035062892859888756
-0.0447597007202754
0.055187851979838075
0.03346763161025805
0.07683294549677508
0.13153540289279492
-0.020580938418472174
-0.046706438298435425
-0.012699640314905681
-0.007285879027696647
0.0013646192475152276
-0.016205845500264385
-0.0020040546245763003
0.014308573968254554
-0.024438462846649005
0.032418939266766075
-0.042141461761848346
0.05035403559539067
0.06926826934561034
-0.009771926932058804
-0.003989335126222157
-0.0033749816647504808
-0.0017814436172690791
-0.03282936732121245
-0.007897511537759744
0.004544416626100133
-0.0008659432158353048
-0.02591120656953057
0.03735700197220479
-0.06400601238359722
-0.04332155732239775
0.012690608956963289
0.004295605744436308
-0.004125125023184071
0.0055634482498304935
-0.022322121758305023
-0.029783439694476933
-0.003725891739358412
0.021141634669932453
0.038478106936908854
-0.01547527190240645
-0.004395012479800488
-0.0006976447725713135
0.005723014105571972
-0.03119399863597277
0.006123904201420069
-0.00733036307611138
-0.014285351949868805
0.01668351306175873
-0.012221514901978104
0.033089403728080426
0.009230239150025923
0.02115336167386366
0.0006334582240860259
-0.021279946714415958
-0.03160282220940108
-0.011845979952988474
0.003480278202158227
0.03051105531061181
0.042758946344055165
-0.04587717696737372
-0.011354944223203293
0.047837040985437895
0.0024696806033100353
0.00707530241284764
0.01100686863742932
0.019460798658284678
-0.021374708649383154
0.07220538994954537
-0.07326220335116347
-0.04553198660185207
0.03914693219383013
0.010987521121983906
0.013069885215249896
0.0006474949959604274
-0.015733150598415072
-0.017545850899892832
0.0018066086229266511
-0.06417901727301269
0.0418667616310574
-0.005683741681182935
-0.031244584055843745
0.006473059824841031
0.0012797166228515906
0.010186063550343644
0.033843826053769774
0.017471214741268736
0.053376018513655775
-0.02801325476477683
-0.005278760496073377
0.0031999874452023646
-0.03374871192470167
-0.009599426024889167
0.0038631471764634367
-0.03144936047609642
-0.0021656050481378697
0.013838951692137072
0.020135821011514544
0.03131758458145217
0.010839425958938938
-0.010735331133576822
-0.0030105021794742844
-0.04552709342510919
-0.04600818766152075
-0.0015219471661125433
0.030231518554319225
-0.01057889233954661
0.03345506597892861
0.02259135086153167
-0.005066343501640333
-0.02280371662046495
0.004249398620883348
0.04500388048177892
-0.004889370915762137
-0.028026046671323915
-0.005182856708865194
-0.0021980444972089113
-0.018600894873984756
-0.008593664946449114
0.0415090792043273
0.02448124365099799
-0.023556172385964226
-0.034832468046257614
-0.02209271988080797
-0.006950687491208396
-0.0160526967358663
0.019025919325284624
0.0008895482994921594
-0.014653332184238503
0.025295608884890897
0.05875522998680694
0.019138963696116392
-0.040746498054450166
0.028698853890284568
0.026039713337739183
-0.01519846428953521
0.015621309615770879
0.013074235333621623
-0.001967174676015084
0.006149064513328096
-0.04717466013550441
-0.012689101074924438
-0.02078978056687553
-0.015095077845652328
0.0004536443922351735
0.0033927930768618162
-0.06427871133948615
-0.058963315212630416
0.05684616091457713
-0.032833685678896586
-0.015591651882734332
-0.03740264675579865
0.029360184430513497
-0.019266868839062562
0.0019434073897945793
0.047929499382978295
0.06786873305313894
0.03897522688365508
-0.030964992097831795
0.009731083198277686
0.039549312549717046
-0.008223223799995754
0.019644100084696182
0.01489540784639601
-0.015727274216340518
-0.01653327752343936
0.0784042460760736
0.14537079850644807
-0.002362632114917189
-0.02092942024072015
-0.020775175691182174
-0.020377635811361414
0.014950581502161737
0.005835996377570337
-0.0011029966157938232
-0.011283976396638142
0.018474609788399
-0.005069696598606868
-0.13973165060044204
-0.036608301799328925
0.011214129670999422
-0.061879173067257515
-0.02657418118968927
-0.009019371279005898
-0.008860685253374087
0.016117384207104166
0.018403280070657054
-0.021387032634432517
-0.024882925829903566
-0.023428926127712194
0.07142922026298304
0.01410439830871569
-0.024570262725520417
-0.0024150192697972883
-0.055434232799988055
-0.034847114345452755
0.024755136635847216
-0.05739095788832978
-0.056185313736360716
0.13503008634816643
-0.01825675316594096
0.009573826124358947
0.09356180307577215
0.033870714161669306
-0.004121422367587202
0.012604395552941572
0.031176356532792996
0.0005332178209602325
0.006041875029789203
0.022803878673816246
-0.004633933816323518
-0.11935848665401211
-0.08726315682699928
0.022724232627088146
0.00800200811655143
0.015835011820393916
-0.012038826835735017
-0.015090085464462086
0.008381373407312018
-0.0005933497375751539
0.02909213461275727
-0.012478753654201074
0.004810680668485749
0.04704336466409699
0.053054859049918204
0.0011306536981737921
0.014488290683999512
0.0157294625159693
-0.024655207317524686
-0.015842707425089114
0.01879319927425308
0.047154545010110197
0.01738305371156152
0.0026716994014342075
-0.04855901551648446
-0.04968584266793124
0.06436808836283174
-0.026141794958639088
-0.016772267887638324
0.030683517029238667
0.012962884506771159
0.0007882562528019375
0.004693941245018349
-0.03133863694262388
0.015711302035735553
0.14247608622071775
-0.011430923967865486
-0.018436713721027682
-0.013290217598242612
-0.019853087117515805
-0.00452474630727126
0.0070581724930271665
0.012588392606834118
-0.0026902420199964765
-0.007332481105276677
0.012076075560846998
-0.027651011802635964
-0.003764894607773948
0.004674036183673621
-0.22485268917714524
0.001450987391921011
-0.015224305156440174
-0.016980722425109857
-0.0018693670269162893
0.004733910590735686
-0.028709225014484367
0.030705595460258615
-0.041015552472795785
0.021192930242828256
0.17037739703215515
-0.0428846969822052
0.010827514729053998
0.02796186068765497
-0.04060735004416687
-0.055836145162805724
0.010311912527159106
-0.03966361031960379
-0.014379709227876299
-0.011178509649766
-0.034609194391994974
0.045546947613874005
-0.0200207984787225
-0.02675688770080999
-0.0019492994016746007
-0.0009448834237393927
0.0015309312196730264
-0.006546539379406134
2.1184049374388376e-05
0.04289708759122235
0.05432631337814161
0.01413746922858351
0.132089259764894
0.0037092930789512
-0.048585940665507144
0.024544159146494503
0.0113141831487696
0.012243917903420295
-0.021394775343025644
-0.02158946826931441
-0.0006693922995730354
-0.02644343795930978
-0.003352952126703278
0.016543440374872098
0.025607101814508117
-0.011615892002836524
-0.02655179192748061
0.016782952126099603
0.03879714661987594
-0.006036462542948729
-0.0029116850287777053
0.00012637329200237697
-0.01544339797863107
0.011398457544188756
0.048647456046586296
0.004985062099961146
-0.014585969800018873
-0.03369870374459558
0.02232699340966424
0.028498828490333854
-0.015735784847871203
-0.0001201762169112633
-0.006658597709133709
-0.02962159694934501
-0.05326469060677163
0.0016386218530705472
0.004666193642576482
0.01855385171727631
0.017878061990225732
-0.024561301574541044
1.6309913816535573e-05
-0.023608646688825924
-0.024501684715996442
-0.02338456413382979
-0.02311557090871192
-0.0013290768860199733
-0.014923636740923533
-0.045891796019022706
-0.0417569533807631
-0.023646649827207277
0.06596797661270597
0.1308271816382677
-0.009047247990895005
0.006878788714891159
0.020504212784885435
0.06568753028846136
0.012235890395011882
-0.007393287245026101
-0.13733673771865054
-0.03326529745537293
0.023190445709990203
0.05959318622831512
0.04891258473436532
-0.019177941577823834
-0.00833231660644601
-0.007137058896664086
0.02316541500337117
-0.01971401344008755
-0.0500035437095959
-0.028562405449757012
-0.008590713321136865
0.014449985725485847
-0.01894084045912344
-0.0053982267655241015
0.04751433166198393
0.020267222555959818
-0.012527510329510005
-0.019955976886432254
-0.0036176633020379434
0.09621140855602378
0.0011742444665337878
0.03667227068000169
0.04655264455692251
-0.0026756133980977573
0.07487402988269645
0.009238918825814188
-0.009362734318519006
-0.021012613555177775
0.025617671845210264
-0.008385999039267107
0.0513205398598906
-0.0010651651951221232
0.003667212224008343
0.018729166035827954
-0.04197968623833981
-0.13276519351703472
0.012177067224939454
0.037875827452857405
-0.0536204016501308
-0.015323726739832382
-0.04598623767116485
-0.13063147777474854
0.02227032902709886
-0.06598784427141761
-0.027697351545003267
0.014331123826716214
0.03783096628339265
-0.003937355414876985
-0.039626105215630716
-0.010838001637501494
-0.008811756065627207
0.04486482907924596
0.03265490035580991
0.000713731816842543
0.0037773208247892692
-0.018750485082771
0.039996399474545266
0.009010311878864313
0.005377659943741322
-0.041913698719788915
-0.016690471057202685
-0.06583287615816456
0.03537536636010565
0.06048496170253128
0.01454706953936356
-0.007820985586453326
-0.01217480903349965
-0.01191259373660237
0.041400184262777896
0.02060130466089849
0.03327720450563789
0.00250805771220454
-0.017864107490686214
-0.026153917997128837
-0.001175205165243145
-0.00447357486510574
0.017302772760096195
-0.03017382325457036
0.079610956223899
0.06802644870965152
-0.015398153243227644
0.006803964515407912
-0.02993004769617572
0.0035666595573915693
-0.008689145108568637
-0.019356737158000126
0.03366633404158521
0.03005332695599142
0.03703420488288719
-0.004093593256836549
-0.01363350101888062
0.02890952124539895
-0.013970307921029403
-0.01836574269226419
-0.05690289441169011
0.014794822413034937
0.03207597248859854
0.020942819783399493
0.008975323091487545
-0.031666628755853556
0.014875166076977834
-0.016118147158135355
2.4783219750243525e-05
-0.021665675262052236
-0.00208379465417599
-0.02070216331926086
-0.046298904930267545
0.010460558797480767
0.037108259498028456
-0.050223983120090826
-0.03828620520869197
-0.018469626407532105
0.008328027445522305
0.00483660060386047
0.02287078531197037
0.025345966705566356
0.033829383371574526
0.040506925159168324
-0.03729378099531484
-0.04821835485658256
-0.012255384530932417
-0.03177984866956651
-0.0017354305549687234
-0.0004259280849756074
-0.008217314524614945
-0.026584807263632004
0.0009566972727222912
-0.04940005462596264
0.15208292823392908
0.01955797678292394
-0.037930441528797244
-0.025867268332310123
-0.0004190580277879166
0.03226203609890034
-0.02301241753456078
-0.006898679832355226
0.004387571603625235
-0.014085251481056613
0.0022609599130659036
0.006970404879776631
0.018739851538554154
0.0524006401716291
0.07401734037569939
0.023305633883938533
-0.02731971509377703
-0.00980015219261201
0.0012119373556510494
0.005521910041028674
-0.06544158292375261
0.0025127588120461247
-0.01901305282856501
-0.006125105273230189
-0.02741251249776145
-0.007291935110803464
-0.0007073133298240601
0.046516371449866395
0.0046020647568501575
-0.006277909433798108
0.008311430486414518
0.02863006935411101
0.006437508216420691
-0.03472242141874588
0.004678621246547235
0.0003638506061728821
-0.028905436377605863
-0.008545039467799354
0.01163735225978136
-0.036036754980610146
-0.005577517436792959
-0.019132233274477464
0.03928484766948836
-0.05320644099431074
0.033896647491690864
0.08419828596565651
0.13546270224835946
0.15258674579853537
-0.008394186524594456
0.002606665697154335
-0.16394951637188285
-0.03346576391798966
-0.003826501224764239
-0.05377852141359458
-0.05481038090877337
0.0037289175337997652
0.01318961762232867
0.0067242703626606976
-0.11687091330305022
-0.058781968406493884
0.060793991791368254
0.04523809117047675
0.013367443522110337
0.016612982463628585
-0.030173941663894872
0.007145380625032622
0.047055881523447814
0.0018243871668547687
-0.012377043312318411
0.04266350991880651
0.026477972321893504
-0.02082523875163688
-0.05252549619474403
-0.020890586924124693
0.0011226668390931934
0.02234906472831101
0.005376507742749899
-0.02204507822503009
0.015552250798448304
-0.01396257572737043
-0.002259775166334028
-0.012023715919809191
-0.0016972424931277529
-0.10413947291833092
-0.0820352274090632
0.027225683014154185
-0.013889136429392946
0.07592335064674846
-0.006455863669893148
0.01704974036906765
-0.029519019691655997
0.04028604128052307
-0.001951395589113855
0.050515723232117546
-0.1249223426139951
-0.1313071300965133
0.060262358695500555
0.011293125855337142
0.00985045371502429
0.0032208744280067983
0.03361332283243745
0.07713101042959555
0.0990565696985803
0.051447189169469346
0.0581593281798565
0.05569992889829869
0.004723809926290994
-0.021870509065425266
-0.009530681683839366
0.0039006434240342292
0.004675368461245486
0.009014374003736187
-0.012300217139937997
0.011365853148108073
-0.0036324336406094175
-0.016757565991947655
-0.017117455880650317
0.011494092386249814
0.013409829918831067
-0.1139618135991068
-0.07495831068009896
0.006263990455825693
0.03264359608412439
-0.01374173396449121
0.011649411305324996
0.0016157290971688593
-0.09364734214833749
-0.020974727428283366
-0.023999332563541496
-0.003911099066812454
-0.02588817405409577
0.03965134120598061
0.003943992009720817
0.06354521312318555
0.0002357488521740575
0.007362877276506914
0.004946542797420667
0.010384658770781692
0.008534021300670706
-0.009738115224151645
0.0016628604968875883
0.043983814234892976
0.01593977071829292
-0.029946190450845896
0.03457831384855863
0.09164396594278587
0.04635805979898385
0.004079156729072167
0.01819056213390083
0.0001247332294643859
0.008465432925623566
0.07001603738545119
0.039169851070363755
0.00033581429702966197
-0.06390095773270678
0.0013021270930845055
0.022442276495308337
-0.03766355936931844
-0.06925350240098334
0.05805705584400394
0.004813124493043415
-0.0034935047411527006
-0.015313713445536316
-0.011408505917807708
-0.047935898126325635
-0.11870885464021928
-0.07975643750919803
-0.0829718119608664
0.020252358979367696
-0.011604663294879282
0.05391963763975569
0.01837332350912291
0.011913527886230423
-0.0011003060647800575
-0.03510113187361774
0.027709180636693326
0.0363157000928394
0.026933877011476058
-0.04070503902092815
-0.013829464316720093
0.009511995285940709
-0.03073213552609751
-0.005267443741498702
-0.0843982298649955
-0.0032460538097192813
-0.003489295936761755
-0.08067124044225393
-0.025724623181969036
0.01656718164183605
0.0033371242033873845
-0.01399793932482044
0.003095987354020519
0.03562641329924766
-0.005286560542434667
0.02831319906118586
0.043396324245995155
0.025882218804531447
0.07794061234005309
0.056459031794770964
0.03724574605267539
0.030230459181900714
-0.04353217611951035
0.08256321149381406
0.040849682831365315
-0.021938322581690917
-0.01402803896096319
-0.06954701180463864
0.003132810558523963
0.03369384685470822
0.007435985792614915
0.015119827401973207
0.0033765899165494203
0.05451918853624765
0.034915360029912676
-0.0299535022754441
0.021151016355498625
0.023261537348327182
0.025964940504311394
-0.0040297338610785945
-0.011474782214410138
-0.006281587645013901
-0.03414826531829527
-0.033490503592990016
-0.021644040360432583
0.020261015488116645
-0.0029506814704773673
-0.03790707099669972
-0.031966703019169804
0.0029378691664280706
-0.012831655211553121
-0.011838112356401627
0.039372670818551184
-0.0576131640622825
-0.026983607844148435
-0.0144714712749994
-0.12064328295901325
-0.0012016751958155766
0.008716466449759703
0.0027132669671605628
-0.014501657322541437
0.09826219846798083
0.08765605834096767
0.028167048747033515
0.011436738897156967
-0.17883324501924674
-0.08880392495630454
0.004971236613247068
0.00696127620641691
0.0626318550123518
-0.02819655484645102
-0.03498524489014737
0.03344413226928525
-0.019047838669119643
0.02843346995091205
0.020935870962268434
0.11737838444098564
-0.028648190571228742
