0
-0.021818176995175294
0.0707235508864006
0.026493939124624836
-0.023323572764912738
0.002544807023827334
-0.0189361901091431
-0.01257849908404322
0.07555757686814779
0.008482160200710465
-0.005399270935893191
-0.003885863093155762
0.0013978706384468816
-0.030223099899798996
-0.03760223344479323
-0.0028737737901952986
0.009445883065822669
-0.011597006405117408
-0.011488776116809788
-0.0032815762061558775
0.00821462259076576
-0.02093291417677524
0.0008433426239816117
-0.011913171060923499
-0.014363551173746963
-0.026944611358760178
-0.06977440163769343
0.07226460056467161
0.04806669678954905
-0.04265863149293849
0.03299002176450016
0.04178595898432001
0.08885401601451216
-0.020755041709509713
-0.02151858547384264
-0.005321992024567621
0.06722065839324375
0.0239459598537489
0.027058340039059523
-0.025719743126469408
-0.029842499306861937
-0.015282909516573205
0.023416920311233037
-0.1215331328485515
-0.1697337086590447
0.024278561411055583
0.017660679706235135
0.0031598877207719626
-0.0013517816601987414
-0.00476932298416065
-0.010872982171147298
0.006001610667046934
-0.021837291804262842
-0.01997949512555921
0.008769552653275902
-0.02684840887965205
-0.01117351044959333
0.014829458005718932
0.0030477300102738102
0.07388180519629452
0.04588240470903682
0.04302139740818856
0.020075747554129893
-0.0005588356403001679
-0.009942353536534497
-0.018472965570402625
0.023021359109577876
-0.025469001994118206
0.07154065742070931
0.05889411567195222
-0.02983381734719038
-0.029763501106411887
-0.02049549734053894
0.03180119543278429
0.10252783129581476
-0.016697052448301986
-0.04963939566585324
-0.009683055287604153
-0.026216443017951615
0.0036040061312435758
-0.014364829356806292
-0.005896842479736213
-0.0018118795554920174
0.0058193914195624145
0.062122923213445605
0.030932660991758894
-0.021449014144804008
-0.008958743140520345
0.0010380687572430517
-0.14755394223584073
-0.05678614254004009
0.007917649447799928
0.0166340200825034
-0.00802533868285432
0.03144746615588864
0.022566345358942957
-0.016870892960276097
-0.014986989815038784
-0.05555079080241803
-0.006059030396740736
0.04207100412481745
0.05930521010231357
0.010647019203648543
0.0036899857793745126
0.012120001379799633
-0.027669605662198064
-0.031413300263752206
0.04700470852265129
-0.034481696468039745
-0.12925134867161475
0.025848230669043896
0.10441617194022491
0.010148820087694894
-0.046166542874773335
-0.07451594970754145
0.03152788882993518
0.03618793656271086
0.0300226733715645
0.0049865956366377945
-0.018357764680555565
-0.0027050589261074904
-0.004243007531077736
-0.00576260629524348
0.04582135290289175
0.026068115198711717
0.011656840920032606
-0.02249869384140031
0.01651719607444038
-0.02002581424800175
-0.00866752102549839
0.026860329235263034
0.03221329372762039
0.032295693153378144
-0.000666377069782921
0.06637969057425422
-0.018260594756927383
-0.024508313854001297
0.031100481708870024
0.03786114767529798
-0.14903566233782
-0.018286557027044303
-0.01804030966673264
0.00786408777604352
-0.015302278513108069
-0.06853260707231004
0.012239992662486666
0.04937015360530444
0.0027622431406980467
-0.021493319641600058
0.035979678138722215
-0.00792641936624274
-0.00869965463713273
0.004226523937977542
0.05740250986835979
0.09433783108202203
-0.01868120819250852
-0.033111816719432065
-0.024719904387092827
0.011166549879739193
0.0013798972410984046
0.0257265587094129
0.004171115333194427
-0.03594247358711741
-0.001938860306566607
-0.02644754420035744
-0.0014309397012907134
-0.008547213442939603
-0.014725833935630471
0.028391313206698472
-0.023782453570612525
0.013033064277553515
-0.06378995118898227
-0.13735486269838976
0.014003006067161641
0.014308608619751252
0.01630546379805397
0.022959320799939696
0.019944975643632592
0.022026293484387137
0.0011969735494326036
0.023009207078911024
0.01986000551437512
0.022566647132638458
0.04193013094078434
-0.012760480908087271
-0.03325330446870499
-0.025900036830797744
0.023373408229390494
0.015313391289710732
-0.0012657498022060657
0.02871801951074827
0.01114526825034177
-0.019623107802905455
0.017911766109625932
-0.0037908513702876352
-0.09685206928549053
-0.014541851063714908
0.035889657008007565
0.044491947532104725
-0.0382122359085085
0.05124598172271436
0.04184038685491384
0.07092051025844708
0.02510559588242381
-0.012312590915559914
0.003403409547681128
0.008351509031422141
0.027056001045104677
0.016164616106750504
0.02631244460450649
0.025085428528115905
-0.1277033726976095
-0.05263975051022419
-0.08305839959736952
0.02720223506590862
0.00861719306326157
-0.005860135343059065
0.01914379466628191
-0.10798593096867215
-0.003047345187019203
-0.006555601131479166
0.004080177105590682
0.008447045623200288
0.01630712189953096
0.011535066120518439
0.02051794779451432
-0.013694711550185088
-0.000394493054758819
-0.007500498502891231
0.013861262756219123
0.024810171216634775
-0.001500136984939764
0.00223617903116613
0.03671648015593095
0.03600021841664865
-0.009593997017526197
-0.061427178113132544
-0.014936372031842218
0.04329433251192942
-0.027750131711224747
-0.014743467171582604
0.022498692668628837
-0.028360693906763268
-0.03367246781089222
0.00853481963263522
0.0151846006233555
-0.015766372238316725
-0.19173348403031812
-0.030925370743579324
0.024247619827467932
0.004679782900231904
0.04679782611550717
0.018678953064327177
0.03147408730872084
0.12543852663654265
0.007697002873098857
-0.012795840910228997
-0.03095160878726283
0.05860756518900186
0.0704000301991498
-0.06101690757530325
0.005852315367173018
-0.005104711383604918
-0.02890489698814468
-0.014266156761363268
-0.008900930006561307
0.008623040014951207
0.023534938131594452
-0.030325606804072633
-0.008191624947086692
-0.0015943913793920522
-0.010965944820109064
-0.019183136275578664
0.04476455741050232
0.04627906591484644
-0.021902031798733557
-0.0004997853696396979
0.01109453336718109
-0.0028705825856382935
0.024585871155676762
-0.018422363714646204
-0.01106370442489831
-0.030593607060968017
-0.007520878122413677
-0.005163751787631371
-0.029421277515633094
-0.002633783786930011
0.0020897184934674773
0.11478275263991572
0.0630534234957135
-0.07012545722796201
0.025027229871009082
0.016829282052299437
-0.01040613908563279
-0.012791720456152334
0.041179836303560556
0.011807713906540953
-0.0266181914546618
0.013888808085595318
-0.04032240516722647
0.006130283803982483
0.029161584222569266
0.02419028554827249
-0.023826938003509802
-0.028607387448025007
0.11771584567953584
0.04996870730417052
-0.037895287671082675
-0.02550557303477893
-0.027024246872291807
-0.011038259374431614
-0.013142538937215852
-0.012255850108718411
-0.007755935029738454
-0.001202548140553383
-0.02958832570218178
0.0028242816415498975
-0.009581176602406502
-0.03820004716415153
-0.009316936457962142
-0.03497709164080267
-0.02096399383099711
-0.00048198670875839784
-0.008190030589724204
-0.019710488786208763
-0.003940702268907723
-0.03358051973591399
-0.017765926444330487
-0.02728294042483676
-0.012035049380726982
0.0648552418360293
-0.011985207116625329
0.006041184987639302
-0.007155831587951188
-0.01400937573639978
-0.0038857728429550543
-0.03886423545652234
0.040065481760935766
0.13736026183204095
-0.019146323222153646
0.019878755600885183
-0.018660305061740327
0.04021888028536355
-0.004293126161093078
-0.010077070610997843
0.03631705966093173
-0.03661342229928877
0.01072076288592795
0.06301673067704328
-0.014002794878109702
0.03006702207819035
0.028946252541217292
-0.02919747293427825
-0.006659021492104906
-0.0016860423736001617
-0.00918295029669754
0.0031298543906749274
-0.016309344378940164
-0.032458322913396474
0.006765640271723628
-0.015828412944205426
-0.039874159322179366
0.03556210407733303
0.02992019440922401
0.00945591639918482
0.005973626483714356
-0.02141895518203743
-0.023909094436070383
0.001687892913875236
0.012987655534643117
-0.017362694674347638
-0.0042018878547793815
-0.00899320619875258
-0.13604921674173204
0.001025551391364804
0.026756796728993414
0.03387599460574097
-0.06053263574473417
-0.0283244794005045
0.07954802141558208
0.03217071215603853
-0.002082899481587642
-0.01237579434615008
-0.02627569875493149
-0.0002679257089943112
0.009668605778186606
-0.0026936154615690546
0.1042012301992167
-0.023520573204928084
0.09649014521652917
0.04468565060504678
-0.008921913788387647
0.027713124981399467
-0.02526490091476063
-0.01824773958458774
-0.045404416542473416
0.004709009926293403
-0.03960769001429654
-0.06274235710648264
0.028766832084524758
0.006361340602679232
0.029399723502931168
0.0011650536336746597
0.007095506734428194
-0.01573652928882725
-0.035511058228617366
0.020360967262519455
0.02083769295884036
-0.008111083118021977
-0.06591303289052233
-0.03946114950455115
0.05162350103773663
0.0005919374182504637
-0.029513409392662553
-0.08967884798023473
-0.00922210469259264
0.005752352172913565
0.05917907924292796
0.06257805262598357
-0.026932730365668137
0.05888847574321679
0.02288622599086917
0.010272176174264356
-0.008095970846294646
0.01209624153769786
-0.04336567987925942
-0.020370736278513123
-0.02455945780042202
0.010700627345875416
-0.0008104943181883633
-0.01675923836303953
-0.026112729522553745
0.0070926324648075
0.007870452426820097
0.04163491755665439
-0.021838289247600937
0.030746997855798312
-0.049642538364209045
-0.0472479489177394
-0.014803657118452473
0.07360328924084822
0.06862038587810033
-0.026326536694721417
-0.014537808200410464
0.0040230612558348686
0.04563972866208192
0.0010769234482091692
-0.012439190167811358
0.0011512699732375959
0.031784025461135276
-0.03311578809467715
0.003955337616821958
0.06687241709266681
-0.015070082355925303
-0.022399251872830345
-0.01161390544918824
0.04572589244541
0.0008242084398485467
-0.04283814305617388
0.0024505208550270013
0.043595822454792314
0.08708282000567176
-0.002621728643197956
0.0038598265812067427
0.03630360810330712
0.003788811134659742
0.02179837777794806
-0.03854450759760063
-0.07918248207880656
-0.020593985010032286
-0.05179034156785802
-0.029895064415436583
-0.012578898141345954
0.0395580643439275
0.030800527754672315
0.015493310746645067
0.01198069191193401
-0.04844391837788647
-0.09395348113046591
-0.018053743119953704
-0.04195509483670925
0.013263548756759893
-0.023891170786040025
-0.04760162896584624
-0.006952910421358461
-0.00015237381871442265
0.01703795572017846
0.029221119393594105
-0.004506146184678589
-0.017240823503011395
-0.018785359754187356
0.03387618320325886
0.02320834623557635
0.0121564656946271
0.10077215616560668
0.02664503063679501
0.0010688752268667215
0.027383508162806536
-0.020807058414132548
-0.024800983009134206
-0.03361492727897835
0.031472507263838476
0.0989683260667076
-0.019953363672722997
0.014504856931580625
0.016550185308451964
-0.013816363747852008
0.006384845134040658
-0.005918600088455783
-0.02898008913041042
-0.011673604370437475
0.010038996283836433
0.009915032586158624
0.05461845582074437
-0.058030659707433395
-0.13491533214462767
0.0163410479785219
-0.00364337070386251
-0.005475776299996197
-0.010645443245993539
0.05201902685777602
-0.0053842199477060785
-0.0860629850853883
-0.00688366657849662
0.012640243283240921
0.024020449752394566
-0.02881060014092624
0.0055310283325879315
0.00843377478211543
-0.0095365845603322
-0.0022137726331367775
0.001304565599775053
-0.020985887153419182
-0.008362956189443674
-0.017986795883839456
0.06477995880827171
0.01726357775761715
-0.0016030121561247494
-0.01601217649648818
0.037883552423573295
-0.020751646832858857
0.013018647863957747
-2.7180458010286548e-05
0.0008377973616193941
-0.0520236208337261
-0.008175731763409416
0.001968263221392183
0.07644216676311562
0.1158923328655196
-0.04675174522722462
0.05730813385752112
0.01395945962729363
-0.022168654382333605
-0.015834583181781905
-0.017834897954216108
-0.03907289338476785
-0.009808673681864456
0.03156742112251511
-0.05247353578282326
0.001131153798100209
0.03801515195791639
0.03362974010225716
0.0164728953515188
-0.006440021143909786
0.0015387209675036201
-0.036069838466608904
-0.02206202181557119
-0.04855019384269259
0.008814203919783301
-0.02769189463055185
-0.012303622646813684
0.051312374363930775
-0.027627484778948306
-0.026683768275239078
-0.013488774520851942
0.00687768582540067
0.029752575389183137
0.020903518763440015
-0.03533878645887196
-0.030079310807336994
0.02844072131280791
0.01805722692838899
-0.02134784396826349
0.10821138834242612
0.12834952463376786
-0.018291210174093513
0.044699488794563244
-0.017608184128258153
-0.010727853491930847
-0.015500558462570934
0.025171421138535106
-0.024998879330695466
-0.006543551974082124
-0.07464063022458704
-0.07191459695649544
0.04021615809701405
0.031566529779932295
-0.031512990195173125
0.005614022215236315
-0.1014759780477867
-0.13540329788521788
-0.08520901078425352
-0.028991449597107283
0.020308880004091173
0.01726586812987079
0.0019382512355079556
-0.025466154600974806
0.008437770233342625
0.006570421694316765
0.0705128591706726
0.0301558331001102
-0.0018925159435527186
0.023098368944758012
0.03595048805619717
-0.01986781596433963
0.015799400803675555
0.11899541785692556
0.029722821411290217
0.007605939689888881
0.04624949386785584
0.012599711337709006
0.024896257287738616
-0.043301988638691474
-0.02742760409380551
-0.04520261368507362
0.060215468021287966
0.05636939908171142
0.022061998569736875
0.054599511240008135
0.015970556154130778
-0.018119036243006075
-0.027509560580637252
-0.0798474967889501
0.038802157846934644
-0.033442141139806494
0.032617238903718954
0.07574760581652384
-0.0697681824972293
-0.013048419088694618
-0.0033905750188655205
-0.0413221215643242
0.02554809002734708
0.003761032746392987
0.036124344492536764
0.009292242453387639
-0.0013910179073540368
-0.003907931496840871
0.0782141631932853
-0.1281826603388478
-0.2667258000285965
-0.029160751157670677
-0.010928911431717573
0.023998987756675208
0.009281955942636594
-0.02370863129596555
-0.004601564632517404
0.01704668041361998
-0.028608482435634873
-0.024588109628559313
0.05339443781348537
0.021723044408832288
-0.006339381231973036
0.04380314678023994
-0.014037100296851332
0.029476325620955854
0.15694948164587635
0.0030128874717522992
0.009152213803314676
-0.009821245276135407
-0.0012688863780147847
-0.021817731851722876
0.1143696877692875
0.0771039357660753
-0.08628077170103848
0.008603194403873018
-0.026508191658368215
-0.005669746055867691
0.01716739170613801
-0.03291619958495843
-0.03182814486324998
0.01480821706816555
-0.01890513355837848
0.01733537552326414
0.0055885275423260055
-0.008981629920257035
-0.015464996342696805
-0.1070073148545028
-0.0465788161208687
0.046803281820633265
-0.03004090142395606
-0.005518196735494665
0.004750088632066778
0.07683854704672871
0.022897560996532864
-0.030279358299404296
0.026387064818915614
0.03156850792361405
0.0014387964545522474
0.015109975795290161
0.03719765508572709
-0.011947413615201416
-0.04019568599666308
-0.04230428973398644
-0.13362343818120562
0.0634629961083979
0.06110530976922843
-0.01107276498309544
8.23288745607352e-05
0.01854970111839974
-0.06106405529547264
-0.035733940674596336
0.0071190182909629755
0.028594223543314524
0.04256420269840331
-0.005857813918193152
0.05539673874796455
-0.10922919906871938
0.00471902969650275
0.09154008233482823
-0.03967322037654022
-0.009679029911416922
-0.012200784963269751
0.013496609397318057
0.017052346962079797
0.010350312955186859
-0.036981546910227384
-0.021555833578189288
-0.004850730172908556
-0.019228692802926443
-0.05329629226995504
-0.011720182029406813
-0.003567440103147167
0.029993465450332095
-0.03098692186513453
-0.01200012154993005
0.11307777019029248
0.0003171270405930558
-0.008248396349338803
0.01799936777558694
-0.013005730673834344
0.0034966319090902124
0.009920602101005729
-0.02931904800095232
0.1098712384312622
0.03025098244532045
0.08049352037190217
0.037931542068549894
-0.02619938489838502
-0.030942774300967382
0.04365406934176295
-0.005233109337167813
-0.008965570860744518
-0.008373755796325842
-0.09342914457311194
-0.014440320483170253
-0.01483177184829661
-0.0029959409931534673
0.007362598700038234
0.03369159997250851
0.004495343845046615
-0.028319796627759776
-0.011495287935337536
0.03064815215497778
-0.03907440098204332
-0.011618133590840195
-0.01241354358711743
0.010637587337810542
-0.04428979483235698
-0.13794187854463427
-0.01505210072349182
-0.0017342667429316283
0.03208884054866069
0.08920954513529382
0.04684977751375684
0.004246623576487637
0.07908273436217504
0.01075249538858344
-0.010592959395443123
0.06544208425941163
-0.00954792427011259
0.026497757856272366
0.05525602449741104
-0.015317750785101105
-0.008395302675974554
-0.02205954358403572
-0.014497083852530986
-0.051347925046943146
-0.01250117203230829
-0.01838596271148675
-0.04224579234469292
-0.015303992029678864
0.0030125867727201863
-0.011556138823930737
-0.04916046768078154
-0.028845481838104117
-0.005060965584311443
-0.010695511775836952
-0.03934912257502109
-0.038180608537602564
-0.05298277304413767
0.007135397257135681
-0.0017330759424904049
0.04640163517210178
0.02544134790586294
-0.004604149131633135
0.0039880983137554745
0.05296222427527895
-0.004114293898385411
0.01776789837279669
0.054889008019825075
0.012823662788386795
0.03158113904149099
0.013594850418229576
-0.02756161931206623
0.01020654246047865
0.013554498795274211
-0.015573836910203124
-0.0013521245218177495
0.0819700266670471
0.07019850105775079
0.018147281983110025
-0.04777080753510888
0.008859427419293655
0.0009494037348113624
0.006213822772731737
-0.01552779068714705
0.01233223490830877
-0.008161352262759422
0.011559645243685673
-0.016516020101527296
-0.009871790614356286
-0.08290090478213649
0.004674639530234545
0.0018878256954471043
-0.015601083719133992
0.003135465749775129
-0.03646456604360342
-0.03321861101814504
0.011025566243006378
-0.0498621550410948
0.018959137981611158
-0.028069287151525926
-0.01856943163403869
-0.040247717903873645
-0.027411074875909328
-0.015349284797438094
0.10432017499964265
-0.00231532161262171
0.0386750603738363
-0.017974965866160465
0.15274859625158535
0.061399632993224325
-0.028637130101366395
-0.022549238718800886
-0.057854598315087935
-0.0402131944959767
-0.017379403136069203
-0.014033463304859377
0.012701764549522605
0.006019128676106513
-0.02468635650548011
0.021727693561282062
0.012916525063820405
0.011491035856571602
-0.017236668687784912
0.002081342743215682
-0.02259617584702607
-0.04597242614395957
-0.013740462690854723
-0.00452122303767992
0.03668303713955839
-0.022720282181404802
0.013099801946160753
0.06769777021079626
0.00812435713968996
0.022165216071660093
-0.08368452504848595
-0.01810701091821158
-0.0001823109587689144
-0.024966034881377473
-0.02399894934533331
-0.028362321911980966
0.03817436527390026
0.02597755596349425
0.009853959646922433
-0.04074205575546309
-0.014379491402945073
0.12227728379594625
0.01947905067868008
-0.0713867209625307
0.022504747891380784
0.03801453513674986
0.01194130320917625
0.062296463654167356
0.05159528616055143
0.14505128799550657
0.028427489884731684
-0.04311793497557353
-0.004080853677425832
-0.01953519150164443
0.05990333587370845
-0.006943628774219846
-0.06815146781003743
0.012107428426501416
0.009543021881731461
-0.08084047776998379
-0.05591223536604906
0.00034099248338925395
0.003815448004408828
0.11717845059186219
-0.021193371370616262
0.01517107227192201
-0.09884857967099724
-0.14188562106089977
0.01776817736528304
-0.01028683143316417
0.05416654826208654
-0.0003324372172933532
-0.002942078834792872
-0.01693758269773526
0.004934353493004681
-0.032999074699108094
0.009416919479607166
-0.0580440545687908
-0.1671764228211722
0.001741199774261631
0.01817752716757051
0.050129016010428275
0.01724193308731038
0.007388410477890451
0.09698076822500579
0.002352446219750949
-0.011065260192614525
-0.0332961348013857
0.028509207914397403
-0.014564576386439754
0.01009836734215519
-0.0626742161199881
-0.09748668930378321
-0.04423947547057226
-0.08986939588516195
-0.041801966949638454
0.010183304548443487
-0.051906460140572354
0.14046947367510734
-0.003131724122218378
0.07584311918017152
0.1071192365539296
0.03741905478244337
0.03471756229168137
0.0018607379311254197
0.0001724681122895338
0.11899848347677026
0.09345797597642486
-0.06027401466612565
-0.005697597698476733
0.0806386243759133
0.07483451567274217
-0.026367151883275732
-0.061178473453726144
-0.029967506945353467
-0.010308563748874195
-0.02676129190001903
0.025133083668673763
-0.013437214279066294
-0.00841257316642878
-0.013142528884766502
0.02956868437248596
0.013054117092970222
-0.021055867338278626
-0.02982615308888347
0.02435382574619899
-0.09410972758035412
-0.027792571100147233
0.03006130462933518
-0.00651378555928453
-0.0019083484285402287
-0.010068180042288311
-0.0023596957010869972
-0.009936844712237915
-0.0035631665948258084
-0.01424086648091765
-0.018940687557190576
-0.00756619281926277
0.041452546740602655
0.018158486155930468
0.021151992510194863
0.021933017667282922
-0.00017158424652959824
-0.03413124172626443
-0.015481791814725265
0.002327513114693616
0.018702330142078623
-0.0028866122127009742
-0.01789838005840328
0.02844282611012586
-0.04938746323173809
-0.08489634221299802
-0.03166039234903667
-0.019116881487869018
-0.018901793176099187
0.017069115449643464
0.027747573149649166
-0.005275037710907146
0.014125358623374816
0.025865210576658568
6.362747312032896e-05
0.0147250339604258
0.0917912168689175
0.02506983843347316
0.016919175527611255
0.09384385888265127
0.010299903316241572
-0.02611195685032007
-0.03562302672602343
-0.022324178378057932
0.04161212220378641
-0.007082588062755325
-0.02747643981482199
-0.01216521287317863
0.014024552373552634
-0.030039881272313017
-0.04855050741552622
0.027445412041963945
0.02855792732647218
-0.019448918349636926
-0.02442534943818386
-0.008236888499990812
0.024012050696767297
0.006950468882166102
-0.005805258522477891
0.010099508949839336
-0.01806801026641246
-0.031117431127093895
-0.0520623311392596
-0.012434063093204538
0.006363367899497804
-0.007376496417139531
0.00443727999819356
0.0016925238565637759
0.026371301607083
0.035540532219384045
-0.004438766300484092
-0.015100103447753322
-0.11781193875575278
-0.04604213936390321
0.10405244043468895
0.0643678646946365
0.006806002431027911
0.00856282854222984
0.0459449484087165
0.05079885646040835
0.017968781644649552
-0.017514358548072786
-0.006616603813296504
-0.028694785482014568
0.002704548761888351
-0.013854411708585073
-0.0023709201932993708
0.015779699279556133
0.0006885837803399003
-0.036154166736632104
0.029558742995235275
0.036516780515303715
-0.02301224562895505
-0.0005653578444980621
-0.01928302070935946
-0.019981799482778704
-0.013663009741872996
-0.028512690110641878
-0.0439380230899346
-0.011272783354905724
-0.015470661928054267
0.0009161204638132661
-0.021754247496375383
0.003493284445490675
0.04116858482430662
-0.025571027820302145
0.008951443319663455
-0.017121197204798308
-0.00919946755042707
0.0070783356857102055
-0.014912843724692508
-0.016032193881067917
0.038267279363688095
-0.02604565878143246
-0.038889985312148885
0.042471293507565754
0.059979060068209064
0.0187150624428392
-0.012400449096787582
-0.0050892754279590275
-0.03950461547671744
-0.06517079296185402
0.20140635568745313
0.047165285075688186
-0.06841217393879599
-0.004473221025760423
-0.017993887390691587
0.037336000141981504
0.04284894231171185
-0.07179447729256491
0.037437231778315413
-0.02112341684369656
-0.11042995347434874
0.007510340027980263
-0.061921923849241556
-0.09245589849852962
0.05530850456067165
0.13688839355823357
0.010692078158402762
0.0088465851019536
0.033850516318052686
0.08420120938843946
-0.015954652228590976
-0.010088021572224154
0.03071446828181764
0.01334565287738875
0.04887906813382692
0.0037970612947769706
-0.025294269700829288
-0.010865805174532088
-0.0034171545280352027
-0.03646171933377755
0.0500683837859534
0.018296984859054587
-0.015246860099419713
-0.006002152886452421
0.00015628958997281213
-0.10772440577214183
-0.03774104328462507
0.0010082996486862686
0.010297070506558014
-0.009184131936210307
-0.014862832867701289
0.04456738113711523
-0.0031711524766407724
-0.004634933452828596
0.05923079390482421
-0.031357685878990564
-0.004659203021062297
-0.04085755348162321
-0.06433821417402395
0.045297318851965064
0.020714352581264268
0.03144703499240563
0.006280391485023228
0.030304412384151155
-0.003015640004612606
-0.08243377837567799
-0.028630517982885854
0.020026079380462122
-7.517626214898136e-05
0.02329536915264214
0.016965541174791172
0.06190537788882926
-0.0019779916380643944
-0.02384269869437465
0.0011285800810305591
-0.011332422220317304
0.01755664446297922
0.06227283760536738
0.007895271249631214
-0.02486617256167248
-0.08240884487193263
0.018653362177694116
-0.08608603222592043
-0.050432391514726
0.027009896359739296
-0.11785773291611702
-0.0547748187244408
0.034186383882998155
0.024582141987554103
0.04341923528444836
0.054430454381126765
0.026057877362331564
-0.005610629793884204
-0.02089064745847416
-0.03186413445332444
0.0019892354440073094
0.0015552740315358392
-0.007926576651321193
-0.03340560206413576
-0.021797564453125633
0.00258238472445057
-0.012750157279090837
-0.021740541549640433
-0.002764042214284405
0.12519058757670232
0.07564699564572665
-0.06793374762469183
0.003526072688711234
0.0034076987147191877
0.008929821322192562
0.04142960453728968
0.026676808975307397
-0.019948526967674834
-0.015000600714730182
0.005086209748945179
0.029464052848085558
0.018434305598726823
0.01719627340240317
0.01625317846177996
0.006545086130939503
-0.022661347645247784
0.039724141021077596
-0.004791575336388699
0.025968055177689263
0.017394309243305452
-9.940127280898232e-05
6.189822006951763e-05
-0.01092635696483077
-0.0035472983393289277
0.01795957251274602
0.010133266493382621
-0.009526092511414388
0.05732022174894153
-0.007512545770522399
-0.08673014206872284
-0.05485315586480759
-0.07573180043096996
-0.0061836441166591705
0.01604575988724047
-0.01495647552825168
-0.030737871040283433
0.033920785942189585
0.046311077784482776
-0.010839369385487428
0.03611619307996445
0.04852036803750787
-0.00959768701085518
-0.0029326720351622424
-0.039758447605930385
0.018461461587213786
-0.028870561189610906
-0.0014456250902547473
0.009658007894697817
-0.024690039029458866
-0.011621976695391069
0.00011352921038062491
-0.01539532386114565
0.0016832896799628808
-0.0018153680565690747
0.014703978273926065
-0.00862302064144039
0.006538520613957631
-0.006944180838756276
-0.001980659875927657
-0.013768693996804393
-0.05050541620832497
-0.018931134617345073
-0.005948626544978221
0.002226743538798278
0.09536641270508027
0.0005285180709224601
0.012514443600073165
-0.02763546939271672
-0.037667092713158865
-0.004258578111475575
0.058766300462795795
0.11277887815620871
-0.007725129801715777
-0.0018270695335864283
-0.014774576488953401
0.021987243057082124
-0.03501604878024301
-0.04781206409575595
-0.02034313188179642
0.010332470481312308
-0.04451919228093672
0.004988183780033593
-0.045772875754696817
0.03127306637586688
-0.03596487770594801
0.06567207175357592
0.05105997979430082
-0.026744459031589826
0.008208975041053909
0.0015665784667342815
0.028793863509364786
-0.009858583995515452
-0.024741907607156957
-0.019249242979914895
-0.008249586222492052
-0.020425420206801898
-0.0063086763463901544
0.0361577999412446
0.01431171982773317
0.023933392776196993
-0.021447419932280533
-0.011369120807249807
0.02498601920585372
-0.03533262561877076
0.005081530714986538
-0.0017815281644006323
-0.02329021133481689
0.0004397254104563191
0.0007516581168988927
0.011970944839563935
-0.008855752900438359
0.023163207095779948
0.029484686216562927
-0.0448868801813518
0.005081910995536929
0.03039023782332761
0.03528783966807574
-0.016930414161690742
-0.009237030441374623
-0.024404734418465156
0.021207194425062678
0.044567516836718044
-0.0016561481484258518
0.013693635538486904
0.012197923511353027
-0.0671094817232758
-0.030085971574817058
-0.0008111988920791846
-0.01865207954399129
0.014287471024843
-0.04024634671133967
0.0033543713085776956
0.06336471928009076
-0.021995235103763677
0.0567438705882148
0.049134782863640335
0.01642675692287335
0.01764591209119803
-0.026880469030683096
-0.01722643716185056
-0.000472948893893309
-0.018600326441999913
-0.10526262642783579
-0.05112033656077165
-0.013060879887029168
-0.02812282090822505
0.028449509769377872
0.030765068107634734
0.023161664248547487
-0.010814849816776932
0.02286605878842829
0.04958996152301928
-0.016543763142896337
0.017859725483141603
-0.01666906033663448
-0.006537883911805552
-0.023609167429617675
0.015097156821064873
0.033642499809993134
0.006618454678667659
8.95775223936209e-06
0.017589000125371363
-0.005692943235858148
0.022569363236213554
0.018965826258450648
-0.04998697334900485
-0.013808318975106575
-0.014494247999966015
0.034727207926400126
-0.025477881938291445
-0.03188567936340851
-0.004326279564904274
0.04039759080861835
0.030949413349446436
-0.0011912095954962096
-0.004778692953836831
0.04472234937527791
0.03315409127945175
-0.024202831960110284
-0.029960780956894435
-0.004758889683511824
0.013296463669711468
0.026197159841401724
0.001763935080354963
-0.18343817995791414
-0.04935522294616672
0.02440437560917893
-0.01950002610430513
0.006092276193510184
0.0006028346210078764
-0.016309830819363425
0.020526135522474037
0.02609810763603639
0.04976421145438713
-0.02739503371209432
-0.009463064323173379
-0.01728319129955156
-0.06665025570879625
0.06163295045764315
-0.006141545918634699
0.007812137925847449
0.04421354146266876
0.01800755886137502
0.043698612310297855
-0.009238988571332277
-0.007294316403430119
0.008132257797204012
0.007555066350726037
0.021128577242328674
-0.029642366718307476
0.0044290521558262705
0.07260514076882194
-0.014916043449957719
0.02237997674089884
0.0331886414480282
-0.037548067427569956
-0.014266645733890991
-0.014900453853735974
-0.02360389856519522
0.008495120900345033
-0.0038583955272291563
-0.002132394378918617
-0.06369226831162493
-0.04528282135358362
0.008277936933002206
0.009061360983230427
0.01907287699702328
0.031118089718887132
0.031514919265536775
0.019613742130897463
0.0005200383178090184
-0.006164009675516074
0.018460652171735467
0.0161138288120706
-0.011305020696783998
0.024786491288108267
0.008830304427267672
-0.025541947936691928
-0.0357777985578473
-0.04244714240991019
0.05843755761950632
-0.01731702921678529
-0.025872718957737347
0.002878995968440099
-0.0027211473703389645
0.0004888895556991408
-0.017955875965211573
-0.015902344357761666
-0.022537498868277935
0.022483361314646722
-0.04299143472238943
2.9648343581251853e-05
0.014710582244274384
-0.012909632066608102
-0.008648616526949872
-0.012924125386144627
0.12349812119603173
0.04573944607896111
-0.05239356708194317
0.15433865058612653
0.05055614409064072
-0.026496674092775546
-0.003959087538210343
-0.03353573606051251
-0.014592776469847728
0.008973392020382394
-0.13300601447772667
0.008300013509048366
0.032571205908886236
-0.0036555551653249
0.03783096252429094
0.046550110936697704
0.0022427513419027425
-0.04254527146692663
0.027500867443264975
-0.009974499271227625
-0.028002759489355655
0.02311020466542585
-0.013873483522888403
-0.04114797581960066
-0.11246011576930262
-0.0979140458444236
0.01248516813230287
-0.01608067655891407
0.009710613090355546
-0.020965957954405805
-0.025890718654104063
-0.010500798260012965
0.05481863660385214
0.08071484543767607
0.05701692515430296
0.020879714059490767
0.0026276550183921823
-0.03871773599259639
-0.007230678978953165
-0.024464813351003856
-0.005799857743043646
-0.03207863297509228
0.1243389647360983
0.06266534896547142
-0.046769617287578946
-0.03128777206669937
-0.008956468062611782
0.06916389135123574
-0.0399008748305
-0.007839638562610886
-0.022877945380016744
-0.11648680230936391
0.00695968171594674
0.022917173437085554
0.00499878270207221
0.028347016309742262
