0
0.02259365191088935
-0.02719861887760496
0.013001825223626936
0.044675839284716135
-0.001257213613751449
-0.016924000946615034
-0.0061737920352438755
-0.062271083403265134
-0.01085407635762126
-0.022025012905048057
-0.03028353208237737
-0.006867380647028181
-0.002314051974830277
-0.03338957639738828
0.008830571709684078
0.05553715584226351
0.019682173663892688
-0.008455863774671968
0.0008678284025928538
0.0579281278802072
0.09354838451486878
0.03414453530489432
-0.040308602484581124
-0.057939634134211326
0.00038281708979878736
0.02457716868179816
0.0029176575344046878
-0.023607544235966383
-0.038359861469115394
0.014726026997333282
0.012737682066015596
-0.05495644955122514
-0.03339587282304067
0.0034980808528251787
0.0685353507586525
0.0066417669961142956
0.03678803228273973
0.057002816468144805
0.03752077436992998
-0.03457340098134712
-0.01195634415168453
-0.0036332553731270706
-0.044484341056130985
-0.019421644002553612
0.004663728912079606
-0.03683159170407758
-0.034010069199854956
0.028415452875843714
0.0004120998713220523
-0.03737628780983837
-0.0510320572224504
0.0368746168345974
0.01661108865838425
0.032664988299987895
0.016256851944716003
-0.0436617078308146
-0.005366377523890973
-0.02418738372861622
0.06618576382168333
-0.019721287090834705
-0.05178442265784763
0.0338569542019489
-0.01907103171218442
-0.020557626504584963
-0.08591658008819394
-0.018504783312069124
0.03526481520678325
0.020351713094558504
0.046541545841164905
0.023728578006977145
-0.014221926300203108
-0.09320832756772718
0.06149863321937956
-0.04781790251824446
0.006716050140371361
0.027246416408923214
-0.004074102073036154
0.0196121058150561
0.014603546260536409
-0.015225452668034578
-0.01821358832890573
-0.03272901673889745
-0.025465844576218068
0.16019951058811785
0.09302006532684098
-0.02260560831620163
0.011779432186699216
0.15148928020454988
-0.005369106930337855
-0.01834704599518137
0.03864605263830078
0.028639364532885136
0.03105397796812778
-0.035591821599073974
0.07240612610359987
-0.06980024496072007
-0.14299032833276437
0.02221287712976219
0.0217038955788037
0.008888309774688737
0.029377255595429495
-0.031686873854829184
-0.010307897514991799
0.012492032420492957
-0.00023307617706254586
0.0004956460226228079
-0.02928458690259364
-0.03590147121393885
-0.0207881096620227
0.05172546255626558
-0.015123380072805951
0.01317251951663663
-0.07026689556463665
-0.030844644889120743
-0.010429699435910253
-0.007295390181078687
-0.03816936576616415
-0.11027935116911351
0.038345040004435664
0.0010579803284750217
-0.0049153996104477375
-0.005352362535075435
-0.0013977282993124977
-0.0010339311027201263
-0.015489622382382327
0.007821114316848364
0.06992212191293035
0.02128204240020108
0.007380843299982023
0.021761079250818684
0.02040121228778981
-0.0012156971697587788
0.010442625680075304
0.035750532812514946
-0.05499512799983839
0.0023961217313703256
0.005295884522932023
-0.01061754637078325
0.009293137071625416
-0.024587454932977783
-0.021933703919756475
-0.01033853853826704
0.0022855222285311757
-0.028007006918594493
0.005059149115022178
-0.009940153387094032
-0.01772691818982565
0.03063157081451826
0.01311236302310689
-0.040055304765907525
0.052749294645828164
-0.07264413974066664
0.04872620237173917
0.12278059324328143
-0.12492900346668909
0.04494073277146498
0.013103567044613984
0.004431532774742122
-0.0007162623497834221
0.03704454998106591
-0.062301482845939525
-0.02357048244077565
0.006444394880183045
-0.014266896440698389
-0.022703606631873104
-0.009301869636337744
0.006619679016118268
0.043492521693654654
-0.0332570940636028
-0.019648988312094957
0.00816919917867463
-0.017280772065792656
-0.0021084362821434653
0.0243413137637981
0.010841358704091798
0.007911684824308388
0.07041306778666963
0.008610398876038197
0.08113591405079697
-0.009278702357436424
0.013285550215604678
0.02648850917613521
0.00838720093473862
0.020484997513803893
-0.011468362659712173
-0.012125684468577405
-0.0011911577350751038
-0.005394198004223899
-0.029859520136332477
0.08463015555475369
-0.03897030662015323
-0.04617095581622955
-0.07119655354441462
-0.038818217124566116
-0.004949994285474133
-0.037264727565754795
0.02517860020274224
-0.004398286108709456
0.018583801970914072
-0.001141711741637474
0.005290851861260251
0.0038701832532507027
-0.022241053723443552
0.0184911084911271
-0.019192270565351714
-0.009926769407093727
-0.020299124009473635
0.010187058667736738
0.03581541019466265
-0.0017200500385457368
0.05383871560196642
-0.026197733390999324
-0.04876889804167526
-0.02345098351679236
-0.020957341089187134
0.01188137845789249
-0.011093197091944026
-0.030121024531352805
-0.02503060534003063
-0.0017432359641233715
-0.004920783173593477
0.03222693358119288
0.04391739354542484
-0.002676966227784095
0.05525317381702801
-0.035543041946009796
0.02275867475034486
0.008489835297577335
0.02055960108044836
0.0101084011416908
0.019722871656640866
0.015816628616017205
-0.05131316825486487
0.007349302211957082
0.101802487399274
0.05154802237546318
0.017442351876627314
0.0069431140025865475
-0.000137229224792962
0.03240284240247238
-0.011349918392897234
0.002896836781297919
0.02475046612813313
-0.030435068114845372
-0.018878137361229595
-0.06885713397246858
-0.010672512480320116
-0.02174194457398665
-0.02436190866117113
-0.016923014899816083
-0.0067110636568096255
-0.02990827597538385
0.036845220420813465
-0.19158053536610134
-0.11148131568477887
0.06059039208585528
-0.04073898464750605
0.10963412418399077
0.00047467001139777927
0.027948878877482087
0.03726000414226966
-0.01130132632951342
0.011002586415312248
0.04179119789643689
-0.012549462293926164
-0.07695925436721021
0.05970217766085387
-0.010082634696171919
-0.023994378901040777
0.03190226967718028
-0.009658768271802407
0.050441832253590155
-0.011551880181196447
0.0011090685942426685
-0.029351654771731944
-0.020156715121754657
0.018614309139734678
0.03286468572098023
0.02730596846685588
0.03501147504434966
-0.009581509772712838
-0.006852614067912499
-0.047240950543461536
0.024232218478159515
-0.01701307640496726
0.020558169172095006
0.013047454648445672
-0.021284781157383546
0.004254918114545241
0.034492100879987025
0.04922047350635955
0.028582163862440987
0.012151638050637932
0.006907119560459405
-0.006854295639393526
0.011458109481682195
-0.045977771177740274
-0.003999061331619677
-0.008377000769988685
-0.01620838998311357
-0.019472094880773904
0.008469125100110478
-0.0031281098058420494
-0.033642393847544756
-0.028958198402220938
0.015219998019798434
0.04150159088629374
0.017013512993631137
0.048765841054735526
-0.049297455221825597
-0.030494140239291298
-0.008635278408987217
-0.011038697966345434
-0.026647862179760385
0.04803406659608769
-0.11525387418348115
-0.1176869467988576
0.19313836835778136
-0.002243140287565086
-0.02821702637832697
0.10118648475603925
0.010607513365089949
0.0014417913076115545
-0.03083861654636278
0.015423514661778043
-0.013519537538079851
-0.02603985177991078
-0.012914467638031573
0.006020828702219119
-0.00025448116123637644
0.003051373692406158
0.05567920521287913
-0.023567841639208335
0.0010637323121886063
0.0008949967820735662
-0.009450542847993713
0.00693487004409471
-0.11006793083951114
-0.14863875416467345
-0.015205706976357763
0.03862852174339324
-0.031092264846406526
0.002097276100248135
0.0187195284469112
0.05128175610546899
0.009337571287845714
-0.014147516853226882
-1.4870038706691928e-05
-0.03386081464944852
0.01428359341829789
-0.0055648898188583595
-0.002464212430134358
-0.040154982204702684
0.0794792885095885
0.09649107179787364
-0.010177138740563413
0.009221213737363178
0.10809640901251044
0.07241440291097877
-0.044136792330409
0.03570000993006074
-0.012727494695875394
0.007905390702825577
-0.020156167039700686
0.06547814382727261
0.017923069511362716
-0.02104521853119218
0.012852687389472685
-0.015176421476825816
0.026449592343536322
0.08727718043349511
-0.010357923394964223
-0.14698050280556071
-0.016632875160907765
0.01355805414560122
-0.04959670209861221
-0.05581045921354212
0.012896846750590432
-0.020150400195448958
0.017782051878054126
0.0006615256417025242
0.06053399584283002
0.03192891536479672
8.438282515532511e-05
-0.05682357097121932
0.02347738572852633
0.061379378779650225
0.061300501302366035
0.027524734601194315
-0.009913829280190606
0.059105862151050056
-0.031407467262527265
-0.12628658464883585
0.021870638794409283
-0.037374277941312053
-0.042871248047455596
-0.011595294268829593
-0.11855728279025968
0.029724929269374374
-0.08569316014677633
-0.05676487700239004
0.003594904169745712
0.032175387057752615
0.012484402225503484
0.062343226527793005
0.009979795505578768
-0.08812063050324924
0.02827126532185333
0.019635531128248732
-0.02009783012674409
0.0012041090151668039
0.04491464089078894
0.05623389047936326
-0.07013910112267839
-0.032475099857891924
0.05911492558030702
-0.061814810890649816
-0.037233546279166425
-0.011889431625147804
0.027089660048958585
0.03076241787806312
-0.04467592250602915
0.15267610975150514
0.017052729122700793
0.0005667331958688133
0.0419854166124044
0.021854622025261693
0.02459522474951412
0.026283425062623846
-0.014029445451842776
-0.038176465470920594
0.0011314321028458023
0.027113766748912766
-0.004174007014673931
-0.007652291931189818
0.03534129968494825
0.008029074185094858
0.0012434745054478744
-0.027069197405668932
0.006311900014111984
0.05938471563363569
-0.0029906850964966326
-0.029508657311761076
0.01564485729567695
-0.08321181717968879
-0.029942926081884796
-0.14377620172014968
-0.05508507153487696
-0.01191723890664407
0.04494661490994531
-0.03581830810339453
-0.06132117438421703
0.012760284589405261
0.029457159527561335
0.00946598499676932
-0.0008771342571238534
0.017860645486203787
0.05408587063245444
-0.004140208461032275
0.14272206758453265
0.05678085097940061
-0.06423957575966131
0.0180402059700447
-0.04258614239803415
-0.11533033622678195
0.0363103805261614
0.04505614729915796
-0.011094858007544638
0.0102477265345282
-0.012628755685703121
0.007942947477567571
0.005408964915109859
0.0341287874439628
0.03335459710781469
0.0628519687335241
-0.008631795808560326
0.042660585388725566
-0.04268198055791622
-0.0446935680003011
-0.027721438039913098
-0.06290560748870372
0.0033862816265652247
0.09169687943758902
0.03543586305517114
0.010664122130012303
-0.003765143302070156
-0.02729742380802616
0.027729209802366216
0.04447399492735553
-0.026998494345054462
-0.016028408781042246
0.0076403995666899606
0.03967036389283419
0.0304694719089547
0.025072279818197762
-0.03596530487271725
-0.045480209902311226
-0.016322684247855195
0.015114910977887103
-0.0071404993056227075
-0.05595311079949586
-0.005348817433914688
0.017074286283778422
0.0490037699450977
-0.003748492959409247
-0.04278682949722708
-0.03782923450393887
-0.02803959387573453
-0.0026460919482668398
0.054061008065237746
-0.1364320303898609
-0.14424695754426997
0.030487343262757816
0.006670116997548604
0.03085407065309886
0.013493526487552332
-0.018445571802259406
-0.024883845626005995
0.01470719508078466
0.02017122815645808
0.03718924365681116
-0.0019181020442792427
0.004577785459372238
0.0070714787218344915
-0.0014943393080815055
0.02064591564093109
0.006157805277623992
0.0018961610313144098
0.016822637690055143
-0.03216551458517225
0.051744040257952935
-0.012494173252589082
-0.0026670104662202708
0.022798320393557416
-0.011884848266357105
-0.04005041049520182
0.04863404996444919
0.0642034555720122
0.001403057478207214
0.014538630268653912
-0.028108743524299446
-0.031295410868713354
-0.006837718233695334
0.03339682979874117
0.03913418753360624
0.024100500216338663
0.0018168400454895949
-0.05163264865620458
0.003687520839761524
-0.04394002589633618
0.0025880270772196245
0.11864974008416583
0.014709891552805688
-0.09087737962474358
-0.027564827167994337
-0.046556810628771234
0.0176340771471529
-0.02906045541120227
0.026394072791386544
-0.000937457775914479
-0.033643581026549914
-0.013231873437208379
0.13566575931696653
0.06897573796943636
-0.046254270883877416
0.016267273390180324
-0.0657370779840247
0.03054984990191819
0.006115343411992777
-0.03845405278122057
-0.02405905811641396
-0.01282813055827519
0.0069145062727452
0.04705539848329191
0.041898983549975434
0.03894775977697933
-0.015390070341895289
-0.007126679914794149
-0.046721236724501757
-0.024225683593686553
-0.02281933813966671
-0.02509699489105902
-0.0035631133005415766
-0.05110697472194906
-0.03427604293635687
0.07564790911059115
-0.002724324567474815
-0.004122822707558568
-0.03460531382162755
-0.035202865586288455
0.11197556323701124
0.1074112030176608
-0.07015698708294307
-0.016257130409078713
-0.03123623951942326
0.015493248213841022
-0.02914412206685297
-0.03669768346085783
-0.007441846688199289
0.03178426167970403
-0.00967777911721359
0.013806284104030155
0.04164662349609397
-0.02828631078403097
0.04914615317203823
0.04812671314989398
0.02655032829000827
-0.019219564099203078
0.0007124836859520454
-0.05594500987010275
-0.030761564230017958
-0.03540372083240509
-0.03762062299985109
0.07039320074886639
0.14213704358682405
-0.11118313686878165
0.0019015168104210014
0.0314349582143539
0.018660159548460894
0.006216859492199249
-0.02793664524409835
-0.020383856852779093
-0.024260223018591928
0.024579884621211634
-0.018522406190764052
-0.04647153919397375
0.01272126117209173
0.0613973733315523
0.00038532320995698433
-0.06621372065597489
-0.08041103068839396
-0.01501577943900309
0.021741000861184582
0.13101885333453941
-0.003484283124732085
-0.01779433561447566
-0.004295041469244554
-0.021358164347906296
-0.03318431949023703
0.020937896167882174
-0.05939570926940896
0.0015086596723476535
0.011163383374650667
0.023443315108005444
0.044269665600689644
-0.002389382989540552
-0.03349589947350558
-0.0037341899354915446
0.007125163527496543
0.028612384811980442
-0.004002067084531579
0.009910745450191756
-0.010587582895254376
0.014825543405108976
-0.00419179937062128
0.017121729157225967
-0.012950044389210649
-0.044532803992034
-0.02016072991795502
0.013843551089908437
-0.016391498664276378
-0.008529099598476628
0.020721472398756203
-0.026703141522767638
0.012916510221759782
0.030411173455213904
0.005744047611971283
0.01939509139401361
0.0017199125900267274
-0.010211945938171808
0.014713034045574471
0.0033541377966448314
-0.009197443329450853
0.00963855114374053
-0.016631466147674776
-0.011961619501985068
0.048302099514618585
-0.01313646732290415
0.06280127217589238
0.03288617150116375
-0.02209370902473118
-0.0028797770142031712
0.0005874048333674161
-0.008512506615553134
-0.009678679629761069
0.0023835350492439995
0.0027418807876218552
-0.003451169905010766
0.042760039383565984
0.021210580757775047
-0.007833109084320049
0.013387695762939137
0.015734086333371745
0.040904299132756616
0.0015001748050118395
0.02617543772002262
-0.1780047647894433
-0.07166361290941481
0.02445488761298457
-0.02112167515848315
0.04389991822643388
-0.0416663025985114
0.016093406899392194
-0.0027174558036285154
-0.047990949990854494
-0.005992184151199857
0.010570894991723093
-0.018522518894037443
0.022181010356204466
-0.009345684382762148
-0.00031836556285930916
0.034338493996152436
0.026914867529272628
-0.0021869428356631596
-0.046219436729456505
-0.0044145480996515725
0.011001462164860686
0.0040639116985975365
0.0033894001953307996
-0.03812977052517771
0.03508791476759813
0.007456324831638929
-0.03263958473427782
-0.006296380929584716
0.016081904644283006
0.011913878078949152
-0.027125147244954177
-0.014414963455156724
-0.0035612670749347597
0.008783087435799251
-0.013848661565870805
0.00045758680895645017
0.02964513140945439
-0.006106327129036513
0.016698948805112936
-0.05173749694987602
-0.004390604550952045
0.027809404855424248
-0.0008323420151737336
0.00608323220731136
-0.0001616592627667567
0.01700255508693596
0.025081453774237063
-0.022203460875994247
-0.03196310880633874
-0.005264808806295964
0.01368844218863204
0.01155509935504085
0.059907761773099054
-0.012978988082443986
-0.011013198467066684
-0.04270735613507645
-0.02510250581639273
-0.03166281475132841
0.04569760206993154
0.015609987892028923
-0.022146787517149633
0.019525375472070856
-0.015168685042535287
-0.03836375316285483
0.031619199703337195
-0.022317873600039832
-0.02156806268045448
0.006490075284970631
-0.02777901904374582
-0.014285833270460332
0.1316968786980674
0.23276510238290193
-0.023229461114171304
0.025094909721679534
-0.03031925520742191
-0.009165353304094232
0.0007478010254855421
0.006695528252796513
-0.004430163649910195
0.011799938541954139
-0.023301074209339835
0.030856114937418678
0.027691212665257925
-0.002168780754268954
-0.08623411194265311
-0.039197485611293305
-0.01461844918940933
0.0025584262096779073
0.02258173579316971
0.01712514743936252
-0.0363204963268437
0.0006612794189544773
0.03538295201012224
-0.009980163517136301
0.02455768040667164
-0.018009673404840113
0.008554487506681545
0.008935216395177898
0.006238686698695635
-0.11731885104370728
-0.02692997749104669
-0.01938545912576984
0.017482761859322397
0.10894943215328849
0.018129549341023204
0.00330136683190179
0.005231868274441124
0.024742811679277905
0.0449466804774261
0.016215833271676063
-0.17504943567824022
-0.034740915861276346
-0.03704395108781413
-0.04157838034394153
0.015222167236897044
-0.02649594427465888
-0.08956750849583509
-0.007380735117377066
0.01248504958906685
0.06059852890381303
0.01204116077166082
-0.021526282144677743
0.003433381750812825
0.022760190009703935
0.008830917995039638
-0.013191765729076413
-0.01940584790489576
0.07103211752065242
0.02228864328322056
-0.03385983488758778
0.002489576370010482
0.06448594448831922
0.03715083665486219
0.013798836756840344
0.05915408656746152
0.014245720295636073
0.0009993619707511676
0.024608881948050183
-0.16685145354295464
-0.05123452084967499
0.0301943080812432
-0.0025926866004654324
-0.0005082356022436125
0.001796250577514297
0.024142476244485178
0.023004565374928038
-0.031376948231774025
0.0093898528340857
0.07541662332099308
-0.06426301178174003
-0.026332617791208636
-0.021871556755684703
-0.032800360124313005
-0.009892838487180752
0.011667758927873959
0.004448344537789438
0.06072826438878415
0.05182725936699773
-0.02640993846200125
0.03668524555237491
-0.008836042850876236
-0.006618254755126061
0.04184411042102334
0.001061065952816281
-0.05518829811058668
-0.008157272451343026
-0.026421082611317266
0.004002137901154274
0.014430449659757679
-0.0040999286769506
-0.0028107611520347573
-0.027689338396917926
-0.0017921328477456453
-0.02813291220292864
-0.08102835875231673
-0.012755713345232128
-0.012639900558465436
-0.008886692282599704
-0.025008337723132077
0.03419690556244663
0.06012652856822673
-0.04538270354614345
0.011229837740410106
-0.04430492582110361
0.06560816026908352
0.17565272091677034
0.008425123759698786
0.01066740551479235
-0.023670539153736903
-0.030976257064151084
-0.04008840756687696
0.04209544730031342
0.15177332252293319
0.071639613347079
-0.13269017593460228
-0.07050541901680392
-0.017272563505023486
0.009206939991647928
-0.0013101509652559832
0.03663735015408335
-0.009454471376327846
-0.005836254326791335
-0.002032815854582012
-0.00177598512778763
-0.032801678331916745
-0.014852162375372353
0.005910629675272438
0.028694760385767962
0.0322859561313652
0.12148534840193462
-0.025047169731172592
-0.018350554418954727
0.052622827062299295
-0.01992527607926803
-0.06522766486025597
-0.09120457391600385
-0.051719716051973175
-0.0008571543634168819
0.003953451220019475
0.021663061765206357
0.021432710224680036
0.021846086072747108
-0.017411341420034608
-0.023824214100477727
-0.0072047698482642876
0.020867568520892187
0.017788455734910346
0.007138364763639701
0.025539017962403956
-0.02863175406091067
-0.014498099808691737
0.032563367307140295
-0.012401673918159497
0.02484425995566984
-0.002145059223858555
-0.042414183361054465
0.014410749745089385
-0.02496648675975846
-0.04881787813470708
-0.0073382056337355705
-0.017910862021137133
0.019894042697423616
0.007337295445211246
-0.01777023532635562
0.032852409983728736
0.0018085863510796025
-0.034282873806562364
0.03962245652684924
0.03212629677385626
-0.024281061666533155
-0.024794798249086546
-0.013449303162476202
-0.06177247800650759
0.002288637027870594
0.014966999743421186
0.030787419284899205
3.5304511898780566e-05
0.031807305500612615
0.025873074849356636
0.08296223498853411
0.05919510440991917
-0.09811334053979709
-0.04681546634460732
0.004134321813066177
0.07822177857835172
-0.00015489711429509103
-0.017436605710525764
-0.014037240558687178
0.013865442391076156
0.004948748862242752
-0.005356546958331875
0.02189000174260154
0.01962158733381671
-0.04169298039727483
-0.15137272474674396
-0.0009955358900575033
-0.007744071628940227
-0.0004584605267658856
0.002783194231744587
-0.03640330606445651
-0.05980262806745474
0.0029428128992638673
0.05440931891306869
0.09213988298386429
0.010709485610111475
0.04088493681122485
-0.00027492654552817026
-0.004155551263949265
-0.01847974135921244
-0.0065687536522655975
-0.01782186674146094
0.06004514618994001
0.00564950654362503
-0.03532081896999165
-0.012231897971696078
0.026408669234716596
0.012522524821071744
0.00691221494053512
-0.07929979375203722
-0.025424036315347818
0.010316579867754616
0.024851625077012725
-0.030940960755965783
-0.060118990331015226
-0.03372842970836903
-0.056369644205918036
0.047445476831659054
0.18535414737692843
0.05068222715013366
-0.05733527587775439
-0.049252413426599896
0.020094699352088276
0.015752670267848292
-0.0024854997494264505
-0.024312683853450895
-0.012724012363493693
-0.0007456324634110164
0.19729808445463745
-0.05675351817068267
-0.08401812183814938
-0.004296699176898647
0.029025690601933867
-0.005589328495578192
0.08671101555708313
0.07659689995274843
-0.0012061847183222015
-0.01650796922153474
0.016418301442311194
0.1124331401826292
0.021023942755686708
-0.007271192498392164
-0.014710557804460931
0.04481317261453498
0.024772935011579397
-0.10977055953669981
-0.06467677881366259
-0.0792706453002678
0.0015354997568704995
-0.0565823302720854
-0.11146556118426632
0.09300757390412108
0.056766187786351265
-0.03614512555830308
-0.03999902155156929
-0.1247674946101271
0.006582027251144879
0.025160070238181998
0.001333814763117995
-0.03958063982174932
-0.02405107238617419
0.005724196569134267
0.019817518412814615
-0.009166979552349845
-0.032525295519946755
0.008836122191858994
-0.0012264816472009035
0.042760454132922725
0.07153325827889842
-0.021014050342511498
-0.03424893879131159
0.04877239312081959
-0.04626961189000412
-0.024349759175293213
0.0400014885679711
0.002267606916923238
0.1751204259122599
0.005834596962931473
-0.027860137388703878
0.017346976580519757
-0.03358085823349558
0.005019827247626035
-0.007476752344840395
-0.06132029094178029
-0.0034539532568088538
-0.04907833465502094
0.013011478987563494
0.015139945209428142
0.0192062203621027
-0.031012733218006062
0.00290099827103626
-0.001394461364813153
0.006687205736307391
-0.03533181837208811
-0.014532295459983295
0.0036412994270911825
0.0008783753322731984
-0.03378490076288157
-0.0025989466456872363
0.043129119518622284
-0.005980745958948081
-0.0772869076837
-0.04963651466746225
-0.026719616365150772
-0.022699302789695196
0.01934272877579069
0.0410503991241795
-0.034320653072327276
-0.025501178801177127
-0.06453553894627034
0.08888227130535697
0.10593330787092099
-0.050620409688147676
0.006536886515450595
0.017373607448067832
0.1166299473961677
0.2057213173995912
0.06815822857169328
-0.012315371645777852
-0.03285281806864744
-0.005120115286908295
0.005493342532491665
-0.04657623013701106
-0.015434786002175424
0.005986870732430219
-0.005784791472125513
-0.003304893963062237
0.03313755365559234
-0.02480667264042049
-0.023553574698980617
-0.022807841013116475
0.02590983464480725
0.03123195254400963
-0.030093027880447147
0.044058937367459444
-0.050389800656206456
-0.045491353671832956
-0.000733424586085618
-0.006008003156084515
-0.006907575600413414
0.027756122629682384
0.02806119377167531
0.014210391726913891
-0.00916627871411972
-0.01974706032155665
-0.020381577176067926
-0.014359356456539196
-0.024514544545114363
-0.03296040448578977
-0.015109142869679681
-0.01638783151627662
-0.022176472840270984
0.029771339904928164
0.04120676497552165
0.01013982549025753
0.0041373921814473105
-0.02435983563615271
-0.06176114952586914
-0.01968417504472313
-0.017949983829821846
-0.04299154062500771
0.09495495965747312
0.03202190942659187
-0.046982392321173135
-0.02889847064846913
-0.01108686200864793
0.03599025368361495
0.005486177543833071
-0.018152298704578067
0.09930503761170553
0.07002821274024161
-0.08584318209568273
-0.03378082427051024
-0.02063197521211341
-0.014940727495083213
-0.01736262053554245
0.023941120892956875
0.013024866553212543
0.01827692933500876
0.01957260273854476
0.01879142543458625
-0.021024613928036503
0.006077693923729678
-0.08773205333830376
-0.0914761432206454
-0.02754046296326459
-0.002721956253449531
0.023693729199190168
0.22090378293343357
0.027454218663595976
0.0016492797739687268
-0.018899411315704488
-0.018322152458585657
-0.0033038218636713794
-0.029570614518101068
-0.012740651869091587
-0.014571286049243503
-0.056800076274339126
0.018245461130205254
0.0191959771986074
0.004214158372243376
0.017174414391418324
-0.008586906668071468
-0.05433179732175121
-0.04361322283522565
-0.027375290945159027
0.007578820275362523
0.01191198137519638
0.008157576369253808
-0.011129204733412279
-0.037354701398354756
0.0003517351758612209
0.058241902164102584
0.14799876001962173
0.013195304227136896
0.002823797466299456
0.013094462129577376
-0.03048619203802984
0.023527605349986665
-0.023058515295215597
-0.00689222104462254
0.007911459131085565
0.038117926150949576
-0.014518927908990483
-0.03968610446854391
-0.019794809951681175
-0.00920398951739965
-0.033490807020315115
0.012157867448681192
-0.008824288716010532
0.10676502426859348
-0.06272721769521258
-0.013701995294233889
-0.028128220245516866
0.08201023054592803
0.12607363386410292
-0.05593435078369361
-0.0412780889911671
0.005347720105186625
0.020649599704983052
-0.020508467294414152
0.006020250551011792
-0.04475874838099093
-0.033179468574163325
0.010946113401425286
0.005304900040525613
0.0264881798254037
-0.039195353428670164
-0.047778235205562944
-0.008472967977169772
-0.03556433186801735
-0.010686319795747507
-0.020187742286618297
-0.006638187686101327
0.17947051677812392
0.01828759587808058
-0.027031403034880427
0.03506696636008035
-0.01945756504471702
0.006769761356629463
0.03305668324218879
-0.01577405757910225
0.006300529319465672
-0.03811117531425772
-0.10274945505536186
-0.0432557987676304
-0.03339962188441896
0.02284395736627009
0.001600121695064872
0.039281524545968526
0.012369162930521963
0.0013607541779325925
-0.029025479508823147
-0.031890798305654174
0.02205456763666209
-0.005235545801705054
-0.009911771310304315
0.014010094614023836
0.0252243019377014
-0.00639732775131979
0.02179419827666207
0.01750564389914874
0.06250561548232705
0.03369190281934315
0.03778727622810237
-0.02640630292695608
0.010500855721945633
-0.026099814347038522
0.04986599044693346
0.04319758440089387
-0.022579400636859738
-0.050604278305518724
-0.011057030266221068
0.07730715219295041
-0.012843937622684596
-0.0008825522564669754
-0.0340648745837431
-0.01035701075578025
-0.011403638903447031
0.02217734774605008
0.01577571963972363
0.022603858862025754
-0.01913724889638867
-0.022924644354301072
0.013136405855232881
0.010347400425528012
0.006817823204235794
-0.0743977651722253
-0.013319799681959715
0.011671934365892943
-0.022099228910328856
-0.025227261355562778
-0.06342962406742168
-0.035824419059377145
0.020224999739124682
-0.05491059453238573
-0.027623928119068695
0.049399564907836646
0.018341762772154113
0.03885806011357665
0.016597688852532023
0.0011458436205293394
0.026898820665595624
0.025407445408026908
-0.03631301382880566
0.008303082970660437
-0.002088878657156663
-0.003995654724370392
-0.10712442553098685
-0.012935397843290319
0.0017888567279605537
-0.03381688265866463
-0.028665507790382714
-0.047433227935790655
-0.0013850525752797218
0.0384734626152311
0.02735822955811466
0.01390519693760146
0.0102572785596525
-0.04721464027101962
-0.04154708746365418
-0.0300899015790025
0.020078072671700534
-0.03080254035706587
0.08295829590235533
-0.03350013908772011
0.04522848511040808
0.08801783958475629
-0.007382002711550209
-0.007383857275128592
-0.005153497967283187
-0.015371310576920299
-0.044453820378425275
0.12350283750712136
0.16742514618504445
-0.006609637086456394
0.009656876732990875
0.01020899357115336
0.04846961936861983
0.035122241704173475
0.015620551260913542
-0.02036442703410983
-0.0270505087009941
0.03722570177777763
0.003026032468946894
-0.02954702713544374
-0.02094805323747579
-0.04554602262268865
-0.01508156599994991
-0.017281039141511172
0.01011419457064128
0.0016982235578429368
-0.011748960705013883
-0.01700274353041577
-0.010937259610573288
-0.02609870125312727
-0.014772632927437924
-0.028378282665769722
0.0316723984223808
-0.0320863130335851
0.03151047599321677
0.03519700074407002
0.01397793852119468
0.01672931368028508
-0.06826749628456319
-0.011481780349197229
0.025018156387757336
-0.009921721308328763
0.004321134873139647
0.06837327934057608
0.0023041720618847744
0.026652603816779852
-0.06840405060151009
0.02091410501912518
0.022850846152938642
0.014403534699529817
-0.01461256927197331
-0.01156531458688774
0.019159216781104913
0.03683517614297288
-0.03955690277935733
-0.009873651423371843
-0.08562790490687786
0.005943090516596347
-0.00563110102757172
0.022209698855756257
0.00826505797411043
0.013390005199612824
-2.07991110217091e-05
0.0012725898658616259
0.010321641423094283
0.006573330438808326
-0.05592080207333032
-0.04773994278733673
-0.027420130792074445
-0.02774884950571598
-0.01885108939331369
-0.0756060399854072
-0.02186186509184048
0.011874344881511763
0.03320434997190059
0.020452419355525
0.027103727508260397
0.032842169307964145
0.005953876741875467
0.003777115206421528
0.032812194283056706
0.027960294961419906
0.008445889064745039
-0.0022402422659334423
0.04089971139370955
0.005172791476642296
0.044344253541079556
-0.15924323994173092
-0.05547056265675297
0.02212415901123612
0.027441663525604808
-0.01109998861882632
0.04451541711799038
-0.009968667145215632
-0.05882841008480511
-0.00477476648456293
-0.01889829943264541
0.04217155578512731
0.0043928479312585625
-0.029606930837665784
-0.013822046610055858
0.00889379063010801
0.046988085841612175
-0.030104333769531456
0.08393988938264954
0.09509095888537014
-0.0002614002153280044
0.03361632912965682
-0.012872474248434705
-0.011171217892519526
-0.00145094832094082
-0.02696537645652794
0.00872080140297013
0.03447473403271309
0.017916896685264302
0.029499654166395668
-0.009074820042694599
-0.16168394041877154
-0.012326675424206008
0.002705332466482156
0.009977171679866009
0.01676115688741036
-0.011859549828067431
0.0217415699121115
-0.06150072347013323
-0.022862999878347296
0.017608137382881226
0.010804390570585003
0.01758181503895407
0.025842275404292382
0.0379630830636032
-0.04351774160672742
-0.04286450695012591
0.009142716795957956
-0.03828100954127681
0.07237145251490003
-0.0164112286167725
-0.010672402870213532
-0.037051020916687175
0.02210810053113169
0.027875700798908953
-0.04004183800102187
-0.014326571195777233
0.02424780610403369
0.013723946472376474
-0.0054173082163908445
-0.01638393509616804
0.1630077498294699
0.001522532672118134
0.018189408343651944
-0.10404486035507071
-0.027594933508173103
-0.030821727078079425
0.06404853225701673
0.04961659979767035
-0.033416063910093274
0.014129815539649255
-0.01927262091751346
-0.011287593860432987
-0.03367560729627613
-0.020288241802669277
0.002316286998684999
0.0421230538277303
0.013635728552676354
0.009464681064663662
-0.016545846732711308
-0.016342175846368653
-0.006871178382628049
0.026936991684141636
