0
0.019425621198437538
0.0034081808602683867
-0.03170218565583845
0.02262339711775506
-0.006681689947043031
-0.046135751742962396
-0.04820554648394931
0.18821818385055877
-0.06546848493227458
-0.03148630972375443
0.05614724180649087
-0.04030897615867019
-0.02233270362033687
0.002908317973973057
-0.05948519427497747
0.03986735636760277
0.11537874227820387
-0.09361207012469933
-0.05440578435536697
0.03583470578428784
0.02427796382719579
-0.010818008511856466
0.01737621053639238
-0.0027180497640677363
-0.05982550183635936
-0.017601082844839668
0.017100569504934517
0.01959814090787724
0.008191499082201082
-0.026863436397952387
0.0020370837806054243
-0.00018575598342415378
0.04155853590421136
-0.022799788461383735
-0.09739220811279709
-0.011696266215701969
-0.009041980205413877
0.006283058259893415
0.02308649769157738
0.13359595470786964
0.012437862954329266
-0.0025789254941143026
-0.017012280195500582
0.025541989251696946
0.10469690355513514
-0.004007895007799843
-0.014804101636096242
0.052175429579597955
0.06348420809008423
0.019103405303576966
0.02067663823371972
-0.02827018574727132
-0.00024221398766786876
-0.07081010486731722
-0.09754174586359116
0.07920647453289242
0.0069681074491942845
-0.03645930570909051
-0.05676102866589762
0.010017727770701403
0.0023720408182331862
0.01947804959451167
-0.035137975522642584
0.004855665210555466
-0.15305195723543785
-0.13920827064351507
0.024746840578388423
-0.02373160842387986
0.044649244322696124
0.04175879140858744
0.010977813604823184
-0.016170414697959844
0.010843297790838995
-0.030777345113131398
0.02261841406043656
0.010540164051670253
0.010431953193421417
0.04347728872979796
0.01510044918490896
-0.013861781405429246
-0.0028534330313768922
0.011167183966074025
-0.039538585636169576
-0.03518674749873109
0.000321687528628374
0.009676300102317636
0.021009883147493247
-0.024208866887667078
-0.08818644969631885
0.16900672699717112
0.019866095151632564
0.016631960780053523
0.03676502098681233
0.05391613262658266
-0.006587455991252539
0.07469411779558513
-0.009944986950274109
-0.09378770691388896
0.05105895740709044
-0.023682144749919847
0.014884720335140232
0.027773464800842147
0.04107492050561209
-0.0511970242391349
-0.03625245520533673
-0.014216051928878166
0.053545658183443715
0.0028553590816686233
0.035633924393461434
0.022396279743064417
-0.03698900530482419
0.0026251129433131834
-0.04409652394541995
0.012823749504072121
0.00010713460239257801
-0.004341320745144033
-0.05247139372444914
-0.005563204778979406
-0.0020732006623400525
0.012868685546606194
-0.004972554116872014
-0.016846803200350015
-0.02218538188357927
-0.013684502910025995
0.0166635183903164
0.02404318202398838
-0.0777742757508802
0.00983265923827809
-0.08214799079805377
-0.0507911563937318
0.005922445881395741
-0.016705326395740024
0.025447795652718496
0.052427435690378624
0.013997362792862938
0.01891344580270832
0.007816093216224547
-0.011349703026114188
-0.0006712615523476219
0.05032310980873063
0.012516724359913096
-0.0197464780507454
0.0012213959940066705
0.007095510172364172
-0.016640145399073873
-0.0036843833920019078
-0.011340808113379867
0.0081508519441834
-0.07316222788449143
-0.07255489911413554
0.023124084081570333
-0.0036761801313374078
0.018308854460517707
-0.022809642688558736
0.00222382796386538
-0.006471983881790708
0.060603646631053575
0.02354557239998855
0.03138950101339078
-0.02731605920629251
0.07243365187791906
-0.06621183461709919
-0.03545725849703703
0.022616135360021435
-0.007159049359153528
0.033669056647091876
0.004473377146576293
-0.010413491782526365
0.007810597518562316
0.0014457593838578548
0.00010149546350926163
-0.059478834850852175
-0.010758988410174426
-0.008220535927825538
0.04196513854646249
0.15413537270650954
0.04626428613174945
-0.03517913308778128
-0.021576223272451893
0.015791293636153076
0.14843233706448597
0.03979999689165176
0.01775024718539904
-0.0064383854076584535
-0.035315777820912615
0.003254865902867931
-0.02017418991199447
0.05578862343044318
-0.006489756391669738
-0.00472111902091217
-0.003557197423065594
-0.013306871063324411
-0.04205593206487997
-0.0826537717404089
-0.053400982935758026
-0.04360138540857958
0.002871079924378956
0.03266522282176458
0.046286902888161806
0.002581795812892712
0.002662136783718706
-0.006900002847038297
0.0018908809340460648
0.009172742331582447
-0.03321317145823714
-0.03875175896507268
-0.019859938539125373
-0.035156223371281534
-0.03425391577350211
0.002910331170039414
-0.007177037898079649
-0.02359488356066596
0.0002640436215858208
-0.006896234225521692
0.017334168120858116
0.08039506384896453
0.01932766229823763
0.003560473792495413
-0.002286534033494301
0.010268403232226723
-0.007896559472257475
-0.014049992615040002
-0.033999971736175104
0.027101086959293284
0.01319874727000353
-0.020980508808783112
-0.00639414988509577
0.06429073599217713
0.022952617931503837
0.00834429906484096
-0.09034363522274201
-0.08703112712741978
0.06013394911066828
-0.02017634557652532
-0.018912292251565686
0.012230243350144526
-0.04164904379048349
-0.06610176517290686
-0.02150144307143922
0.05039558409825733
0.02185221859526698
-0.052566308331835496
-0.004373619547211172
-0.04381290950311316
0.02133669632771146
0.0041528993440088985
-0.0403807614900801
0.023057352449624337
0.1223645794185906
0.0370383103029055
-0.006826515853279796
-0.03331239696955068
0.022865029888368665
-0.014345738985520738
0.03100072681340988
0.02503196355612206
-0.025838406237017622
-0.009018255334670162
0.007445003260761724
0.005537598377015815
0.011538337701292423
-0.015834777906158618
0.03091151011666002
0.05296882216205236
0.004976289732129697
-0.012849191440549497
-0.009100742619236303
-0.03966925041295988
-0.03135548060734907
-0.0448313869104969
0.0666917517075508
0.016472551338072936
-0.007127638422948661
-0.007158685349595366
-0.011458885255892011
0.1787202997671731
0.09335077751892522
-0.035109513651979715
-0.05476303486007597
0.010189976225452377
-0.008478106878715091
-0.04275203456801181
-0.048260778544019514
-0.0068432746846979
1.8278783036779247e-05
0.08220099912047371
-0.007726739524665017
0.03816437663330807
-0.02872302990575314
-0.06661699317785345
-0.0413527339175178
0.0029448157355838125
-0.026953053692527727
-0.0684738216513334
0.028936205147407093
-0.009711731223435643
-0.009579682471121469
0.01697525605194437
-0.0547454000575239
0.003077358219090333
-0.0039197570413684255
-0.014361215806725393
0.014494808176082698
-0.0022821437830473903
-0.03288022898354638
-0.018703095429905416
0.03059248286808831
-0.021087109026926693
-0.008233521982916044
-0.007973538266965867
0.01556463402058661
0.02125162871319058
-0.03756916440169375
0.019399368340389616
0.07184776280232603
0.013752767254321006
0.017616105173723647
0.19251093906724048
0.05179034144276815
-0.03630725409190027
0.04715608823979071
0.008042292375965411
0.0007177819553348284
-0.006557069935734892
-0.027971475473672222
0.0245792422322074
-0.003188274370268007
0.04554049955596671
-0.016717333197205975
-0.06629534126837265
0.04365037578541689
-0.03443848114745119
0.02751818337980004
-0.013050651972926259
-0.034000876559180965
-0.01249375453294368
0.0011899518100739522
0.028528972777858617
-0.07838310959928481
0.006102044261686416
0.012997012802870796
-0.04589290231838019
-0.044783903982955134
-0.07960057823597409
-0.020748431582507262
0.0029064222976232577
-0.006386705488181234
-0.02650303260908398
0.004615634435717425
-0.016636029933536634
-0.01380316789631143
-0.004513479555641133
0.02586302947920462
-0.015453028851035977
-0.005625447808288661
-0.0008699261333931583
-0.011741836338229523
0.0015064820221064165
0.03373729330999926
0.032063961278468216
0.0121348164794692
-0.020715468024462433
-0.03170931609328775
-0.020094162881240437
-0.017691385391562633
0.009663989719140642
-0.09795622681740497
-0.038386709455947216
0.08111218101096848
0.038763866113782054
0.004760981669213674
-0.057739249492805914
0.02974042485048833
-0.007653151993416763
-0.01554628542786275
0.0029246519681832514
0.07761770542025223
0.0381506692661924
-0.01795071372183812
-0.0192469069002174
0.01823629926568398
0.020124268261040905
0.0018955365296123234
0.03398788674327264
0.0247254350096341
0.13664599798812715
0.003302794435477508
-0.0390056802769972
0.05033710251042138
-0.0016015549327358174
-0.03027753487468358
-0.03986869434777434
0.01610562379059942
0.02989255227922163
0.0032772716674875366
0.015448983309030932
0.008259631816796526
0.004487659505828417
0.01253502206519967
-0.042414857512898425
-0.000770613055475592
-0.020113458458697248
0.002848828394462026
0.02302887703060462
-0.032693194671502876
-0.016054626936995598
0.00015389076718736017
-0.05499767028172121
-0.004951835390573056
-0.011719402481155836
-0.00899789387701914
0.03603070898256182
0.0020811231753631583
0.03947680749703175
0.036351814847144864
-0.01469770126909983
0.0003748271080649194
-0.038149448757532595
-0.006674633178909317
0.02438825651522389
0.03794367007352742
0.008590621417213035
-0.04428327683705089
-0.008550871433079484
-0.045803007834348
-0.02484149594364096
0.016644612602337416
0.004780459951220245
-0.036698755249999826
0.00837390035335379
0.060238768579580194
-0.08841090612658838
-0.014826665648908435
-0.011052451244356335
-0.010503898071252803
0.04563208021203514
0.0028297495861325664
-0.030929164777863234
-0.00874165879099796
-0.008581114688081943
0.00757603853716937
-0.03112247355866002
-0.010305085942566027
0.04538477752242963
0.0053363024361136446
-0.026094496129508746
0.06489586979345391
0.031027178427882447
0.018175747395802584
0.026670632341009533
0.011876683779014432
0.050521660790024826
0.01133648880002881
-0.01516735332350486
0.007296125184546683
-0.022260509767435762
-0.003286021257334175
-0.019579501498494287
-0.020103318059879277
0.015598195616509844
-0.0021190041260325783
0.013362340079697724
0.018996858172253973
0.008231838117785379
0.009206947773279189
0.0006749894953019193
-0.08663873237185904
-0.006853267106748897
-0.024413862862571002
-0.03899839809075413
0.001608872550129643
-0.023010876048464874
-0.006248467525579739
-0.024029292534475336
-0.020826606011491475
0.0044548449984308115
-0.04912894157455662
-0.0009783952736354005
-0.024136327131003357
0.06882977917718025
0.10576218454490205
-0.022180933804918358
-0.020809665142893542
-0.0396737708381822
-0.021972166094246525
0.04796910340332183
-0.002533291900257107
-0.034483892507129986
-0.010069407331768618
-0.07489648360843328
-0.021330368957205227
-0.026730208231651217
-0.01287006126962738
-0.005551189945271941
0.012153463041277287
-0.04650810149161109
0.11017746403274148
0.0851886685720762
0.058186800395396844
-0.010700311675014415
0.02897923824482942
0.04485419447705465
0.029770907956327648
-0.0019105848014476458
-0.014665522560690218
0.003297504777249787
-0.004392917215289196
0.028528547785246213
-0.025115191151393053
0.171240638380575
0.03718838860452154
-0.10728596258987362
0.03348134091560345
-0.04468207016474374
0.025127569516664658
-0.010447458847322346
-0.017800385461510967
-0.0629118723880433
0.07804963662673371
0.009837113194661887
0.017172930265087382
-0.001673604391738221
-0.042309063920396836
0.007206947272676962
0.018923889870004155
-0.025457101051637676
0.012257016096471379
0.017517776201645983
-0.02098172062264041
-0.01681444051755229
-0.03972175166533505
-0.03466427236849164
0.03352234484015275
0.016929862203515767
-0.021271185950408774
-0.21792784935340587
-0.08905842937653122
0.022502137649108706
-0.021798060560674702
0.018496032909975736
0.044908559808163356
0.025704041857868072
0.034539912484046885
0.049973611503357517
0.04092890918309573
0.030528367594412433
-0.009603815678307015
-0.0020014377522562144
-0.035827156748015086
0.008119152121936552
0.07545282103727029
-0.02761293438539581
0.003981609963184941
0.011390221166397587
0.012726512064387213
-0.05068612728828904
0.014649684485838846
0.10895581979243624
-0.04127574561540715
-0.01786579743135502
-0.01152336727722953
0.04796975594903022
-0.04074313016321908
-0.008063285113524148
-0.010673144216856235
0.04379697666480105
-0.05572306896497044
-0.002170880187359251
-0.013932476004741474
-0.10413921073248339
0.012097882548094945
0.008774578205351163
0.018827423978026503
-0.042481759168596075
0.018179524649772003
-0.02634257316624799
0.03477376526652857
-0.01372696898726878
-0.008962759765065552
0.06802458619259388
0.014052853527457212
-0.031437446574997925
0.023273576564575196
0.013620007955714815
0.001078567437146117
0.02433395140975851
0.007144377244588517
0.001653618538209643
-0.00392357087922426
0.012707022929801894
0.04935915783845243
0.03592731323521374
0.03420112198298207
-0.027471073384083184
-0.029982205404513882
-0.005026091595352706
-0.017260712827534663
-0.08575722737333123
-0.01376419914684337
0.0076240607055532116
0.06273543677305318
-0.00021125064348074225
0.00930254904468121
-0.008393982036423898
-0.06761642200850237
-0.0018610187907608612
-0.002454145239329206
0.004688026099429128
-0.018175905998391573
-0.059253624652564715
-0.007915488475878835
0.016334486784114196
-0.0050669510846182465
-0.01809606285529318
-0.026673207579846207
-0.06904628069663865
0.03495473529231801
0.04349277098729819
0.006650896582662386
0.00473932341397895
0.023328655755507154
0.052740322056742936
0.03031317354480058
0.018203966339668004
0.003772556488585722
0.012450310660851881
-0.003497589953628694
0.06956817068273555
0.03183976444332452
-0.0011238169879900564
-0.042269412375441205
-0.0019433088856930243
-0.02674124370341484
-0.005094847273461152
-0.014220025858696642
-0.07466802075704204
0.015665215639926764
-0.0006952130823400135
-0.021035879419698072
-0.00975395959722446
0.015846960846719254
-0.010363965842801678
0.07879889540889137
0.016099358500810398
-0.02783655463970138
-0.014048623744236897
0.025114636023850796
-0.019012549335146376
-0.017357440037724044
0.023198383977947833
0.04562292425375532
0.022640262892914095
0.003913721273658807
0.07145334815903395
-0.018821758373474738
-0.055949435671821125
-0.015179379281309701
0.0022408784532067243
-0.05807624858180192
-0.05085663325874049
-0.0018348314231869424
-0.01819611049579476
0.013739006934619144
0.025775983527925136
-0.07588259915477444
-0.10894534325150358
-0.017941768702555493
-0.04727089611778124
0.02798845601869726
-0.015084550835984806
0.023126214534140273
0.04468188291323517
0.14790825596920668
0.010936481848634239
0.009288493873462618
0.004069481870338125
0.03118178746952837
-0.028493142725720365
0.1268824722551707
0.04844734356714783
0.0011664013457783685
0.008477056331636493
-0.008064847043922036
0.004514530383752588
0.0193076855717244
0.02656460251474501
0.006279917674323095
-0.08321668280393402
-0.14080801682178584
0.014492424715643956
-0.060467317210823095
0.009435354447054945
-0.013899650307080758
-0.010737324963665588
-0.0039039503582524795
0.0123274766092072
-0.013477044254360387
0.01322936866866655
0.06871891129840958
0.0005624199337341191
0.022790187772239026
-0.0196099099257596
0.02068554266066244
0.07021049456163346
-0.027648598373901608
0.010985840838909215
0.07086391683433962
-0.005402963140319513
-0.02741305391397767
-0.004102283868685283
0.029982844325526767
0.003608860703768414
-0.02107842646878849
-0.03316552444168396
-0.04394586922541517
-0.13842281355323277
0.07269130829486503
-0.002515640624713425
-0.049304640699274586
0.0030789727470267097
0.01654709661313295
0.009126928069612641
-0.05320552132448786
-0.018221447616999144
-0.002875203120106896
-0.032619952309808825
-0.011766407720287659
-0.02138467941356569
-0.014636625157837035
0.014394312896829102
0.048966417634193515
-0.0044152573115693065
-0.05339422793297588
0.050748767747935776
0.007360941264328404
-0.026755926197309893
0.1819674181821567
0.0523087022038503
-0.03099161287343257
0.18821486683749183
-0.025203832319770733
-0.19602990929871403
0.01083445980133545
0.048620388774405277
-0.010902836517470399
-0.044698867884590654
0.010930423002507813
0.006245359502379467
-0.023124563160078875
0.006043870529112721
0.0092536138214954
-0.014234721534467153
-0.002822710319365036
-0.004201962086357434
0.002883416667756152
-0.07935860117471341
-0.04123018031385796
-0.1014260062090808
0.10330862298648673
0.06871324404018489
-0.01172241666716788
-0.030955751115932472
0.041411229901531746
0.019232255257859102
-0.03771910084408981
0.01580492888193307
-0.003116492606127809
0.07149726229112742
0.06017576103621308
-0.010354162461002674
0.04432636484002083
0.0029215748335039765
-0.014435199144519476
-0.021694295699431664
-0.02603893821382261
-0.0178361661162729
-0.027111028396060777
-0.008812316930763828
0.015071198836855723
0.023245001355880784
-0.011363005902566035
-0.0015958400982107842
0.060803031334214934
0.010047125769223791
-0.01893693659738069
0.008367416727112723
-0.003999971209475976
-0.012168502813554116
-0.002036372290387532
-0.025466273192534868
-0.0022846729611707066
-0.02312306036792571
-0.003194347145926726
-0.15980967667388352
-0.016232837547835104
0.0020665864465673612
0.003192199100680757
-0.01780689645115913
0.07665625379882234
0.04532340507690818
-0.08710769261207028
-0.058629102512083545
0.05499308663330541
0.07957223886065869
0.016180035987281315
0.011141861373074418
0.010563518512561633
-0.014935897356182764
-0.011549803089782444
0.005112629798790986
-0.006577505577770416
-0.013272965571126288
0.042417366423818284
-0.00374535729873281
0.006566505195678285
0.0056318942564143075
-0.016619980015182115
0.0006951914400665181
0.016754305259941385
-0.000693503805228533
0.035007050483076896
-0.0037022813959428323
0.007163481285579334
0.025909675051332612
0.027247247438435252
0.008522770945936719
-0.028508396032839823
-0.0016801548990220615
-0.006167182088398291
-0.029683442157448958
0.0031755397808765577
-0.0143303611075818
0.00875576453374923
0.0117723783554222
-0.0014499058978593908
0.008030412325961443
-0.012082357098388488
-0.038737247202859405
-0.015336466096404856
-0.000374556840425547
0.005597917093091677
-0.003259911019837091
-0.007640676234259705
-0.044492839073570316
0.0019889459478942156
0.014010342248696425
0.0038761205558198192
0.021471073413179935
0.02383215542175879
0.022513522081671088
0.0029060816280116215
0.03736945810009737
0.03077001073312338
0.023086967353297877
0.0064928664063131705
-0.026061575799042877
0.007538291707028509
-0.01808086762978716
0.04533586579891239
-0.00813999380990183
-0.013184133115298686
-0.01510614713600177
0.03085781975466535
0.033538411670148476
0.01958447440894924
-0.013795024008955745
-0.03159040335599655
-0.10470996212541452
-0.0968405715960425
0.03645504264690713
-0.01661558404827814
0.02655006196941024
-0.02368287769050593
-0.04093264683320451
0.004811526441281974
0.03241045728850141
-0.0027935644921592666
0.021961761610896892
-0.012672177995700536
0.014266843596993734
-0.009680542258902546
-0.036741395638876025
0.0013381490932757763
0.034047504344899344
0.004291846757546967
0.006090984062411758
-0.00848677717037068
0.015262252171102638
-0.01085723688325915
-0.01874464217910931
-0.01566354906048969
-0.026106498971732863
0.016605643726370415
-0.015207622617308231
-0.015787094247193174
-0.029905285785537354
-0.0053801703573478545
0.028488895507572273
0.040304310941027266
-0.020006123441030615
0.020984672262263308
0.011942643226855326
0.003637786040036451
0.032694198379952744
0.018053730161656144
-0.00996978532353512
-0.021659766818174945
-0.03960989049582632
0.010222763455921236
0.00219226493883149
0.0029405071618019757
-0.024559874520277913
0.012365215215443037
7.597167019792287e-05
0.039270543171048965
-0.03177584061122995
0.04240386733966907
0.1215743040811434
-0.00780629385317484
0.02422381910297196
0.044054301546098545
0.1185889078687405
0.013062383593422822
0.005132806794230756
0.029144709058557754
-0.02248219653366843
-0.0300960742337571
-0.048859969014573915
-0.05771758330723423
-0.03343727695762237
0.10306739831701743
0.014896383402217984
-0.3033924159441151
-0.009685683627182539
0.026059933751991095
-0.000989032556812327
-0.06347116098918248
-0.0064819879734064135
0.014636006998361649
-0.009670379231711403
-0.04466970585894765
0.024064818510933852
0.023214132917449243
0.0202193702202736
-0.0451790024717281
0.01401387999609021
0.005803753472500786
-0.010564984303994693
0.01486346971935867
0.023155334159198494
0.002743616891716378
0.03852866424893748
-0.02167449038420688
-0.017817854974140006
0.037945152108209354
-0.06693953544263094
0.0008114557851826885
0.043422151438088745
-0.01752666520075237
-0.014050165591594835
0.02979763916590938
0.01777806210340676
-0.021346134830524516
-0.026408185222526897
0.014128307269982654
0.04499068526061315
0.03182409376515917
0.016897840135788777
-0.03106556998649636
0.06964679769927916
-0.04241147643613436
0.012944079144004287
0.0038455261920516985
0.018912906101945116
0.046923349475859744
0.07124339131329524
0.011163196209147278
0.018506078138264062
-0.039614733914870956
0.015392849791848896
0.07537219420462513
0.0490953019504742
-0.013333913836209693
-0.014987478113686128
-0.15095488337362586
-0.16043175312005545
0.024466413445891604
0.040026554604759804
0.0018267926951336631
-0.017831025366112446
0.029939062091564092
-0.04081002369002053
-0.06072313380593403
0.04689709677713077
0.05804830767253778
0.036200747243181695
0.005045649019811716
0.0019436674007881558
0.017561480651586938
0.01930743294545017
0.0018270012749092006
0.017149158135014744
-0.05186490416272663
-0.1034272859223959
-0.027150791549952518
0.15596383971605202
0.00833735437546403
-0.03575495779195321
-0.018716839298708064
-0.08071853166223868
0.009312049688550941
0.037674401197042504
0.01707052158775902
-0.05469093628080658
0.021806354809843265
0.04842254362998493
-0.11923980207836583
-0.045807807601694533
5.4885526681076444e-05
-0.04468802648104855
-0.016715342820697116
0.03811244457216385
-0.052273387756992674
0.10541741224821087
0.15600325897210518
-0.036527543068534916
0.008950796987862835
-0.05353440193697253
-0.028801387042218678
-0.03546655905486348
0.004709528920164701
-0.013183518842759801
-0.022688065390756205
-0.016803547526451884
-0.014486584141798419
-0.019153760318638927
0.047559149244804574
0.09423771272593354
-0.05059309861349309
-0.006755433378659317
0.061683424198046094
0.016246362291338527
-0.023987762831362145
-0.015141428681286203
-0.012782184099900543
-0.022008466757028063
-0.01871470435645925
-0.024909784771343573
-0.007464586316605224
0.02433152846417765
0.03864929488637804
-0.0017856152225345125
0.07625187486770772
0.0738557648952509
-0.011768718090160108
-0.01020451673420003
-0.025196755004277576
0.004508541359863399
0.017919699706549313
-0.007340626739151762
-0.04254895852319756
0.02707120831808202
-0.046391056173811535
-0.043069234821471944
-0.02294068797561546
-0.05707356144609468
-0.003936383741164501
0.16436170110860782
-0.016261499527505302
0.0006208698831309678
0.0094481909812824
0.0037219810475433825
-0.031107024037099154
-0.032308274429633785
-0.021569778428046246
0.034456509500316965
0.042730691984753474
-0.04491862512930899
-0.02036693841272323
-0.011822919399941166
-0.010171761752147387
-0.004670288584944724
0.023393413381659994
0.04461260910873358
0.066583520592321
0.01451120145199735
0.07461553187832833
0.02668669492016671
-0.03313508902204864
-0.01804609634867535
0.03573904518226655
0.03672566498923461
-0.1703261592739101
-0.07224639663961681
0.06946523545865452
0.022950296574342395
-0.05072955952752848
-0.01838013031496298
-0.0365762205577324
0.13191256618961383
0.049789290873373464
-0.059591712595172416
-0.03080269614664698
-0.013821891462999206
-0.0230773473304266
-0.015112867616081407
-0.0245186884341133
0.0017000050379395273
0.006516450697138022
-0.009876267079501101
0.03530148393016788
0.01296319902760047
-0.007630715423079079
-0.0014477919734817372
-0.003184384720834668
-0.033335695957691744
-0.013271143733494063
-0.016671041042149313
0.010558245221507653
0.029445164091839015
-0.012701486581020249
-0.006305036553441374
0.02787288925974428
0.03891131064028135
0.022711671022671052
-0.011310617868388459
-0.03637563853793245
0.016783406767661997
-0.022692967205120856
-0.008882767563199346
0.0005868283340602256
0.00974443128882991
-0.030708305142968594
0.012506708961778771
0.0009508709808689664
-0.009944387038575498
-0.005130463029348829
0.005692408979226136
-0.015739818622835782
-0.023254516575461796
-0.00880475682191503
0.07515457878739377
-0.14747771179101507
-0.04995710244869186
-0.022716443616694972
0.028021169784823066
-0.02541281933203724
0.027666269544722004
0.06010450564299997
-0.01801503058738915
-0.026047247603866043
0.10263715327317886
0.10765976989853404
-0.028054905914280403
0.00600821963630014
0.025569958834753787
-0.03090278424146879
0.07676969712320897
0.1299457134012702
-0.058247186455383786
-0.029764456339144527
0.005932587628625829
-0.022397839328266778
-0.02903773109073146
-0.01563507966203413
-0.020936694179721983
-0.0039007070353080397
0.016424323936632994
-0.006937546839535617
0.00252894021421672
-0.011258029181486943
-0.015363051723616305
-0.03421185977737787
-0.025228374092782963
0.02746794655868101
-0.008045416614958376
0.0040206165572471775
-0.0051090874693195945
-0.004285704613346045
-0.0005651262675915665
-0.01727833506513416
0.002653483372616591
0.032481457279402375
-0.03325994294940712
-0.04608774280712729
0.03824213600502602
0.06978999723149033
-0.016313827332830037
0.05395408701988677
-0.023418016460427182
-0.04893778201503123
0.0003242829879450766
0.017959329062064298
-0.024099628276601455
0.015113231870972136
0.0336830648367259
-0.025013460059690223
-0.009713393137519165
0.04178637675306842
0.014306411791091052
0.02354371139065993
-0.011373960101690315
-0.01551767105263741
0.021463684038043388
0.001499301979932199
0.009039915107646675
-0.015304557491353746
-0.019313409759431882
-0.0058568035719112265
0.006569104715065331
0.030820340690654438
0.017708610878117186
-0.015962266617768114
-0.05817161952959674
-0.004021342495326085
-0.016203745011136205
-0.013109189304200502
0.04639078978864009
0.028414203047064025
-0.0033032928960108204
0.0034455273501832998
-0.00746055172685201
0.002753701975486459
-0.004921118626857418
-0.017217289771207327
-0.014313443596011373
0.02180340242347492
0.011266348054004154
0.023034053476262677
-0.008097241783026555
-0.06545771703545475
-0.02518379639605117
0.06791389323709351
0.025583724358408142
-0.0033584508576503446
-0.0021460339043157845
-0.012098857383544624
0.018883921916379394
-0.12891376862629259
-0.12164615289310389
0.02974834980951752
-0.019383907978933308
-0.02108736654162172
-0.043004946651245664
0.0017678367524274104
0.012560572945207996
0.027224358795014263
0.011991722949616434
0.010027311250396168
-0.0020119811321080293
-0.002059487110032256
-0.013157696013157374
0.052980748699882556
-0.0023438343880284943
0.0018598089430333063
0.046103901999293775
0.03237734003617702
0.006394779357997
0.02206385615634397
-0.010176195604460309
0.04215418246226385
0.022860751462610678
-0.02469151602412452
0.01639864053387814
0.02912583036800272
-0.012780493041897538
0.004127969146015416
-0.007962249538699949
-0.013394017226418958
-0.016443810125018863
-0.03712200172240185
-0.014205848614696778
-0.002944342639068518
0.0024940400895555217
-0.03871595923609638
-0.01789827715456173
0.020176256528315683
-0.003572540300611898
0.009425950686215951
-0.011119767364572996
-0.03802411775868762
0.0036693160322857385
-0.03762833212155392
0.004730373538784406
-0.03976140336597391
0.20089583591674218
0.1149582288798143
-0.11235207311786442
0.050049147330000154
0.016729188690420685
0.02241985218168827
0.01775469412037015
0.0479835871753733
-0.030559207549069486
0.07157898970503025
-0.09653991040143442
-0.07976658040793352
0.04389972642847498
0.017915436739768312
0.0038641154706935414
-0.025465615172965486
-0.031237851401639777
-0.004786646905602817
0.022344465898885287
0.020259218788187403
0.03062955884808661
0.03314680473738624
0.005734684322795684
-0.021892894375361925
-0.027239755133254395
-0.016021217079492188
0.023028292808440768
0.04272482816724994
0.021633407273874004
-0.013414629060096486
0.05721723064903202
-0.012404429440231762
-0.044789443157366396
-0.004651389765835649
0.012090115006631348
0.01861609139399867
-0.024812811077301097
-0.20124316666225273
-0.025249033162522423
0.05387274095732194
0.0036635782132586284
0.008826307049389918
0.0045737875453694355
0.011700240264300067
0.04731228002575304
-0.044880789208577326
0.0025268883464423064
0.025549946076971135
-0.06574221885561934
-0.0696533960864456
-0.003003205570094098
0.018335834043937772
-0.00971341761304577
-0.0013025088424930323
0.001689030935549318
-0.009714477371818062
0.06723235753374675
-0.0008256545188227459
0.0013513753323679944
0.0023246367321980094
0.01458111422494552
-0.01488345095977607
-0.027216067217402808
-0.07359177056452126
-0.027336217309302597
-0.037177065175750694
-0.08142581292858175
0.012977541426125401
0.018208218992981664
0.026086583653084403
0.0008563429070844633
0.030080169136978693
0.010710658579595193
0.01906874325358684
-0.005721491186899539
0.0202628968365988
0.01602896922007375
0.021012113850971976
-0.008932022376408475
0.023458041483960437
0.06135706764127108
0.0276678632879046
0.017444228247311837
0.0218873588505765
0.008096266153304233
-0.0473305822811503
0.011210999991047773
0.03402056642018195
0.03490137518797196
0.0016846532984054904
0.02947667149727431
0.02076444912817039
0.008474498869832633
0.01481318828103572
-0.007045796561329174
0.014697098437604247
0.014594259975645302
0.03303562495548958
-0.007680245823854051
-0.028619850519996066
0.022119383341795255
-0.028908219745646942
-0.20794515086320073
-0.003637004989461402
-0.04988100961011824
0.028692121013623447
0.06164150385348884
-0.06500486015485753
-0.03986482541916346
-0.005896168116863786
0.021891203238979508
0.050177655721057306
-0.0068402690327027445
0.014316958628218275
0.02043499689516925
0.022312918724660246
-0.008660656462894687
-0.02326314288255048
0.03069789583597026
-0.0035156252273839156
0.05012493759337933
-0.023040047968749908
-0.027476229096038425
0.01314226176893757
-0.015281416073132624
0.05774415142338071
0.05096352032144728
0.013371635911079179
-0.038682213148207766
-0.06289099973140297
-0.01459115502482031
0.049965419718074895
0.05052136933535359
-0.005763781315607035
-0.005784940876411406
-0.15169541685242316
-0.005376951053710937
-0.006897533925744389
0.0018193630461780996
-1.2369044872350894e-05
-0.040525311436412144
-0.022752521313081704
0.01426950105631302
0.02235883887765064
0.0050745458204802625
-0.030937742235869703
0.007942705100323752
0.00037775751996972645
0.07916084081826669
-0.05834339197397897
0.07962572355082027
0.07393438495343334
-0.02175851170583711
0.024597216367489273
0.01670195695304642
0.035228413937944174
0.018247916984646666
0.05601952266550906
-0.026077579672013382
-0.029958016123564704
0.021940903307682356
-0.06754771713298204
-0.06395708886086418
0.025837702522626457
-0.008316813963080021
-0.013586330174754305
-0.06922447374485349
-0.04455233273599643
0.026760559608296083
0.005396427049817601
0.0029161432724565664
0.025106230304954163
0.04714384756784473
-0.13142370536209347
0.014577392211400938
0.12891170876381242
-0.05173543995910495
-0.08785154330904053
0.003159946243248723
0.04525412211402328
-0.015575704523750976
0.02526191220547019
0.008818191435338723
0.06680990065106947
0.12244841363057908
-0.01882236269588111
-0.006481711104668493
-0.020625732156852705
-0.01896126286167989
0.032010162138111434
-0.030765229162953645
-0.10448125598850592
-0.04682756108107075
-0.051575690969960335
-0.03512823009820307
0.010398374258621139
-0.02051363241813801
0.021489860675704058
0.03004771413510425
-0.020404921868242585
-0.03234249884661609
0.020735324363956274
0.0220281936445006
0.034017148609715345
-0.035245825787390724
0.017469306390287275
-0.019066421500375238
-0.00862874603776868
-0.0039676831714590384
-0.008382262856119295
0.002799675468471611
0.0008964084790051008
-0.04272994499286099
-0.00011791458781128976
-0.02021073602328321
