,0
0.0,0.006953054208835216
0.008626862323904172,-0.06007900847378907
0.017253724647808343,-0.10767303749774974
0.025880586971712517,-0.12721386484394914
0.034507449295616686,-0.12207114837316757
0.04313431161952086,-0.09885448983845105
0.05176117394342503,-0.062209259523864274
0.060388036267329206,-0.016860654950231743
0.06901489859123337,0.02595082961476027
0.07764176091513755,0.04560304040493355
0.08626862323904172,0.029633761442396853
0.0948954855629459,-0.009834645205547549
0.10352234788685007,-0.05054105470754997
0.11214921021075423,-0.0783798295285999
0.12077607253465841,-0.0877200018038607
0.12940293485856258,-0.07938495528613862
0.13802979718246675,-0.05955407638865032
0.14665665950637094,-0.03480329006871585
0.1552835218302751,-0.01222538876087559
0.16391038415417927,-0.00343393322572174
0.17253724647808344,-0.015865175288029075
0.1811641088019876,-0.041775842759179706
0.1897909711258918,-0.0659365421435055
0.19841783344979597,-0.07830183116200513
0.20704469577370013,-0.07740994258215375
0.2156715580976043,-0.06939410004637189
0.22429842042150847,-0.06268251168348601
0.23292528274541266,-0.0603495525284112
0.24155214506931683,-0.05921023674092824
0.250179007393221,-0.05579190233026604
0.25880586971712516,-0.04991425975895744
0.2674327320410293,-0.043251075480286325
0.2760595943649335,-0.037256551998269355
0.2846864566888377,-0.03305012952771166
0.2933133190127419,-0.03307729445624504
0.301940181336646,-0.0401083806939304
0.3105670436605502,-0.052027801181887746
0.3191939059844544,-0.06008437213001224
0.32782076830835855,-0.055872474871027214
0.3364476306322627,-0.040227224622111556
0.3450744929561669,-0.021854868362762393
0.3537013552800711,-0.006885166441932688
0.3623282176039752,0.005444159373338332
0.3709550799278794,0.015324689670877353
0.3795819422517836,0.01655505557727703
0.3882088045756878,0.004804795019109518
0.39683566689959193,-0.013757215399503699
0.40546252922349607,-0.029245823994948034
0.41408939154740027,-0.03729522937234785
0.42271625387130446,-0.03830955546292664
0.4313431161952086,-0.033858209439940765
0.43996997851911274,-0.02688315406720882
0.44859684084301693,-0.021861563564852967
0.4572237031669212,-0.020507008266963923
0.4658505654908253,-0.018552258487302138
0.47447742781472946,-0.011603481955090639
0.48310429013863365,-0.004427343509479493
0.49173115246253785,-0.00617676826568217
0.500358014786442,-0.01316422784764204
0.5089848771103461,-0.010128263417533886
0.5176117394342503,0.006041908706204833
0.5262386017581545,0.02004333002846418
0.5348654640820586,0.02070100626253018
0.5434923264059628,0.014685616916109659
0.552119188729867,0.012838494597713026
0.5607460510537712,0.01544276389765257
0.5693729133776754,0.014622134464644103
0.5779997757015796,0.004863412197240132
0.5866266380254838,-0.010763276388004747
0.595253500349388,-0.024294133768500918
0.603880362673292,-0.029318313859922326
0.6125072249971962,-0.024749181704082652
0.6211340873211004,-0.01643638080237085
0.6297609496450046,-0.011537804665793832
0.6383878119689088,-0.01017869577747229
0.6470146742928129,-0.005772538687164572
0.6556415366167171,0.00573760082556252
0.6642683989406213,0.017594241130610457
0.6728952612645254,0.01912378220345664
0.6815221235884296,0.010585374628156034
0.6901489859123338,0.0021769216786191896
0.698775848236238,0.0016769411386142424
0.7074027105601421,0.008559619853683672
0.7160295728840462,0.01679836020092433
0.7246564352079504,0.021916424435994848
0.7332832975318546,0.021952800878435597
0.7419101598557588,0.011203551894815303
0.750537022179663,-0.01823149859582589
0.7591638845035672,-0.06787508848224866
0.7677907468274714,-0.12957811465846153
0.7764176091513756,-0.18339062025965822
0.7850444714752797,-0.20093669805758724
0.7936713337991839,-0.17039365423620736
0.8022981961230881,-0.11341300769893511
0.8109250584469921,-0.06147344926282018
0.8195519207708963,-0.03008401952099988
0.8281787830948005,-0.020205636950287875
0.8368056454187047,-0.025103968645984052
0.8454325077426089,-0.03455908705098335
0.854059370066513,-0.040906209825202905
0.8626862323904172,-0.04173284139297311
0.8713130947143214,-0.0377928935469855
0.8799399570382255,-0.029256200079208372
0.8885668193621297,-0.01409703205283759
0.8971936816860339,0.009064725842886584
0.9058205440099382,0.034346676780656
0.9144474063338424,0.04564326782025279
0.9230742686577464,0.030377792373833375
0.9317011309816506,-0.004194403403942691
0.9403279933055548,-0.03826304404345744
0.9489548556294589,-0.057292831758285305
0.9575817179533631,-0.05768134988698017
0.9662085802772673,-0.04287154672873003
0.9748354426011715,-0.019902791326339368
0.9834623049250757,0.0017814672008259237
0.9920891672489799,0.012681688398079686
1.000716029572884,0.005743974391423214
1.0093428918967882,-0.021215399797641355
1.0179697542206922,-0.06124346991614089
1.0265966165445966,-0.10099410445415428
1.0352234788685006,-0.1267652240440908
1.043850341192405,-0.12287270273089805
1.052477203516309,-0.08266072978829118
1.0611040658402133,-0.024424248366118624
1.0697309281641172,0.023342124940191097
1.0783577904880215,0.045201287907993326
1.0869846528119256,0.042155941466522545
1.0956115151358299,0.026618708547205307
1.104238377459734,0.013393926568088297
1.1128652397836383,0.0073711323805164776
1.1214921021075424,-0.00010137583175753645
1.1301189644314467,-0.02214616370237118
1.1387458267553507,-0.06277448426552368
1.1473726890792548,-0.10667334271370947
1.1559995514031591,-0.12474345835127783
1.1646264137270632,-0.10309332167344606
1.1732532760509675,-0.0611550628406909
1.1818801383748716,-0.02814653256791149
1.190507000698776,-0.013257900095152353
1.19913386302268,-0.007601956206582565
1.207760725346584,-0.002967221198967756
1.2163875876704882,0.0005338390533158777
1.2250144499943925,-0.0015564760622368877
1.2336413123182965,-0.012863524962547727
1.2422681746422009,-0.03046463717722065
1.250895036966105,-0.04371820018115036
1.2595218992900092,-0.04309396338965474
1.2681487616139133,-0.030923152328267724
1.2767756239378176,-0.018729908937091415
1.2854024862617215,-0.01243645550550059
1.2940293485856258,-0.007292462070657663
1.3026562109095299,0.0035119945721353357
1.3112830732334342,0.020966024613322816
1.3199099355573385,0.03937337030997344
1.3285367978812426,0.05192116427711506
1.3371636602051469,0.05574429431911177
1.3457905225290507,0.05053681522469063
1.354417384852955,0.03580549442474356
1.3630442471768591,0.012325951132617866
1.3716711095007634,-0.014730934924292253
1.3802979718246675,-0.03646284240317607
1.3889248341485718,-0.04509834164198566
1.397551696472476,-0.03842546645481377
1.4061785587963802,-0.021156955235233584
1.4148054211202843,-0.001832912845574168
1.4234322834441884,0.013540925057675438
1.4320591457680925,0.023980822872565647
1.4406860080919968,0.031242854186939832
1.4493128704159008,0.037312839534947274
1.4579397327398051,0.04197856645020824
1.4665665950637092,0.04382660893774264
1.4751934573876135,0.044494699124901255
1.4838203197115176,0.04622297313757012
1.4924471820354217,0.04540962447368674
1.501074044359326,0.03707297341299086
1.50970090668323,0.023482789238077416
1.5183277690071344,0.010668183266855723
1.5269546313310385,0.0014183935951623356
1.5355814936549428,-0.005299587032186354
1.5442083559788469,-0.012273651752566943
1.5528352183027512,-0.019432905059652724
1.561462080626655,-0.02262213275930791
1.5700889429505593,-0.021227702361743053
1.5787158052744634,-0.0210328887950565
1.5873426675983677,-0.025522594446068195
1.5959695299222718,-0.03082541085637387
1.6045963922461761,-0.030051858555999504
1.6132232545700802,-0.016105855606547703
1.6218501168939843,0.01803528758201044
1.6304769792178884,0.07396433604111005
1.6391038415417927,0.13547464693997036
1.647730703865697,0.16627309446838712
1.656357566189601,0.14125753322439422
1.6649844285135054,0.07588932635192573
1.6736112908374094,0.005754416505681552
1.6822381531613138,-0.047060948590274564
1.6908650154852178,-0.07614311563225262
1.699491877809122,-0.07916697177213258
1.708118740133026,-0.05829417999665443
1.7167456024569303,-0.023184762617071267
1.7253724647808344,0.018833851765211785
1.7339993271047387,0.06724415396094878
1.7426261894286428,0.11243220023689277
1.751253051752547,0.12773293009205688
1.759879914076451,0.09713711202055539
1.7685067764003553,0.04049470435987482
1.7771336387242593,-0.008892736720675752
1.7857605010481636,-0.034654540681021376
1.7943873633720677,-0.03568075516762733
1.803014225695972,-0.017365063180310367
1.8116410880198763,0.007737929212523489
1.8202679503437804,0.02406732490882819
1.8288948126676847,0.02814856310399262
1.8375216749915886,0.03319756258303988
1.8461485373154929,0.04774929925914889
1.854775399639397,0.060995785677934455
1.8634022619633013,0.06025682687473567
1.8720291242872054,0.047508908810400624
1.8806559866111097,0.03197462016800482
1.8892828489350137,0.01993859083259154
1.8979097112589178,0.01238672326471061
1.906536573582822,0.006098146817736384
1.9151634359067262,-0.00014097426605192754
1.9237902982306303,-0.0031245847502075074
1.9324171605545346,-0.0026367753076978443
1.9410440228784387,-0.0035420930604685573
1.949670885202343,-0.008169818516645156
1.958297747526247,-0.013103242557582329
1.9669246098501514,-0.013775392088637982
1.9755514721740555,-0.009628717999611586
1.9841783344979598,-0.005685350973621288
1.9928051968218639,-0.007599215243876887
2.001432059145768,-0.014099049673740592
2.010058921469672,-0.018227486436037624
2.0186857837935763,-0.016011292548079342
2.0273126461174806,-0.010625909631261542
2.0359395084413845,-0.009091444151798005
2.044566370765289,-0.016147667484708153
2.053193233089193,-0.030263168421218886
2.0618200954130974,-0.04398360397779429
2.0704469577370013,-0.047986212511118925
2.079073820060905,-0.03775015702181306
2.08770068238481,-0.017131516938791197
2.0963275447087137,0.005314053830581386
2.104954407032618,0.021619639285672412
2.113581269356522,0.028781527619078776
2.1222081316804267,0.032047546306836934
2.1308349940043305,0.03925497391691045
2.1394618563282344,0.049036477195438716
2.148088718652139,0.051569241104256376
2.156715580976043,0.04303075191439339
2.1653424432999473,0.030108512484389484
2.173969305623851,0.018693429186125782
2.182596167947756,0.007359866909864229
2.1912230302716598,-0.006478096421843719
2.199849892595564,-0.018571048996602668
2.208476754919468,-0.02040224725730896
2.2171036172433722,-0.011458274926210637
2.2257304795672765,-0.002687087617008001
2.2343573418911804,-0.005346947883676203
2.2429842042150847,-0.02206571929085221
2.251611066538989,-0.048357046420837616
2.2602379288628933,-0.07326591035112781
2.268864791186797,-0.08045235210808181
2.2774916535107015,-0.06580697783265138
2.286118515834606,-0.04866387988208327
2.2947453781585097,-0.05023431091162176
2.303372240482414,-0.07259647150017817
2.3119991028063183,-0.10041640163544364
2.3206259651302226,-0.11149314372209834
2.3292528274541264,-0.09625085320395187
2.3378796897780307,-0.0687436028867809
2.346506552101935,-0.04906397919357586
2.355133414425839,-0.043791434658190215
2.363760276749743,-0.046351230623678935
2.372387139073647,-0.0465772195129519
2.381014001397552,-0.03754537691706762
2.3896408637214557,-0.018606267442635657
2.39826772604536,0.0032817840252371516
2.406894588369264,0.01910979232733563
2.415521450693168,0.026218459582312083
2.4241483130170725,0.02577385761298796
2.4327751753409763,0.020132015232128535
2.4414020376648806,0.021309055897034836
2.450028899988785,0.04849301176955492
2.4586557623126892,0.10708422100476019
2.467282624636593,0.17266273892359754
2.475909486960498,0.2018487137339489
2.4845363492844017,0.17309522266934493
2.4931632116083056,0.11023651345951321
2.50179007393221,0.05153628794679052
2.510416936256114,0.013865971858318478
2.5190437985800185,-0.005473086729203958
2.5276706609039223,-0.014103419607381758
2.5362975232278266,-0.018653796870618203
2.544924385551731,-0.023166808028685214
2.5535512478756353,-0.027906346956152187
2.562178110199539,-0.029156751937864923
2.570804972523443,-0.023498237908190438
2.5794318348473477,-0.01345980447006902
2.5880586971712516,-0.004673567167253278
2.596685559495156,-0.0012972666047784357
2.6053124218190598,-0.005626065871518504
2.6139392841429645,-0.013963364766442605
2.6225661464668684,-0.01633992352150017
2.6311930087907722,-0.007598620462772356
2.639819871114677,0.0061843694310972815
2.648446733438581,0.016473493310267203
2.657073595762485,0.020762902473783644
2.665700458086389,0.019154489576399456
2.6743273204102938,0.012761846039687996
2.6829541827341976,0.008639887957818454
2.6915810450581015,0.01297017008880283
2.700207907382006,0.018407936084850987
2.70883476970591,0.013444259850877997
2.7174616320298144,-0.00013905082191845077
2.7260884943537183,-0.012138371158480321
2.7347153566776226,-0.017615793153027925
2.743342219001527,-0.01847144016179367
2.751969081325431,-0.017700939198703074
2.760595943649335,-0.01726401510942219
2.769222805973239,-0.018866502763495187
2.7778496682971436,-0.020339042395510466
2.7864765306210475,-0.012954272822723456
2.795103392944952,0.014784333680722971
2.803730255268856,0.06855420918733561
2.8123571175927604,0.1330411071278997
2.8209839799166643,0.1718105617716686
2.8296108422405686,0.16320165886292765
2.838237704564473,0.12343743679014937
2.8468645668883767,0.08025067336690397
2.855491429212281,0.04706935064045542
2.864118291536185,0.02357780348030837
2.8727451538600897,0.001955751365646515
2.8813720161839935,-0.023865242636526476
2.889998878507898,-0.05017722764534466
2.8986257408318017,-0.06490711349068966
2.907252603155706,-0.05925035826761585
2.9158794654796103,-0.04013716593139884
2.924506327803514,-0.024298046303628872
2.9331331901274185,-0.018872138314431575
2.9417600524513228,-0.016512296634321685
2.950386914775227,-0.010755814558479716
2.959013777099131,-0.005953108115449596
2.9676406394230352,-0.008499180715198607
2.9762675017469395,-0.01792729531548158
2.9848943640708434,-0.02891608890093761
2.9935212263947477,-0.03561979404797608
3.002148088718652,-0.033515769753274686
3.0107749510425563,-0.01954689536024881
3.01940181336646,0.005625386679355665
3.0280286756903645,0.03217181225283197
3.036655538014269,0.043973634930359363
3.0452824003381727,0.03396772873175512
3.053909262662077,0.011092820380693997
3.062536124985981,-0.011823472469818117
3.0711629873098856,-0.02818262269025949
3.0797898496337894,-0.03547956652005499
3.0884167119576937,-0.03405518218463939
3.0970435742815976,-0.028889980643724618
3.1056704366055023,-0.025173609587579755
3.114297298929406,-0.02183655639768981
3.12292416125331,-0.01475512938681478
3.131551023577215,-0.0033430526970886732
3.1401778859011187,0.010476390630038449
3.148804748225023,0.024503274177472053
3.157431610548927,0.03519990363388517
3.1660584728728316,0.0380689638514859
3.1746853351967355,0.029272618245325083
3.1833121975206393,0.007979971638010288
3.1919390598445436,-0.021532518144912766
3.200565922168448,-0.052947546106910465
3.2091927844923522,-0.08201276398231641
3.217819646816256,-0.1014482533066807
3.2264465091401604,-0.09722157391906572
3.2350733714640647,-0.06278189995105482
3.2437002337879686,-0.010986236651988234
3.252327096111873,0.03670850396995139
3.2609539584357767,0.06667102308994424
3.2695808207596815,0.07661172883492157
3.2782076830835853,0.06702417037202359
3.2868345454074896,0.038280587833123984
3.295461407731394,-0.0025312740261311337
3.3040882700552983,-0.043483673367453096
3.312715132379202,-0.07377976675868426
3.321341994703106,-0.0838635740063665
3.3299688570270107,-0.0708307738341571
3.3385957193509146,-0.04306420300478016
3.347222581674819,-0.01269136334458726
3.3558494439987228,0.010722503017423885
3.3644763063226275,0.020796960308114117
3.3731031686465314,0.018216298639284145
3.3817300309704357,0.01086300384122306
3.3903568932943395,0.003980518904323922
3.398983755618244,-0.0042391753980773874
3.407610617942148,-0.013240917669282249
3.416237480266052,-0.015469236850497607
3.4248643425899563,-0.00541673745524939
3.4334912049138606,0.014544660267122715
3.442118067237765,0.039421000044250594
3.450744929561669,0.06458242462842562
3.459371791885573,0.08070206988115729
3.4679986542094774,0.07648016675285045
3.4766255165333813,0.05272938951401367
3.4852523788572856,0.024879738595424774
3.49387924118119,0.0074065062469306255
3.502506103505094,0.0013925094313902518
3.511132965828998,-0.0018486623025727525
3.519759828152902,-0.008773400222681773
3.5283866904768066,-0.018458055065295815
3.5370135528007105,-0.026874452701076128
3.545640415124615,-0.029243261954127388
3.5542672774485187,-0.017992976899418818
3.5628941397724234,0.016433390054707647
3.5715210020963273,0.07700930568956851
3.5801478644202316,0.14359890839274908
3.5887747267441354,0.17315338398990648
3.5974015890680398,0.1422882740788469
3.606028451391944,0.07777396229773753
3.614655313715848,0.02209198181990855
3.6232821760397527,-0.006006172381766712
3.6319090383636565,-0.00873546875351911
3.640535900687561,0.005120872379622068
3.6491627630114647,0.02691592136909728
3.6577896253353694,0.049471636662886405
3.6664164876592733,0.06590442413300512
3.675043349983177,0.07002486809141
3.6836702123070815,0.05832084294135971
3.6922970746309858,0.034409651528043324
3.70092393695489,0.01036807629545767
3.709550799278794,-0.002027594632889574
3.7181776616026982,-0.00032446943429837393
3.7268045239266026,0.007373127672952307
3.7354313862505064,0.009436539310082469
3.7440582485744107,0.001274500192062084
3.7526851108983146,-0.013023555293944602
3.7613119732222193,-0.02568677459483268
3.769938835546123,-0.028657421502287922
3.7785656978700275,-0.0193162571297498
3.787192560193932,-0.005693700657727225
3.7958194225178357,-0.0006776233921958474
3.80444628484174,-0.010453347427758282
3.813073147165644,-0.033686343722430984
3.8217000094895486,-0.06947522987539671
3.8303268718134524,-0.116437859806846
3.8389537341373567,-0.15999918472925398
3.8475805964612606,-0.17142157253914225
3.8562074587851654,-0.13749697652891502
3.864834321109069,-0.08033113369740075
3.873461183432973,-0.029824047726544393
3.8820880457568774,0.0032640242973173373
3.8907149080807817,0.020192362220228348
3.899341770404686,0.023792854340345733
3.9079686327285903,0.01671043852886038
3.916595495052494,-0.0022357250500276357
3.9252223573763985,-0.04018989214318157
3.9338492197003028,-0.10158561347189704
3.942476082024206,-0.16752954866221492
3.951102944348111,-0.1934875365858462
3.9597298066720152,-0.15617959799061384
3.9683566689959195,-0.0884216746270525
3.976983531319823,-0.037664850490527924
3.9856103936437277,-0.016122182550488258
3.994237255967632,-0.008022801702384558
4.002864118291536,0.0020978159099156206
4.01149098061544,0.017808621839294565
4.020117842939344,0.03362529690311014
4.028744705263248,0.0414028306741061
4.037371567587153,0.03697599265583848
4.045998429911057,0.025577173392408448
4.054625292234961,0.018495008628283134
4.063252154558866,0.022018497389810904
4.071879016882769,0.031776826224395156
4.080505879206673,0.03918919976551987
4.089132741530578,0.03955177907702694
4.097759603854482,0.03104554958578495
4.106386466178386,0.013966718793927767
4.1150133285022905,-0.0053209203426218534
4.123640190826195,-0.018271300187070443
4.132267053150098,-0.022409709606311314
4.1408939154740025,-0.020819113145000675
4.149520777797907,-0.016778302114367698
4.15814764012181,-0.010737570986364284
4.1667745024457155,-0.001408692010272834
4.17540136476962,0.009499909586558454
4.184028227093524,0.015493505092606358
4.1926550894174275,0.009982743908510193
4.201281951741332,-0.006559960007733696
4.209908814065236,-0.02434852152878301
4.2185356763891395,-0.030863244654979957
4.227162538713044,-0.020374362498226023
4.235789401036949,0.00028156678256026314
4.244416263360853,0.015468809062890415
4.253043125684757,0.01593867859942637
4.261669988008661,0.007558164326986843
4.270296850332565,0.00022181689266286388
4.278923712656469,-0.003345642663181672
4.287550574980373,-0.003987481430892805
4.296177437304278,-1.3952084243912428e-05
4.304804299628183,0.01269444042503733
4.313431161952086,0.03448931293687046
4.32205802427599,0.055844820883188574
4.330684886599895,0.06575750839233747
4.339311748923799,0.06464590140631951
4.347938611247702,0.05820359331178314
4.356565473571607,0.047396276026726955
4.365192335895512,0.03488945636062837
4.373819198219415,0.028524358199437685
4.3824460605433195,0.030780076493428253
4.391072922867224,0.03532667609708121
4.399699785191128,0.036431149943097096
4.408326647515032,0.03331701372905834
4.416953509838936,0.025229338305395484
4.425580372162841,0.011006090928826916
4.4342072344867445,-0.00681257395642091
4.442834096810649,-0.027297862998470066
4.451460959134553,-0.05807554856117997
4.460087821458457,-0.10635327397071388
4.468714683782361,-0.15986363029367684
4.477341546106265,-0.18444062619908885
4.485968408430169,-0.15774380255096243
4.494595270754074,-0.09859962878323855
4.503222133077978,-0.043304680307661145
4.511848995401882,-0.008892384683167592
4.520475857725787,0.008344054068994937
4.52910272004969,0.01602242952631716
4.537729582373594,0.01577510388473572
4.546356444697499,0.00596533896313927
4.554983307021403,-0.011844486961771594
4.563610169345307,-0.033895932724531674
4.572237031669212,-0.056802419460320705
4.580863893993116,-0.07313730992980377
4.589490756317019,-0.07125251186949653
4.598117618640924,-0.050735067755438415
4.606744480964828,-0.029170068148517896
4.615371343288732,-0.02170882764306561
4.6239982056126365,-0.025638895926364116
4.632625067936541,-0.028491005985051426
4.641251930260445,-0.020612016758594018
4.6498787925843486,-0.00313020134360948
4.658505654908253,0.012233182831088756
4.667132517232157,0.015076560393061513
4.6757593795560615,0.006410056661234054
4.684386241879965,-0.004335812387254664
4.69301310420387,-0.009522153251017507
4.701639966527774,-0.010610696250877655
4.710266828851678,-0.014023857324462175
4.718893691175582,-0.020739618401912956
4.727520553499486,-0.02537807227612837
4.736147415823391,-0.023033444811293144
4.744774278147294,-0.012519456427185065
4.753401140471199,0.0035534384770968108
4.762028002795104,0.01982005626611522
4.770654865119007,0.03192751546272972
4.779281727442911,0.03799153276977784
4.787908589766816,0.03524305172143474
4.79653545209072,0.022570005717815617
4.805162314414623,0.006696027625507318
4.813789176738528,-0.0037008920901348474
4.822416039062433,-0.007764855260067755
4.831042901386336,-0.01069146985947939
4.839669763710241,-0.015947688684249832
4.848296626034145,-0.021561171838677767
4.856923488358049,-0.02274838060887964
4.865550350681953,-0.015907073661436212
4.874177213005857,-0.00021145402575889445
4.882804075329761,0.021707485202933644
4.891430937653666,0.04579621467111815
4.90005779997757,0.07189827467335819
4.908684662301474,0.10519500886305605
4.9173115246253785,0.147949397689871
4.925938386949282,0.18624988440203
4.934565249273186,0.19116114488194214
4.9431921115970905,0.14922801942610542
4.951818973920996,0.08478466326918553
4.960445836244899,0.033762240351153064
4.969072698568803,0.010495861043280704
4.977699560892708,0.009944065402480906
4.986326423216611,0.021061400025127477
4.994953285540515,0.02989558577485822
5.00358014786442,0.024871675387154426
5.012207010188324,0.006349938993714769
5.020833872512228,-0.016082919400562536
5.029460734836133,-0.034496945342370064
5.038087597160037,-0.04514625645229632
5.04671445948394,-0.04647262625422435
5.055341321807845,-0.040172500095010576
5.063968184131749,-0.030190084349453063
5.072595046455653,-0.018796064921632924
5.081221908779558,-0.0066004862743753254
5.089848771103462,0.004449561435418449
5.098475633427366,0.012020325789133783
5.1071024957512705,0.017281016109422655
5.115729358075174,0.023827620942487367
5.124356220399078,0.03103799481328602
5.1329830827229825,0.03309791536204835
5.141609945046886,0.028145211915640705
5.150236807370791,0.022634562719829783
5.1588636696946955,0.021124218717574327
5.1674905320186,0.01796586729838708
5.176117394342503,0.006496588960629362
5.1847442566664075,-0.009639545369350529
5.193371118990312,-0.020508136848714862
5.201997981314215,-0.019879283005907696
5.2106248436381195,-0.009768298852758261
5.219251705962025,0.001810178426963697
5.227878568285929,0.008166165099774999
5.236505430609832,0.00833681974010316
5.245132292933737,0.004313207098438882
5.253759155257641,-0.0022803557004692073
5.2623860175815445,-0.009302691423223009
5.271012879905449,-0.01345561187687404
5.279639742229354,-0.012519203476195916
5.288266604553258,-0.006142112273268099
5.296893466877162,0.004485994458824015
5.305520329201066,0.015486957441218125
5.31414719152497,0.021219107947531353
5.322774053848874,0.017470686126114618
5.331400916172778,0.003330209189675107
5.340027778496682,-0.016207152491383544
5.3486546408205875,-0.029552354425999953
5.357281503144491,-0.027917668438255026
5.365908365468395,-0.014206283186394487
5.3745352277922995,0.002590096486054335
5.383162090116203,0.016226475923121854
5.391788952440107,0.024927993205012773
5.400415814764012,0.028158347816548995
5.409042677087916,0.02276271745178638
5.41766953941182,0.008758402468955383
5.4262964017357245,-0.0036742862474699136
5.434923264059629,-0.004740058622512492
5.443550126383533,0.0022934569957810476
5.4521769887074365,0.007131156385907965
5.460803851031341,0.004405538904854492
5.469430713355245,-0.004173136853312813
5.478057575679149,-0.013035066425144461
5.486684438003054,-0.016888874424681337
5.495311300326958,-0.015063113886704399
5.503938162650862,-0.01162372199092935
5.512565024974766,-0.011516833466217133
5.52119188729867,-0.015975419329638387
5.529818749622574,-0.02064525488862831
5.538445611946478,-0.019549599511335402
5.547072474270383,-0.010565539245644691
5.555699336594287,0.002810346658838602
5.564326198918192,0.014553017135284828
5.572953061242095,0.02195973282686764
5.581579923565999,0.02738700774521726
5.590206785889904,0.03576390626714912
5.598833648213807,0.05029745904152324
5.607460510537712,0.06503190217105609
5.6160873728616165,0.06783721169444741
5.624714235185521,0.055930153363519676
5.633341097509424,0.037024893263220095
5.6419679598333285,0.016188367007082302
5.650594822157233,-0.006619613312262167
5.659221684481137,-0.02940361748291464
5.667848546805041,-0.045417853844657685
5.676475409128946,-0.04719906493779025
5.68510227145285,-0.0336050852540463
5.6937291337767535,-0.012884346655269295
5.702355996100658,0.002870559804104991
5.710982858424562,0.0068039905796645145
5.719609720748466,0.00158412884518828
5.72823658307237,-0.005259759029210286
5.736863445396275,-0.008952641841221725
5.745490307720179,-0.008583699827180961
5.754117170044083,-0.004594729785534055
5.762744032367987,0.002782130299123056
5.771370894691891,0.014705225863437605
5.779997757015796,0.03234628131492366
5.788624619339699,0.05322195936139808
5.797251481663603,0.06766139479990022
5.805878343987509,0.0636548055632538
5.814505206311412,0.042072973146904245
5.823132068635316,0.018137896459480492
5.831758930959221,0.0036783307283506156
5.840385793283125,-0.0008853924792712169
5.849012655607028,-0.0006001134367563353
5.857639517930933,-0.0027499036494276563
5.866266380254837,-0.01546240566655153
5.874893242578741,-0.04429548854934852
5.8835201049026455,-0.0870547581711526
5.89214696722655,-0.12586453332047512
5.900773829550454,-0.13165699113220417
5.909400691874358,-0.0928788083623143
5.918027554198262,-0.03296128508184022
5.926654416522166,0.013060785047660185
5.9352812788460705,0.02753526454312949
5.943908141169975,0.014499141267536871
5.952535003493879,-0.00854771660932669
5.961161865817783,-0.021118159847889822
5.969788728141687,-0.011537693233758802
5.978415590465591,0.013890093239659538
5.987042452789495,0.035239238771451506
5.9956693151134,0.03833972754321814
6.004296177437304,0.02610199496174177
6.012923039761208,0.009808527065672918
6.021549902085113,-0.002451846744092393
6.030176764409016,-0.009718004126713045
6.03880362673292,-0.016419426022674155
6.047430489056825,-0.025816934248279636
6.056057351380729,-0.03594879385481639
6.064684213704633,-0.042887758316241344
6.073311076028538,-0.044593307785241884
6.081937938352442,-0.041670396007301325
6.090564800676345,-0.036082534778470114
6.09919166300025,-0.027899504392079354
6.107818525324154,-0.01482521757704188
6.116445387648058,0.0038268010702665347
6.125072249971962,0.025865801944643337
6.133699112295867,0.04809895124022531
6.142325974619771,0.06587300218742
6.150952836943675,0.07173102020209958
6.159579699267579,0.05940612640656438
6.168206561591483,0.03325949192304596
6.1768334239153875,0.00837790168456099
6.185460286239291,-0.0024795361994535965
6.194087148563195,0.004437252884271625
6.2027140108871,0.02351217839229405
6.211340873211005,0.037568019624869234
6.219967735534908,0.029730561225986368
6.228594597858812,0.005178236946381532
6.237221460182717,-0.012417639917588034
6.24584832250662,-0.011787566466504848
6.2544751848305244,-0.006546797638025919
6.26310204715443,-0.011843376389343274
6.271728909478334,-0.025680521507147572
6.280355771802237,-0.03783123201427363
6.288982634126142,-0.04283091083227307
6.297609496450046,-0.040239778720510516
6.306236358773949,-0.031075965516213618
6.314863221097854,-0.018609195997825335
6.323490083421758,-0.008162223002366943
6.332116945745663,-0.003034440253027904
6.340743808069567,-0.002861928292526298
6.349370670393471,-0.005037389115807135
6.357997532717375,-0.005432167876026609
6.366624395041279,-0.000501167929298162
6.375251257365183,0.008052734647705674
6.383878119689087,0.0120805629520805
6.392504982012992,0.004210710910715711
6.401131844336896,-0.013636325988690294
6.4097587066608,-0.030985127796494708
6.4183855689847045,-0.03664870139248266
6.427012431308608,-0.0269631903251399
6.435639293632512,-0.0094690998530668
6.4442661559564165,0.0032897477931628054
6.452893018280321,0.0046979066863397315
6.461519880604225,-0.0012499780450327728
6.470146742928129,-0.0027257330873800083
6.478773605252034,0.010718365990393755
6.487400467575937,0.03427959399197126
6.496027329899841,0.0490769893702688
6.504654192223746,0.04518135522245321
6.51328105454765,0.030632598167565618
6.5219079168715535,0.014868796561111603
6.530534779195459,0.0013497955498088898
6.539161641519363,-0.006747374052910731
6.547788503843267,-0.00799376832991109
6.556415366167171,-0.004800551331697863
6.565042228491075,-0.0006818352118239978
6.573669090814979,0.0005238889258650359
6.582295953138883,-0.00368862047536518
6.590922815462788,-0.01196437508161936
6.599549677786692,-0.02041793905050939
6.6081765401105965,-0.02449831929165239
6.6168034024345,-0.02055797320577592
6.625430264758404,-0.00979778520142735
6.6340571270823085,0.0008156732549301116
6.642683989406212,0.0049405825373191
6.651310851730116,0.0023628550670023274
6.6599377140540215,-0.002646412855427996
6.668564576377926,-0.004094682909388572
6.677191438701829,0.0031431259548481403
6.6858183010257335,0.017114189297703208
6.694445163349638,0.026690739806894667
6.703072025673541,0.022027151141591157
6.7116988879974455,0.005335823927229992
6.720325750321351,-0.013625439099701825
6.728952612645255,-0.027663551045291043
6.737579474969158,-0.03474756420722462
6.746206337293063,-0.03581313849122732
6.754833199616967,-0.03036810256304744
6.763460061940871,-0.012612321468989895
6.772086924264775,0.024029098075067295
6.780713786588679,0.07153237946783052
6.789340648912584,0.10158052758126485
6.797967511236488,0.0916813959678366
6.806594373560392,0.05036181331279019
6.815221235884296,0.0033638719567543347
6.823848098208201,-0.03080228678763026
6.832474960532104,-0.04729501661388609
6.841101822856008,-0.05059770026427661
6.849728685179913,-0.046864120704956845
6.858355547503817,-0.03975327488682416
6.866982409827721,-0.03141439598580855
6.8756092721516255,-0.02330049987939287
6.88423613447553,-0.01688581861482906
6.892862996799433,-0.014283763579889948
6.901489859123338,-0.015629793329630486
6.910116721447242,-0.016173689127234214
6.918743583771146,-0.009286732578401019
6.9273704460950505,0.004988201950577716
6.935997308418955,0.0167054497507343
6.944624170742859,0.01682935791372457
6.9532510330667625,0.008484082024017707
6.961877895390667,0.0017858901853813436
6.970504757714571,-0.00022995348821933489
6.9791316200384745,-0.005486146681010487
6.98775848236238,-0.020902891942843924
6.996385344686284,-0.0417080234242836
7.005012207010188,-0.056459766443252186
7.013639069334092,-0.05705762903280505
7.022265931657996,-0.04135847353072712
7.0308927939819,-0.011097164392591508
7.039519656305804,0.02834091887861114
7.048146518629709,0.06341672557006844
7.056773380953613,0.07369589052393255
7.065400243277518,0.05048272861514071
7.074027105601421,0.009763808095038976
7.082653967925325,-0.02387705579242047
7.09128083024923,-0.03811150151496717
7.099907692573134,-0.03500224193035435
7.108534554897037,-0.024123831523495953
7.1171614172209425,-0.015852097176379327
7.125788279544847,-0.014534205959151747
7.13441514186875,-0.016459326524219695
7.143042004192655,-0.016853706633087696
7.151668866516559,-0.016586039788086447
7.160295728840463,-0.018999388629952537
7.168922591164367,-0.02362413669979736
7.177549453488271,-0.025662828886357333
7.186176315812176,-0.018032836120646347
7.1948031781360795,0.006498230658186415
7.203430040459984,0.04911026884453012
7.212056902783888,0.09561174407965231
7.220683765107792,0.11812182961733159
7.229310627431696,0.10031742002220709
7.2379374897556,0.056700820124070454
7.246564352079505,0.014253618493268463
7.255191214403409,-0.009006305068733417
7.263818076727313,0.00115905749663303
7.272444939051217,0.05534161154666767
7.281071801375122,0.13464577599536057
7.289698663699025,0.18482652511153375
7.298325526022929,0.1689227238824983
7.306952388346834,0.10748475913957128
7.315579250670739,0.04252003852460755
7.324206112994642,-0.006388478218036867
7.332832975318547,-0.037765011534485055
7.341459837642451,-0.054915495851822614
7.350086699966354,-0.06890645721867028
7.358713562290259,-0.09523194343979702
7.367340424614163,-0.1317581300853486
7.375967286938067,-0.1502515747151066
7.3845941492619716,-0.12976087438171668
7.393221011585876,-0.08460806199368512
7.40184787390978,-0.041646949710991324
7.410474736233684,-0.011569423400032872
7.419101598557588,0.006611606923481696
7.427728460881492,0.013196902074192949
7.4363553232053965,0.008836282761247627
7.444982185529301,-0.0012691424969867755
7.453609047853205,-0.011194993781864835
7.462235910177109,-0.018670234897766414
7.470862772501013,-0.02268036886560677
7.479489634824917,-0.021766984718738485
7.488116497148821,-0.018215493701525524
7.496743359472726,-0.018603428950020606
7.505370221796629,-0.023317231913687383
7.513997084120534,-0.021143609909020915
7.522623946444439,-1.229143186884515e-05
7.531250808768342,0.041925967721944284
7.539877671092246,0.09019710709831358
7.548504533416151,0.11565073656010895
7.557131395740055,0.09969607371991407
7.565758258063958,0.05608266136250799
7.574385120387864,0.013557137894619386
7.583011982711768,-0.010362409074560177
7.591638845035671,-0.013483770376040904
7.600265707359576,-0.0030547830291230587
7.60889256968348,0.009799553498723218
7.617519432007384,0.01611295254369502
7.626146294331288,0.013939448480307677
7.634773156655192,0.007041802691061611
7.643400018979097,-0.0014438006845748435
7.6520268813030015,-0.012819216466467583
7.660653743626905,-0.03246606708187745
7.669280605950809,-0.06368684947073514
7.6779074682747135,-0.0958809208468473
7.686534330598617,-0.1064466845557441
7.695161192922521,-0.08466536558521837
7.703788055246426,-0.044206515703597474
7.712414917570331,-0.007384113118877931
7.721041779894234,0.011336725684976184
7.729668642218138,0.009118774588461002
7.738295504542043,-0.005982650692776183
7.746922366865946,-0.020472047183658477
7.7555492291898505,-0.025563051705364895
7.764176091513755,-0.022823628180966123
7.77280295383766,-0.01925354615861079
7.781429816161563,-0.01752941913598391
7.790056678485468,-0.01243569228911634
7.798683540809372,0.0015945771205958619
7.807310403133275,0.020657246779765038
7.815937265457181,0.03366118025840006
7.824564127781083,0.03342556598539455
7.833190990104988,0.021025381044608094
7.841817852428893,0.0021054719817789327
7.850444714752797,-0.017640824107181846
7.859071577076701,-0.03192717440887604
7.8676984394006055,-0.0323510765234037
7.87632530172451,-0.018745485982963526
7.884952164048412,-0.0033379627512551665
7.893579026372317,0.006064615661285786
7.902205888696222,0.011945551841990747
7.910832751020126,0.015078790510048104
7.9194596133440305,0.012704842507520655
7.928086475667935,0.005062556452471022
7.936713337991839,-0.005218732443705677
7.945340200315742,-0.016085507636433207
7.953967062639646,-0.026203256365476504
7.96259392496355,-0.035850557736403076
7.971220787287455,-0.04731454491954958
7.97984764961136,-0.06260124292479917
7.988474511935264,-0.07731179184851102
7.997101374259168,-0.07772840460947557
8.005728236583073,-0.05589817318319068
8.014355098906975,-0.02406539193253171
8.02298196123088,-0.0008775656322544956
8.031608823554784,0.0077683100439392165
8.040235685878688,0.00850715136300512
8.048862548202592,0.012088272804118446
8.057489410526497,0.027977520827322338
8.066116272850403,0.06086251724196821
8.074743135174305,0.10168948505393148
8.08336999749821,0.12422152990940087
8.091996859822114,0.10949313135567784
8.100623722146018,0.06931733439923157
8.109250584469923,0.030525364048236713
8.117877446793827,0.008610067389475298
8.126504309117731,0.004190347619528542
8.135131171441634,0.012031084820702526
8.143758033765538,0.026647586331504568
8.152384896089442,0.040898414538150574
8.161011758413347,0.04572616869068341
8.169638620737251,0.03802500806156486
8.178265483061155,0.02499302582008797
8.18689234538506,0.015298468683989196
8.195519207708964,0.010906813972663935
8.204146070032868,0.011451607665221571
8.212772932356772,0.018966744403770663
8.221399794680677,0.03167610443926671
8.230026657004581,0.04058711666591475
8.238653519328485,0.041529891598452696
8.24728038165239,0.043203776563378225
8.255907243976292,0.056325884724435976
8.264534106300196,0.08234778802951861
8.2731609686241,0.11042365381100819
8.281787830948005,0.11965880405175033
8.29041469327191,0.09530046289003212
8.299041555595814,0.04646845845224584
8.307668417919718,-0.0013485547548262918
8.31629528024362,-0.030264819752846863
8.324922142567527,-0.03983193447100997
8.333549004891431,-0.03780708929247271
8.342175867215335,-0.030171514204711175
8.35080272953924,-0.019585823459944078
8.359429591863144,-0.007827237180982476
8.368056454187048,0.0026783804475434127
8.37668331651095,0.009759372638733959
8.385310178834855,0.012858030207126983
8.39393704115876,0.013432591859412863
8.402563903482664,0.014136342755983338
8.411190765806568,0.01598454741311536
8.419817628130472,0.01785902826797221
8.428444490454376,0.018842573762643207
8.437071352778279,0.01694791808705828
8.445698215102183,0.008494441146298038
8.454325077426088,-0.005761131132513629
8.462951939749994,-0.017630787276028553
8.471578802073898,-0.019812038427162282
8.480205664397802,-0.014182602034249875
8.488832526721707,-0.007589580523828845
8.49745938904561,-0.004098338001980678
8.506086251369513,-0.0062337998663463835
8.514713113693418,-0.016507912074773798
8.523339976017322,-0.03188218625507564
8.531966838341226,-0.04296437319999281
8.54059370066513,-0.042561804702324894
8.549220562989035,-0.03151827321303219
8.557847425312938,-0.01623831003229493
8.566474287636842,-0.0036976489125130057
8.575101149960746,0.002322605602755123
8.58372801228465,0.0017755081876469577
8.592354874608557,-0.0036897953416566674
8.60098173693246,-0.010861480677753126
8.609608599256365,-0.015421048095360112
8.61823546158027,-0.015516915108786193
8.626862323904172,-0.012640100407571218
8.635489186228076,-0.008379101048337704
8.64411604855198,-0.0027817775288565354
8.652742910875885,0.003946318548724452
8.66136977319979,0.008833885368541343
8.669996635523693,0.007321633452808279
8.678623497847598,-0.0008403444933775476
8.6872503601715,-0.010046397966778258
8.695877222495405,-0.015084647454372558
8.704504084819309,-0.014487893694711023
8.713130947143213,-0.008355815024481397
8.72175780946712,0.0014859320485743192
8.730384671791024,0.010646873301382538
8.739011534114928,0.014385877059136794
8.74763839643883,0.010986608962583772
8.756265258762735,0.0038551254732670124
8.764892121086639,-0.0018170734384349895
8.773518983410543,-0.00405183709500932
8.782145845734448,-0.0021696932834195533
8.790772708058352,0.0067832156057303404
8.799399570382256,0.0257624578867777
8.808026432706159,0.053686738203506376
8.816653295030063,0.08298764307086628
8.825280157353967,0.10022452571645071
8.833907019677872,0.09551442521750858
8.842533882001776,0.07410055893221933
8.851160744325682,0.05150737043237185
8.859787606649586,0.03764701912043736
8.868414468973489,0.031919412443668076
8.877041331297393,0.029590536197376678
8.885668193621298,0.027030006237490897
8.894295055945202,0.022491275681078945
8.902921918269106,0.015713830518301403
8.91154878059301,0.008358745433520784
8.920175642916915,0.0033054709930100627
8.928802505240817,0.0022993901182541956
8.937429367564722,0.004113450292211749
8.946056229888626,0.0049396344316834625
8.95468309221253,0.0018140520205842728
8.963309954536435,-0.003765075169759517
8.971936816860339,-0.0064497018155083765
8.980563679184243,-0.0019570048021269556
8.989190541508147,0.008264842557130182
8.997817403832052,0.01715799212071928
9.006444266155956,0.01714169763235868
9.01507112847986,0.003131363350653067
9.023697990803765,-0.03121685527851069
9.032324853127669,-0.09110649603372853
9.040951715451573,-0.15939441233678492
9.049578577775476,-0.19019630575716762
9.05820544009938,-0.15601465260956082
9.066832302423284,-0.08448011366080009
9.075459164747189,-0.01975563087968495
9.084086027071093,0.02090513387755802
9.092712889394997,0.03964366436643417
9.101339751718902,0.041721496422963286
9.109966614042806,0.03387044102581779
9.11859347636671,0.022905294084261448
9.127220338690615,0.012546042048888777
9.135847201014519,0.0043036518297639775
9.144474063338423,-0.00013650134632615376
9.153100925662327,0.0013595485426196195
9.161727787986232,0.00876630625933493
9.170354650310136,0.017342093525982077
9.178981512634039,0.021305516995443374
9.187608374957943,0.019260269467511606
9.196235237281847,0.013322318992957341
9.204862099605752,0.006693035354265305
9.213488961929656,0.0029661434006097304
9.22211582425356,0.003258161863449819
9.230742686577464,0.004342500139118024
9.239369548901367,0.0017403082424185244
9.247996411225273,-0.005622196067063086
9.256623273549177,-0.014037561433767594
9.265250135873082,-0.018404663555926376
9.273876998196986,-0.015145221487114955
9.28250386052089,-0.0016913922934159217
9.291130722844795,0.020714993433589714
9.299757585168697,0.042532731313163596
9.308384447492601,0.050077972867944714
9.317011309816506,0.0329626706327382
9.32563817214041,-0.01360783669626605
9.334265034464314,-0.08518778751984679
9.342891896788219,-0.15731486254641944
9.351518759112123,-0.1883792777885481
9.360145621436025,-0.15897279058906827
9.36877248375993,-0.0970267644293549
9.377399346083836,-0.04191578327536549
9.38602620840774,-0.007748592376366862
9.394653070731644,0.009511558924411486
9.403279933055549,0.01282622469860707
9.411906795379453,-0.0027009597567449186
9.420533657703356,-0.040108644323578205
9.42916052002726,-0.08979118300602174
9.437787382351164,-0.1376617372935132
9.446414244675069,-0.17605139732786929
9.455041106998973,-0.20465290904509034
9.463667969322877,-0.2197365390148796
9.472294831646781,-0.19927461070209243
9.480921693970684,-0.12991517133893177
9.489548556294588,-0.04298246804624653
9.498175418618493,0.01705333099870625
9.506802280942399,0.03789278772275913
9.515429143266303,0.03329881239540504
9.524056005590207,0.019032545411577305
9.532682867914112,0.004773156906342475
9.541309730238014,-0.0036395139403218773
9.549936592561918,-0.004124254843650083
9.558563454885823,-0.00013816758014579536
9.567190317209727,0.002361333305204523
9.575817179533631,0.0014598799465651117
9.584444041857536,0.0002861857012069918
9.59307090418144,0.00025265882219634335
9.601697766505342,-0.001212084885360466
9.610324628829247,-0.004111619917527873
9.618951491153151,-0.002940824559243432
9.627578353477055,0.007162620167229463
9.63620521580096,0.02431033044588474
9.644832078124866,0.04122324326036331
9.65345894044877,0.05055868613484302
9.662085802772673,0.04916962011568322
9.670712665096577,0.039712585809787294
9.679339527420481,0.028925719551461976
9.687966389744386,0.022702007172396278
9.69659325206829,0.02035915841133916
9.705220114392194,0.015003516064929272
9.713846976716098,-0.00021526345052574978
9.722473839040003,-0.027755463502376555
9.731100701363905,-0.06347747669852873
9.73972756368781,-0.09376431998854913
9.748354426011714,-0.09876676234109402
9.756981288335618,-0.07093834784255049
9.765608150659522,-0.02833149465865812
9.774235012983429,0.004008840212282819
9.782861875307333,0.018140794386309566
9.791488737631235,0.020020314323012267
9.80011559995514,0.016515336036650126
9.808742462279044,0.012406208788643534
9.817369324602948,0.010561785401458398
9.825996186926853,0.012466693836446266
9.834623049250757,0.020130174092126116
9.843249911574661,0.0323603618095434
9.851876773898564,0.03985911669698855
9.860503636222468,0.033890902043550164
9.869130498546372,0.019532688058172626
9.877757360870277,0.01207245244807335
9.886384223194181,0.02245662767246557
9.895011085518085,0.04688891816852662
9.903637947841991,0.06775958729539634
9.912264810165894,0.07118331540926769
9.920891672489798,0.06033497019038643
9.929518534813703,0.044880648213564
9.938145397137607,0.029560897481974366
9.946772259461511,0.016986512134308025
9.955399121785415,0.010140604089232383
9.96402598410932,0.011672162629261174
9.972652846433222,0.023250757560776807
9.981279708757127,0.04050263071147158
9.98990657108103,0.050832235080964266
9.998533433404935,0.04399328792167918
10.00716029572884,0.02296885857103863
10.015787158052744,0.0012677675381432604
10.024414020376648,-0.00760908771985313
10.033040882700552,0.0015496804851329847
10.041667745024457,0.021661133544838493
10.050294607348361,0.036025719154110916
10.058921469672265,0.03309619203802329
10.06754833199617,0.01837393876811139
10.076175194320074,0.005095875847175205
10.084802056643978,0.0003578430833710371
10.09342891896788,0.0036378437715101747
10.102055781291785,0.010420408765825017
10.11068264361569,0.015873546951439874
10.119309505939594,0.01754186014993505
10.127936368263498,0.015618065738418188
10.136563230587402,0.012139473997108557
10.145190092911307,0.008449358685302128
10.153816955235209,0.0026982112498156238
10.162443817559115,-0.007412125328025094
10.17107067988302,-0.019728616368722317
10.179697542206924,-0.02955940613218199
10.188324404530828,-0.03525874247456224
10.196951266854732,-0.03736860749292685
10.205578129178637,-0.03537348949147694
10.214204991502541,-0.028978778236227982
10.222831853826444,-0.019467353452416403
10.231458716150348,-0.008544931025274316
10.240085578474252,0.0039875515480514954
10.248712440798156,0.021482168994448957
10.25733930312206,0.04430287249018905
10.265966165445965,0.06278248158699719
10.27459302776987,0.0662969244711854
10.283219890093772,0.05715082886812332
10.291846752417676,0.045709153990080534
10.300473614741582,0.036912906757966386
10.309100477065487,0.0285993925296987
10.317727339389391,0.01921491424435677
10.326354201713295,0.011626365310263943
10.3349810640372,0.009545637040452531
10.343607926361102,0.011806799294867306
10.352234788685006,0.010725752346923322
10.36086165100891,0.0009627634896206194
10.369488513332815,-0.012008526761767814
10.37811537565672,-0.0191399436354845
10.386742237980624,-0.01817639638292118
10.395369100304528,-0.013286302774632082
10.40399596262843,-0.01050076978625531
10.412622824952335,-0.01312629164206566
10.421249687276239,-0.01737737191136208
10.429876549600145,-0.01506485300832562
10.43850341192405,-0.0014674233010633637
10.447130274247954,0.02007554854163825
10.455757136571858,0.038824290379839164
10.46438399889576,0.04456004283014371
10.473010861219665,0.03535547808269863
10.48163772354357,0.015635722007587408
10.490264585867473,-0.007868022160390065
10.498891448191378,-0.027166322428145616
10.507518310515282,-0.036743801607927125
10.516145172839186,-0.03761695885154179
10.524772035163089,-0.034307353958455446
10.533398897486993,-0.02902465317622563
10.542025759810898,-0.02133795106459351
10.550652622134802,-0.012105957428411767
10.559279484458708,-0.004926010654388358
10.567906346782612,-0.0020081206011933962
10.576533209106517,-0.0011263417626051553
10.585160071430419,-0.00020593016594039261
10.593786933754323,-0.0010226397429875423
10.602413796078228,-0.004837718635916577
10.611040658402132,-0.009409754788944976
10.619667520726036,-0.011565976137678922
10.62829438304994,-0.009304571750593627
10.636921245373845,-0.0026324494830159773
10.645548107697747,0.005456599821904567
10.654174970021652,0.009693379728292826
10.662801832345556,0.00678528406590126
10.67142869466946,-0.000811233126759534
10.680055556993365,-0.005923811306049915
10.68868241931727,-0.0012914172346751528
10.697309281641175,0.012389212186647928
10.705936143965078,0.023891672848552495
10.714563006288982,0.024764389156376437
10.723189868612886,0.02007094732056706
10.73181673093679,0.019206355761470305
10.740443593260695,0.02397776180930504
10.749070455584599,0.029252679210564653
10.757697317908503,0.029349762030786965
10.766324180232406,0.0216063771497789
10.77495104255631,0.00778147389353319
10.783577904880215,-0.005565504369807123
10.792204767204119,-0.012880381041691664
10.800831629528023,-0.015752697292447045
10.809458491851927,-0.017125506088702898
10.818085354175832,-0.014250541285157282
10.826712216499738,-0.005152933335003645
10.83533907882364,0.004121876022543288
10.843965941147545,0.006698789212061998
10.852592803471449,0.003779271948392962
10.861219665795353,0.0004755464227645297
10.869846528119258,-0.0017982772207945767
10.878473390443162,-0.005127523822170778
10.887100252767066,-0.010486694510584217
10.895727115090969,-0.014943992050564478
10.904353977414873,-0.013358374515784002
10.912980839738777,-0.0037778113726216417
10.921607702062682,0.00979891249637707
10.930234564386586,0.021920447617024927
10.93886142671049,0.030466357633124285
10.947488289034395,0.03369796913636036
10.956115151358299,0.026732613806764435
10.964742013682203,0.008129918614323587
10.973368876006107,-0.014098374141155074
10.981995738330012,-0.029816160053841925
10.990622600653916,-0.0347028084458675
10.99924946297782,-0.027593899621476355
11.007876325301725,-0.006795278895886464
11.016503187625627,0.02413878618135608
11.025130049949531,0.050609761565831524
11.033756912273436,0.05830995392576573
11.04238377459734,0.04831064372473704
11.051010636921244,0.031593911968635036
11.059637499245149,0.0146222372603634
11.068264361569053,-0.001678271605836995
11.076891223892956,-0.015493696995040458
11.085518086216862,-0.024504887119330805
11.094144948540766,-0.028222684546088783
11.10277181086467,-0.026340659753978986
11.111398673188575,-0.01885183464923231
11.120025535512479,-0.008026899669690158
11.128652397836383,0.0021904487470785924
11.137279260160286,0.009373653706752383
11.14590612248419,0.014090805966297328
11.154532984808094,0.0159688591464856
11.163159847131999,0.013390692854529226
11.171786709455903,0.00981413053311395
11.180413571779807,0.011190046129445241
11.189040434103712,0.016854764620062294
11.197667296427614,0.02108959221177333
11.206294158751518,0.02010390549558407
11.214921021075424,0.013211838918607591
11.223547883399329,0.0026271571147303227
11.232174745723233,-0.0058167352967184935
11.240801608047137,-0.004098135078199982
11.249428470371042,0.011955820150194151
11.258055332694944,0.03221132375383908
11.266682195018848,0.03366352280287224
11.275309057342753,0.0047025602505015186
11.283935919666657,-0.03635676262061106
11.292562781990561,-0.05637830382120997
11.301189644314466,-0.036252694333058666
11.30981650663837,0.018730651855407843
11.318443368962274,0.08603441222166418
11.327070231286177,0.1351584391744435
11.335697093610081,0.14172098080502607
11.344323955933987,0.10359784457525723
11.352950818257892,0.042278759760204385
11.361577680581796,-0.010024358217438039
11.3702045429057,-0.029364018567564182
11.378831405229604,-0.017516820095030826
11.387458267553507,0.0018083927864746283
11.396085129877411,0.010136803067538556
11.404711992201316,0.009054010888321085
11.41333885452522,0.005698083046663518
11.421965716849124,-0.00044182426593356353
11.430592579173029,-0.01048392697851024
11.439219441496933,-0.01740157771831482
11.447846303820835,-0.011132159457162227
11.45647316614474,0.012260215031662934
11.465100028468644,0.04931931658074936
11.47372689079255,0.08743001941323514
11.482353753116454,0.10405265256957184
11.490980615440359,0.08658315512485094
11.499607477764263,0.04875889230767739
11.508234340088165,0.012346120689188436
11.51686120241207,-0.013032129113638415
11.525488064735974,-0.02823211187988832
11.534114927059878,-0.038124837965315364
11.542741789383783,-0.047154514797942575
11.551368651707687,-0.057611952091257676
11.559995514031591,-0.0696106999091117
11.568622376355494,-0.08142389797979938
11.577249238679398,-0.09595205303560722
11.585876101003302,-0.12252979348346717
11.594502963327207,-0.15783171199425192
11.603129825651111,-0.17447392495068975
11.611756687975017,-0.15273804463061727
11.620383550298921,-0.10982261156116538
11.629010412622824,-0.07571636316558918
11.637637274946728,-0.06081445544380372
11.646264137270633,-0.05641497231331729
11.654890999594537,-0.047497294594884484
11.663517861918441,-0.024330615291777352
11.672144724242346,0.010912436797962683
11.68077158656625,0.046488842859646266
11.689398448890152,0.06636920140195626
11.698025311214057,0.06081968588837151
11.706652173537961,0.03756748510580303
11.715279035861865,0.015433306873421097
11.72390589818577,0.007909584472503813
11.732532760509674,0.017095899441736458
11.74115962283358,0.035117218333135095
11.749786485157482,0.0470602421911045
11.758413347481387,0.043067977076653545
11.767040209805291,0.028905194425964332
11.775667072129195,0.01590377768256815
11.7842939344531,0.007802932560182587
11.792920796777004,0.005598980276989971
11.801547659100908,0.014210585897984638
11.81017452142481,0.03543922346072045
11.818801383748715,0.05959000423123655
11.82742824607262,0.06976270033404337
11.836055108396524,0.05702037963486814
11.844681970720428,0.02909034626639406
11.853308833044332,-0.0004908320452246808
11.861935695368237,-0.025490544823805732
11.870562557692141,-0.04571016983849111
11.879189420016045,-0.06094842273127032
11.88781628233995,-0.06695695115944723
11.896443144663854,-0.056090965765450015
11.905070006987758,-0.029767827526910713
11.913696869311662,-0.006168360747269379
11.922323731635567,-0.0017067519220601076
11.930950593959471,-0.012215358973786132
11.939577456283374,-0.022962287416182933
11.948204318607278,-0.025394548622352103
11.956831180931182,-0.018802389085355278
11.965458043255087,-0.006336795614959347
11.97408490557899,0.0073909861170363515
11.982711767902895,0.01821444000817283
11.9913386302268,0.023282313358107296
11.999965492550704,0.022012143584156124
12.008592354874608,0.01610023767476989
12.017219217198512,0.0068599794447617764
12.025846079522417,-0.005407214186813289
12.034472941846321,-0.019212096066736614
12.043099804170225,-0.03187262640981972
12.05172666649413,-0.04075097848619019
12.060353528818032,-0.043381308954506655
12.068980391141936,-0.0391288262065391
12.07760725346584,-0.03179810509982417
12.086234115789745,-0.02766416712079051
12.09486097811365,-0.029030558441027293
12.103487840437554,-0.03141735164413282
12.112114702761458,-0.02847557532645087
12.12074156508536,-0.018139932602356825
12.129368427409267,-0.003596973005731823
12.13799528973317,0.010320780293428044
12.146622152057075,0.020593799343225663
12.15524901438098,0.02572402702379064
12.163875876704884,0.024994361663601267
12.172502739028788,0.020062703191466132
12.18112960135269,0.013660316413897212
12.189756463676595,0.005039909693586047
12.1983833260005,-0.008341587086395768
12.207010188324404,-0.024603277442114452
12.215637050648308,-0.03785851491229348
12.224263912972212,-0.04240389512508796
12.232890775296116,-0.03535787995850063
12.241517637620019,-0.020231139529193636
12.250144499943923,-0.006589784753718528
12.25877136226783,-0.0012866382430874526
12.267398224591734,-0.0013486674499034867
12.276025086915638,0.001082153997634912
12.284651949239542,0.008090057562638173
12.293278811563447,0.01483300682605856
12.30190567388735,0.018900312325508598
12.310532536211253,0.022460897220250808
12.319159398535158,0.024502672567612196
12.327786260859062,0.021583724492402236
12.336413123182966,0.013780232260017108
12.34503998550687,0.0027389828943043667
12.353666847830775,-0.009427830409071691
12.362293710154677,-0.019231612703212306
12.370920572478582,-0.025112734683409806
12.379547434802486,-0.026114710540444896
12.38817429712639,-0.01810026624470451
12.396801159450296,0.0004867065508183592
12.4054280217742,0.02370586066274106
12.414054884098105,0.044513772676589625
12.42268174642201,0.0571505584936124
12.431308608745912,0.05468877102563043
12.439935471069816,0.04091658792943751
12.44856233339372,0.03905244495862986
12.457189195717625,0.07141825882658086
12.46581605804153,0.12847791065157263
12.474442920365433,0.1660878240120705
12.483069782689338,0.1498138041402004
12.49169664501324,0.092640634018163
12.500323507337145,0.031242894964763568
12.508950369661049,-0.01004705222176612
12.517577231984953,-0.02355632999905987
12.52620409430886,-0.013674293477004117
12.534830956632764,0.0059770296257919825
12.543457818956668,0.02021395903111287
12.55208468128057,0.022199936679666243
12.560711543604475,0.015975506743175667
12.569338405928379,0.008293544026901419
12.577965268252283,0.0016003800095129893
12.586592130576188,-0.002603444786341511
12.595218992900092,0.0006108400736721271
12.603845855223996,0.012604425860082898
12.612472717547899,0.0216121567426141
12.621099579871803,0.01141699429012029
12.629726442195707,-0.019315247073391103
12.638353304519612,-0.05361949151751635
12.646980166843516,-0.07024060442193152
12.655607029167422,-0.061198438999505556
12.664233891491326,-0.037939884678508576
12.672860753815229,-0.01876024762404606
12.681487616139133,-0.013293324201698794
12.690114478463038,-0.018954145163313136
12.698741340786942,-0.027420159741974957
12.707368203110846,-0.03228767994692608
12.71599506543475,-0.03112741416365673
12.724621927758655,-0.026044523530927132
12.733248790082557,-0.02400435705292099
12.741875652406462,-0.029270745899337616
12.750502514730366,-0.03645498205687138
12.75912937705427,-0.03757787474816125
12.767756239378174,-0.03096976887706418
12.776383101702079,-0.019650787480780557
12.785009964025985,-0.00778444849010409
12.793636826349887,0.00041407642719239277
12.802263688673792,0.004310539528939602
12.810890550997696,0.007938472677400155
12.8195174133216,0.013012870502811849
12.828144275645505,0.01580355465964372
12.836771137969409,0.013865708158039473
12.845398000293313,0.009453396144631162
12.854024862617216,0.0046358047558912405
12.86265172494112,-0.001327039235870155
12.871278587265024,-0.008203389169490717
12.879905449588929,-0.013931918732609974
12.888532311912833,-0.018579506255199517
12.897159174236737,-0.023110339756516288
12.905786036560642,-0.02522452485047483
12.914412898884546,-0.02238650582495528
12.92303976120845,-0.01670845297785773
12.931666623532355,-0.012823791356795207
12.940293485856259,-0.012750060284634391
12.948920348180163,-0.013829193769714249
12.957547210504067,-0.011404772337769927
12.966174072827972,-0.004290481775881596
12.974800935151874,0.003134263432037919
12.983427797475779,0.004610285844744946
12.992054659799683,-0.0023847516453679336
13.000681522123587,-0.013442729257271843
13.009308384447491,-0.020164682569135825
13.017935246771396,-0.017949240735718606
13.0265621090953,-0.009883214841199188
13.035188971419204,-0.0021357365674785217
13.043815833743107,0.002155151155892878
13.052442696067013,0.003622160399385747
13.061069558390917,0.0035447331094235575
13.069696420714822,0.0021281666581550378
13.078323283038726,0.00085270574725426
13.08695014536263,0.0022957864175366847
13.095577007686535,0.004101119750753981
13.104203870010437,-0.002187087665954194
13.112830732334341,-0.022599173068960546
13.121457594658246,-0.049862889339293136
13.13008445698215,-0.06464164426102798
13.138711319306054,-0.05671551670443171
13.147338181629959,-0.03798744065081844
13.155965043953863,-0.02577618579750339
13.164591906277765,-0.025274492929367617
13.17321876860167,-0.030137063573108254
13.181845630925576,-0.030222955108687968
13.19047249324948,-0.02162567367306918
13.199099355573384,-0.00960392745183134
13.207726217897289,-0.00016649001667097454
13.216353080221193,0.0047482356516829445
13.224979942545096,0.00700106476531738
13.233606804869,0.011703306674516313
13.242233667192904,0.021033155584153838
13.250860529516808,0.029363664337264957
13.259487391840713,0.029893965703568334
13.268114254164617,0.025542808098104927
13.276741116488521,0.0291662908042225
13.285367978812424,0.05025288420527822
13.293994841136328,0.08349548537962172
13.302621703460233,0.11083490860189017
13.311248565784139,0.11314719708341896
13.319875428108043,0.08584600733777248
13.328502290431947,0.04423109910023681
13.337129152755852,0.0076969978743696
13.345756015079754,-0.015876047204614017
13.354382877403658,-0.028341619173864473
13.363009739727563,-0.033339273152296955
13.371636602051467,-0.03251311102062656
13.380263464375371,-0.02693139353099683
13.388890326699276,-0.019112723623262464
13.39751718902318,-0.01232857568959618
13.406144051347082,-0.008674780708621967
13.414770913670987,-0.00780247811990137
13.423397775994891,-0.00812492509605612
13.432024638318795,-0.00836567554628395
13.440651500642701,-0.008134871296680219
13.449278362966606,-0.008703930040739811
13.45790522529051,-0.011579153722029202
13.466532087614413,-0.015500172176262783
13.475158949938317,-0.015947188255995573
13.483785812262221,-0.007022128809268682
13.492412674586125,0.01329258270816886
13.50103953691003,0.037334689751022075
13.509666399233934,0.05270751506127093
13.518293261557838,0.05240614821946092
13.526920123881743,0.03732225307851229
13.535546986205645,0.015367339340605999
13.54417384852955,-0.0017496735214475364
13.552800710853454,-0.006554654102808332
13.561427573177358,-0.0008259936713155256
13.570054435501262,0.008456773931664921
13.578681297825169,0.01444901435925219
13.587308160149073,0.011112489964222023
13.595935022472975,-0.0021947026448065634
13.60456188479688,-0.01678391581023391
13.613188747120784,-0.021159749866601713
13.621815609444688,-0.0077342947026379375
13.630442471768593,0.023904537185026345
13.639069334092497,0.06288492853948831
13.647696196416401,0.09047163440304277
13.656323058740304,0.09308667478177765
13.664949921064208,0.07008505201158692
13.673576783388112,0.032848976562351015
13.682203645712017,0.0004269219653477412
13.690830508035921,-0.013866754856052465
13.699457370359825,-0.013621668072168327
13.708084232683731,-0.010070381725365988
13.716711095007634,-0.007857206778007981
13.725337957331538,-0.006088601756038908
13.733964819655442,-0.004979679253224744
13.742591681979347,-0.00612432526506813
13.751218544303251,-0.010953236616115235
13.759845406627155,-0.01868857716894705
13.76847226895106,-0.0245146564479109
13.777099131274962,-0.023878456568448263
13.785725993598867,-0.018304837551759323
13.79435285592277,-0.013280598792986669
13.802979718246675,-0.010874008416987836
13.81160658057058,-0.008912655662127563
13.820233442894484,-0.0076447966052607084
13.828860305218388,-0.01007888590359524
13.837487167542292,-0.015416549682061942
13.846114029866197,-0.019011643321022332
13.854740892190101,-0.017230408640356052
13.863367754514005,-0.008052367663119949
13.87199461683791,0.008473738003537266
13.880621479161814,0.026045724800191603
13.889248341485718,0.033562756289067866
13.89787520380962,0.02683099505933039
13.906502066133525,0.015195602558816974
13.91512892845743,0.0101435152803552
13.923755790781334,0.012246917025580695
13.932382653105238,0.014321709206668247
13.941009515429142,0.009905899660633256
13.949636377753047,-0.0023730732580822976
13.958263240076949,-0.016190290435251994
13.966890102400855,-0.02149989375373118
13.97551696472476,-0.01276808042106659
13.984143827048664,0.007500032278675511
13.992770689372568,0.02893849077426893
14.001397551696472,0.03859489051243864
14.010024414020377,0.03347051320314681
14.01865127634428,0.023589428166662315
14.027278138668184,0.016999572228947872
14.035905000992088,0.011202178176838114
14.044531863315992,0.0016790203723000942
14.053158725639896,-0.011751040240647423
14.0617855879638,-0.026016228421314347
14.070412450287705,-0.03587568832127172
14.079039312611608,-0.03639649075398836
14.087666174935512,-0.027974004855452057
14.096293037259418,-0.017568827518467833
14.104919899583322,-0.011739690097791489
14.113546761907227,-0.010212549575683794
14.12217362423113,-0.007967772756138598
14.130800486555035,-0.00030329338009208785
14.13942734887894,0.013459698824234402
14.148054211202842,0.029381866993184156
14.156681073526746,0.04326056533374549
14.16530793585065,0.051790885845497465
14.173934798174555,0.04883488245683614
14.18256166049846,0.03134222896950902
14.191188522822364,0.008077790092593476
14.199815385146268,-0.008721644570975295
14.20844224747017,-0.01569387860048186
14.217069109794075,-0.016928851362124058
14.225695972117979,-0.016449937215201133
14.234322834441885,-0.015071277032339023
14.24294969676579,-0.013128235102355234
14.251576559089694,-0.012919280166219693
14.260203421413598,-0.01615253179928866
14.2688302837375,-0.020822455576311693
14.277457146061405,-0.021154406495159282
14.28608400838531,-0.010679676764257896
14.294710870709213,0.011915282943583398
14.303337733033118,0.037310883767102995
14.311964595357022,0.048400540180541
14.320591457680926,0.03578971081639998
14.329218320004829,0.00899680464357848
14.337845182328733,-0.01294274182675589
14.346472044652637,-0.01844377993104629
14.355098906976542,-0.010596325716628725
14.363725769300448,-0.0005234705415348316
14.372352631624352,0.004826991852870954
14.380979493948256,0.005799498346178826
14.389606356272159,0.005752360033157279
14.398233218596063,0.007824647206341758
14.406860080919968,0.01139674009068995
14.415486943243872,0.011393475914935296
14.424113805567776,0.005198042083338886
14.43274066789168,-0.002729042130340943
14.441367530215585,-0.0080758087966447
14.449994392539487,-0.01471997871006649
14.458621254863392,-0.029527804417496258
14.467248117187296,-0.049149117364116056
14.4758749795112,-0.05903998073343059
14.484501841835105,-0.0518720881644618
14.49312870415901,-0.038292111111434414
14.501755566482915,-0.03259180691777949
14.510382428806818,-0.03853400725778771
14.519009291130722,-0.05075420550662216
14.527636153454626,-0.059967001271948275
14.53626301577853,-0.05932514229371821
14.544889878102435,-0.05022122183763056
14.553516740426339,-0.039832861324573254
14.562143602750243,-0.033220613152660054
14.570770465074146,-0.02847620097305855
14.57939732739805,-0.02115119301705119
14.588024189721954,-0.012106541392564469
14.596651052045859,-0.00640642887342917
14.605277914369763,-0.007119827935792001
14.613904776693667,-0.012574338541352972
14.622531639017573,-0.01688650033988506
14.631158501341478,-0.0143284304941303
14.63978536366538,-0.0045243631784321284
14.648412225989285,0.007563957670166292
14.657039088313189,0.015521760768122499
14.665665950637093,0.015182361161731956
14.674292812960998,0.006318978685292171
14.682919675284902,-0.007554554844426376
14.691546537608806,-0.020340949092851307
14.700173399932709,-0.026245975063940264
14.708800262256613,-0.023433772048695806
14.717427124580517,-0.015197349144545694
14.726053986904422,-0.0071386598495429806
14.734680849228326,-0.0024699580899771078
14.74330771155223,-0.0010077416469000586
14.751934573876134,-0.0019616648108072153
14.760561436200039,-0.004363676890527385
14.769188298523943,-0.00693042157504831
14.777815160847847,-0.010946881281115772
14.786442023171752,-0.020056625418582694
14.795068885495656,-0.03293464473711025
14.80369574781956,-0.03787701109462009
14.812322610143465,-0.023065841488173696
14.820949472467367,0.006680599678879874
14.829576334791271,0.03284210233753913
14.838203197115176,0.042734656252336904
14.84683005943908,0.036438152672424576
14.855456921762984,0.015949127609893452
14.864083784086889,-0.020204091768621108
14.872710646410793,-0.07042034069210308
14.881337508734697,-0.1193264928809063
14.889964371058602,-0.13540400940959904
14.898591233382506,-0.09891739995500808
14.90721809570641,-0.03181716442307515
14.915844958030315,0.022236842746873542
14.924471820354219,0.04337596561337033
14.933098682678123,0.04882363376669168
14.941725545002026,0.06860487976504562
14.95035240732593,0.11661436264302087
14.958979269649834,0.17404852030666396
14.967606131973739,0.19668133103279786
14.976232994297643,0.15981173530258452
14.984859856621547,0.08865527569642592
14.993486718945451,0.024662257617658136
15.002113581269354,-0.013817930303196276
15.010740443593258,-0.029708858514211667
15.019367305917164,-0.03201448301446135
15.027994168241069,-0.026500065158543834
15.036621030564973,-0.01405075903914153
15.045247892888877,0.004089478741754188
15.053874755212782,0.021825040598664344
15.062501617536684,0.02968318791905474
15.071128479860588,0.02087202322458009
15.079755342184493,-0.0043559358114737354
15.088382204508397,-0.03866171511789322
15.097009066832301,-0.06768534176186884
15.105635929156206,-0.07522775200016314
15.11426279148011,-0.05858744779448376
15.122889653804013,-0.032434621021324786
15.131516516127917,-0.01190039430282909
15.140143378451821,-0.0018719437284319001
15.148770240775727,-0.0011566763948613452
15.157397103099632,-0.005807406139942117
15.166023965423536,-0.010065817269557392
15.17465082774744,-0.01065522712073723
15.183277690071343,-0.009021331315797314
15.191904552395247,-0.007583778721740476
15.200531414719151,-0.007449795400220298
15.209158277043056,-0.010321295448731676
15.21778513936696,-0.018524291588870038
15.226412001690864,-0.032443880201306154
15.235038864014768,-0.04978173487930691
15.243665726338673,-0.06509278253367395
15.252292588662575,-0.0694973038289214
15.26091945098648,-0.05763508405520089
15.269546313310384,-0.034711593022670045
15.27817317563429,-0.01145329680780532
15.286800037958194,0.004446520744686945
15.295426900282099,0.010054851098502585
15.304053762606003,0.006039158024724291
15.312680624929905,-0.0023150735824348425
15.32130748725381,-0.0063867653586876655
15.329934349577714,-0.002034488727558069
15.338561211901618,0.005503798047865103
15.347188074225523,0.00782649361655884
15.355814936549427,0.0034039168264720634
15.364441798873331,0.0005332498032619014
15.373068661197234,0.009544303870642276
15.381695523521138,0.029897532684999315
15.390322385845042,0.04734164639113999
15.398949248168947,0.049568814094389
15.407576110492853,0.03943098765804695
15.416202972816757,0.0261755739598449
15.424829835140661,0.014276725131296051
15.433456697464564,0.005426648499799148
15.442083559788468,-0.0008942561020921603
15.450710422112373,-0.009120645464616753
15.459337284436277,-0.020294132232250347
15.467964146760181,-0.027592628850558538
15.476591009084085,-0.024077738181980852
15.48521787140799,-0.008543410447533456
15.493844733731892,0.014664697843353601
15.502471596055797,0.035799026052425326
15.511098458379701,0.04514368986728907
15.519725320703605,0.0404851983643968
15.52835218302751,0.0257488541103683
15.536979045351414,0.00640525060705196
15.54560590767532,-0.011323116192880199
15.554232769999222,-0.02149766893606156
15.562859632323127,-0.02127971268846516
15.571486494647031,-0.01215618488377891
15.580113356970935,0.0011332533763506202
15.58874021929484,0.01312932912257552
15.597367081618744,0.020605190415329867
15.605993943942648,0.02233221007487142
15.61462080626655,0.016277182110853303
15.623247668590455,0.0013712380540719057
15.631874530914361,-0.016940130624981217
15.640501393238265,-0.026620333641861168
15.649128255562166,-0.015939562351523707
15.65775511788607,0.018472873533680028
15.666381980209977,0.06551870946338703
15.675008842533881,0.10036050336199094
15.683635704857785,0.10311836418460564
15.69226256718169,0.08019045520793688
15.700889429505594,0.053184450580584144
15.709516291829498,0.03218553200576997
15.718143154153402,0.013775031109730582
15.726770016477307,-0.004220483311540323
15.735396878801211,-0.017252611500816934
15.744023741125115,-0.020717535220672628
15.75265060344902,-0.015948629139283785
15.761277465772924,-0.008426566889737176
15.769904328096825,-0.003624547186394436
15.778531190420729,-0.0036081614591045664
15.787158052744633,-0.005743106425257391
15.795784915068538,-0.006526637224992886
15.804411777392444,-0.005927171521613329
15.813038639716348,-0.006272488020268476
15.821665502040252,-0.007955009515359778
15.830292364364157,-0.00799804707005333
15.838919226688061,-0.003657981696250586
15.847546089011965,0.004925906521928555
15.85617295133587,0.018086111045502253
15.864799813659774,0.034943049807911415
15.873426675983678,0.04697896526582746
15.882053538307582,0.04700300199486225
15.890680400631483,0.04096359676968322
15.899307262955388,0.040509696752798426
15.907934125279292,0.049914513528594905
15.916560987603196,0.06044998695853679
15.9251878499271,0.05621438822161117
15.933814712251007,0.03315091902290036
15.94244157457491,0.00738444910911516
15.951068436898815,-0.0025446554153877284
15.95969529922272,0.006268735459981679
15.968322161546624,0.021346409813173275
15.976949023870528,0.025807664119704986
15.985575886194432,0.011813982280519367
15.994202748518337,-0.01295144441414081
16.00282961084224,-0.03204961860408216
16.011456473166145,-0.034271701107964195
16.020083335490046,-0.022336680690801414
16.02871019781395,-0.008096327328554241
16.037337060137855,-0.0010447876996634866
16.04596392246176,-0.003120624116338201
16.054590784785663,-0.011124425402904273
16.063217647109568,-0.019021718914913693
16.071844509433472,-0.020082208011620764
16.080471371757376,-0.012785318626567382
16.08909823408128,-0.003110991969777195
16.097725096405185,0.0014660158574178453
16.10635195872909,-0.0022285390819042307
16.114978821052993,-0.012557680696229666
16.123605683376898,-0.024294646541140406
16.132232545700806,-0.030368494419367818
16.140859408024706,-0.027041684526568473
16.14948627034861,-0.01822395759785539
16.158113132672515,-0.011886482069079928
16.16673999499642,-0.014565235896113403
16.175366857320324,-0.029137515901914317
16.183993719644228,-0.049392557986487715
16.192620581968132,-0.058685120788424534
16.201247444292036,-0.04662933894927649
16.20987430661594,-0.02244467015703531
16.218501168939845,-0.0014288167430093236
16.22712803126375,0.011778093697155875
16.235754893587654,0.021177549351829264
16.244381755911558,0.029758824084066916
16.253008618235462,0.03523596982405867
16.261635480559363,0.035361057028975414
16.270262342883267,0.03334012616331802
16.27888920520717,0.03265505290681403
16.287516067531076,0.0307401676587214
16.29614292985498,0.02271789201568217
16.304769792178885,0.01018031353209098
16.31339665450279,0.001397295404840443
16.322023516826693,0.001053155467946101
16.330650379150597,0.005643431532784035
16.339277241474502,0.009279831849639975
16.347904103798406,0.008448783409347476
16.35653096612231,0.004192515813925801
16.365157828446215,0.0018260384209962516
16.37378469077012,0.005467012597970044
16.38241155309402,0.014843157839165176
16.391038415417928,0.02584790491348881
16.399665277741832,0.03127144694754669
16.408292140065736,0.025984823687338954
16.41691900238964,0.012337530230785055
16.425545864713545,-0.002542082692203216
16.43417272703745,-0.012708001455186416
16.442799589361353,-0.01538970618072289
16.451426451685258,-0.010586250837820641
16.460053314009162,-0.0014885934761558676
16.468680176333066,0.006740351569621722
16.47730703865697,0.009661452048959587
16.485933900980875,0.004855741862824987
16.49456076330478,-0.005089263827911706
16.50318762562868,-0.011996760401310428
16.511814487952584,-0.009873632276798168
16.52044135027649,-0.00023579482971020083
16.529068212600393,0.011765185139110054
16.537695074924297,0.022566279217209075
16.5463219372482,0.031660550607474004
16.554948799572106,0.03844532394050508
16.56357566189601,0.03941249552116198
16.572202524219914,0.032955885256731515
16.58082938654382,0.02335561645155662
16.589456248867723,0.015706922471376457
16.598083111191627,0.0119480344704365
16.60670997351553,0.012794677531049228
16.615336835839436,0.019156712670882325
16.62396369816334,0.029617380803822122
16.63259056048724,0.03739616131775465
16.641217422811145,0.03604266209566212
16.649844285135053,0.028130577835177386
16.658471147458958,0.022041982450886326
16.667098009782862,0.022504685294722555
16.675724872106766,0.026824181411894438
16.68435173443067,0.02817532283798527
16.692978596754575,0.021896226384923573
16.70160545907848,0.008917132385444523
16.710232321402383,-0.005768059912453471
16.718859183726288,-0.016824920056543412
16.727486046050192,-0.021679009309259388
16.736112908374096,-0.022841036661224237
16.744739770698,-0.029535101177849826
16.7533666330219,-0.054801529867532534
16.761993495345806,-0.10379831051581119
16.77062035766971,-0.15758088174404167
16.779247219993614,-0.17683751546202076
16.78787408231752,-0.14234963946203072
16.796500944641423,-0.08102915050259732
16.805127806965327,-0.03354714827211004
16.81375466928923,-0.0181729531859144
16.822381531613136,-0.032421883142694646
16.83100839393704,-0.061249772932523344
16.839635256260944,-0.08047865296763726
16.84826211858485,-0.0726462445697396
16.856888980908753,-0.04079044312977517
16.865515843232657,0.0005212055006692485
16.874142705556558,0.038152201472476936
16.882769567880462,0.061175450645461385
16.891396430204367,0.06458238812681821
16.90002329252827,0.05754932571427114
16.908650154852175,0.05653083404339028
16.917277017176083,0.06704504773769097
16.925903879499987,0.07916030663225151
16.93453074182389,0.07987962502682895
16.943157604147796,0.06053148167276646
16.9517844664717,0.016768800463472892
16.960411328795605,-0.03867767774836006
16.96903819111951,-0.07244321649361561
16.977665053443413,-0.06601095195473039
16.986291915767318,-0.037891713825322526
16.99491877809122,-0.013943655890289746
17.003545640415123,-0.0016812021157140574
17.012172502739027,0.0032870197943966617
17.02079936506293,0.007496726098614064
17.029426227386836,0.012351542254655639
17.03805308971074,0.009668528718806494
17.046679952034644,-0.007973228269452005
17.05530681435855,-0.03472790639120603
17.063933676682453,-0.05467339124706596
17.072560539006357,-0.052861133663682676
17.08118740133026,-0.0285581942218706
17.089814263654166,-0.0004997370089162619
17.09844112597807,0.012644737221004197
17.107067988301974,0.010616873774532978
17.115694850625875,0.002244341841658381
17.12432171294978,-0.007782470711023291
17.132948575273684,-0.017400266598296216
17.141575437597588,-0.02311440031327877
17.150202299921492,-0.023172744476175903
17.158829162245397,-0.021522655070897016
17.1674560245693,-0.02438629438102912
17.176082886893205,-0.031055906813784284
17.184709749217113,-0.030502963101005715
17.193336611541017,-0.012844567507262846
17.20196347386492,0.020806553017536658
17.210590336188826,0.06309922127994783
17.21921719851273,0.0997546905078834
17.227844060836635,0.10667188877349136
17.23647092316054,0.07238659005552137
17.24509778548444,0.018634629279965946
17.253724647808344,-0.019304336310102276
17.262351510132248,-0.02497104905868526
17.270978372456153,-0.008839204086394676
17.279605234780057,0.006210344053580831
17.28823209710396,0.0037715557175329855
17.296858959427865,-0.01787372552431083
17.30548582175177,-0.049401708836692954
17.314112684075674,-0.07602764063604169
17.32273954639958,-0.08313511721155815
17.331366408723483,-0.06744712702269862
17.339993271047387,-0.040804388914049375
17.34862013337129,-0.017099531912993786
17.357246995695196,-0.0016710045913369315
17.365873858019096,0.006902311072024827
17.374500720343,0.011985273312947941
17.383127582666905,0.016030988459944173
17.39175444499081,0.019021055167681874
17.400381307314714,0.018369503327288546
17.409008169638618,0.013471991908269204
17.417635031962522,0.008110952426210231
17.426261894286426,0.0036554609173011995
17.43488875661033,-0.003380132832429843
17.44351561893424,-0.013847737088171065
17.452142481258143,-0.022412581951596608
17.460769343582047,-0.022828426995083615
17.46939620590595,-0.013847505431305869
17.478023068229856,0.0006377848689247552
17.486649930553757,0.014769953281935016
17.49527679287766,0.022902673142501353
17.503903655201565,0.022263010447195898
17.51253051752547,0.016583642124385622
17.521157379849374,0.013443153469033436
17.529784242173278,0.014839710568486077
17.538411104497182,0.01562688344865507
17.547037966821087,0.01331945815492322
17.55566482914499,0.011560917001269445
17.564291691468895,0.011094318356918422
17.5729185537928,0.005976902034724886
17.581545416116704,-0.007601659300011995
17.59017227844061,-0.025050618922640933
17.598799140764513,-0.037169582444659004
17.607426003088413,-0.03784797092436444
17.616052865412318,-0.0292508924941604
17.624679727736222,-0.018612522165568815
17.633306590060126,-0.010105775050111301
17.64193345238403,-0.0026830983075151575
17.650560314707935,0.0061116628365887
17.65918717703184,0.01760012755117414
17.667814039355743,0.029934694091864
17.676440901679648,0.036153421153266314
17.685067764003552,0.02989479841722357
17.693694626327456,0.013111648346279798
17.702321488651364,-0.006153982501454439
17.71094835097527,-0.01987565324098363
17.719575213299173,-0.023534655242774708
17.728202075623077,-0.018260768107780066
17.736828937946978,-0.009802301207796094
17.745455800270882,-0.004120652106070749
17.754082662594787,-0.0030757653907098376
17.76270952491869,-0.0031630002859805452
17.771336387242595,0.0015727379954994874
17.7799632495665,0.012131608781651974
17.788590111890404,0.01917899902462127
17.797216974214308,0.013260362784376764
17.805843836538212,5.271042418844053e-05
17.814470698862117,-0.007295285237859514
17.82309756118602,-0.004950601472119024
17.831724423509925,0.004856782430012577
17.84035128583383,0.024848454616327235
17.848978148157734,0.06105746020127126
17.857605010481635,0.1109721496432537
17.86623187280554,0.15421493763573094
17.874858735129443,0.16101871689601613
17.883485597453348,0.1228337112432335
17.892112459777252,0.06744311742874767
17.900739322101156,0.027935760131633368
17.90936618442506,0.011965364410042097
17.917993046748965,0.010717842410450294
17.92661990907287,0.01688903663320798
17.935246771396773,0.025115944501121878
17.943873633720678,0.028028037325628415
17.952500496044582,0.019833039978524588
17.961127358368486,0.0001346773108782972
17.969754220692394,-0.02373934027525808
17.978381083016295,-0.03790972364244273
17.9870079453402,-0.03487959310560636
17.995634807664104,-0.021384104593018732
18.004261669988008,-0.006900053392945291
18.012888532311912,0.0057666870467751995
18.021515394635816,0.015162425132424183
18.03014225695972,0.015487402084121343
18.038769119283625,0.001255338008403984
18.04739598160753,-0.02474260863784248
18.056022843931434,-0.05017500167737089
18.064649706255338,-0.0597037818348997
18.073276568579242,-0.04882844091536378
18.081903430903147,-0.030535697048727002
18.09053029322705,-0.01916683848981617
18.09915715555095,-0.014663917636185107
18.107784017874856,-0.010481074970290256
18.11641088019876,-0.006215528134061338
18.125037742522665,-0.007497042163096435
18.13366460484657,-0.021205082213284928
18.142291467170473,-0.049626901256474835
18.150918329494377,-0.08141163482115656
18.15954519181828,-0.09329998941197
18.168172054142186,-0.07399755585990095
18.17679891646609,-0.039076831040802174
18.185425778789995,-0.010210368654684547
18.1940526411139,0.0061750611326534255
18.202679503437803,0.013242733705110709
18.211306365761708,0.012547016865227438
18.219933228085612,0.004217288678896725
18.228560090409516,-0.009255985710614765
18.23718695273342,-0.024143879213205696
18.245813815057325,-0.03714069380517066
18.25444067738123,-0.04357183593477472
18.263067539705133,-0.038317985420436
18.271694402029038,-0.021951769644304897
18.280321264352942,-0.0008258397935056146
18.288948126676846,0.01993622834032827
18.29757498900075,0.03603084038238955
18.306201851324655,0.04232377144791715
18.31482871364856,0.03886917632764753
18.323455575972464,0.030618168207648414
18.332082438296368,0.021656895467397907
18.340709300620272,0.0152084950025287
18.349336162944173,0.012578634700373884
18.357963025268077,0.009974093155776315
18.36658988759198,0.002132126551489163
18.375216749915886,-0.010926237205505413
18.38384361223979,-0.023017657954889702
18.392470474563694,-0.027815567733335135
18.4010973368876,-0.02649038140631168
18.409724199211503,-0.029367142197902398
18.418351061535407,-0.049503862863015925
18.42697792385931,-0.09263252103273947
18.435604786183216,-0.145343471736259
18.44423164850712,-0.17477282632928398
18.452858510831025,-0.15726963954015338
18.46148537315493,-0.10296790382013987
18.47011223547883,-0.038832949142711785
18.478739097802734,0.01580855278406243
18.487365960126642,0.04877447317618761
18.495992822450546,0.05073888261481637
18.50461968477445,0.026716141651092123
18.513246547098355,0.001405902738302588
18.52187340942226,-0.003965384315014383
18.530500271746163,0.008204576158502314
18.539127134070068,0.022601940776160078
18.547753996393972,0.028753490107304262
18.556380858717876,0.025582988445893927
18.56500772104178,0.018709555488177813
18.573634583365685,0.015176935228701916
18.58226144568959,0.01660187840318028
18.59088830801349,0.019023734778184413
18.599515170337394,0.02078870509979488
18.6081420326613,0.02587995845181318
18.616768894985203,0.03622440137633577
18.625395757309107,0.04471890217583898
18.63402261963301,0.04296425856278438
18.642649481956916,0.03207256352809601
18.65127634428082,0.01954259765993356
18.659903206604724,0.010813312818927459
18.66853006892863,0.007148956715141503
18.677156931252533,0.007348670181356985
18.685783793576437,0.008375952404759992
18.69441065590034,0.00642673532857685
18.703037518224246,0.0006063401406034691
18.711664380548147,-0.0060538951715895205
18.72029124287205,-0.010098270348938706
18.728918105195955,-0.009333419615143132
18.73754496751986,-0.0029169508476222772
18.746171829843764,0.00611190073445347
18.75479869216767,0.010885866805470162
18.763425554491576,0.006961771321253144
18.77205241681548,-0.003429603670062513
18.780679279139385,-0.01468046436996119
18.78930614146329,-0.023216765443232285
18.797933003787193,-0.029269960488278374
18.806559866111098,-0.034073029371089227
18.815186728435002,-0.03704482687722668
18.823813590758906,-0.03711253568491386
18.83244045308281,-0.0341363763453114
18.84106731540671,-0.027366471826698505
18.849694177730616,-0.01217591222493543
18.85832104005452,0.021411949877239815
18.866947902378424,0.08058277268347955
18.87557476470233,0.1507098120257862
18.884201627026233,0.19138214003312656
18.892828489350137,0.1750714405548546
18.90145535167404,0.1209659666572248
18.910082213997946,0.0664763605022315
18.91870907632185,0.02734428202710642
18.927335938645754,0.002083376532589847
18.93596280096966,-0.011358504927770014
18.944589663293563,-0.016379677189174338
18.953216525617467,-0.020326127190791944
18.961843387941368,-0.029347072715161304
18.970470250265272,-0.0440070000612916
18.979097112589177,-0.05816166189090777
18.98772397491308,-0.06233397453734666
18.996350837236985,-0.05327789288096236
19.00497769956089,-0.037037851817968426
19.013604561884797,-0.020555146120957712
19.0222314242087,-0.007609836557688254
19.030858286532606,-0.0007969652348508187
19.03948514885651,-0.0015472312860167652
19.048112011180415,-0.010648392968237524
19.05673887350432,-0.027355755153202998
19.065365735828223,-0.04541867778977985
19.073992598152127,-0.054051397670140014
19.082619460476028,-0.048957169858727737
19.091246322799932,-0.03930686019336501
19.099873185123837,-0.03570157600334378
19.10850004744774,-0.03730174792173677
19.117126909771645,-0.03710538054777291
19.12575377209555,-0.0309783819844345
19.134380634419454,-0.015670256602135745
19.14300749674336,0.01643889927199493
19.151634359067263,0.07133984925914108
19.160261221391167,0.13373101493932554
19.16888808371507,0.16382732160755728
19.177514946038976,0.137522360391108
19.18614180836288,0.07666823265055468
19.194768670686784,0.019736417390998705
19.203395533010685,-0.014345535228544912
19.21202239533459,-0.026665919013596596
19.220649257658494,-0.027012644015845053
19.229276119982398,-0.0262278229422203
19.237902982306302,-0.030523007757050823
19.246529844630206,-0.03942943094163877
19.25515670695411,-0.047686360723554595
19.263783569278015,-0.0492005985647033
19.27241043160192,-0.04149091414325714
19.281037293925827,-0.02767827469611192
19.28966415624973,-0.013786205540781832
19.298291018573636,-0.003503654899693727
19.30691788089754,0.004448497145260955
19.315544743221444,0.011693126671578792
19.324171605545345,0.014093321001774706
19.33279846786925,0.007272503901291523
19.341425330193154,-0.004603854946473275
19.350052192517058,-0.014549553554077471
19.358679054840962,-0.02064344747944618
19.367305917164867,-0.021995572725639404
19.37593277948877,-0.015657694897329363
19.384559641812675,-0.00037061376152193416
19.39318650413658,0.020070323841412746
19.401813366460484,0.036537826688255434
19.41044022878439,0.041791749397295685
19.419067091108293,0.03886663053771369
19.427693953432197,0.03770064909831199
19.4363208157561,0.04512315835174541
19.444947678080005,0.05806138062598646
19.453574540403906,0.06596072877567839
19.46220140272781,0.06031844182164773
19.470828265051715,0.04106309146129496
19.47945512737562,0.015770471794814996
19.488081989699523,-0.007264534158635781
19.496708852023428,-0.022838937804838835
19.505335714347332,-0.024921678959040523
19.513962576671236,-0.007236507591689794
19.52258943899514,0.028502757926641864
19.531216301319045,0.06566376173798281
19.539843163642953,0.0782373108094926
19.548470025966857,0.0555286970787281
19.55709688829076,0.015818183136699124
19.565723750614666,-0.016455253299986407
19.574350612938566,-0.03313411414559471
19.58297747526247,-0.03769594495613397
19.591604337586375,-0.03465179409536981
19.60023119991028,-0.02687494856393929
19.608858062234184,-0.01730839476039164
19.617484924558088,-0.010657395089621605
19.626111786881992,-0.010648413331201066
19.634738649205897,-0.01553829125080096
19.6433655115298,-0.020534593609144836
19.651992373853705,-0.022898311051582458
19.66061923617761,-0.022141432336131774
19.669246098501514,-0.018377761189921633
19.677872960825418,-0.010637144035879254
19.686499823149322,0.0025007244865201668
19.695126685473223,0.018925067920865533
19.703753547797128,0.03239995572392973
19.712380410121032,0.03914566269500633
19.721007272444936,0.043046510510287066
19.72963413476884,0.047118476301231345
19.738260997092745,0.04284358271196971
19.74688785941665,0.01894455512448712
19.755514721740553,-0.02289474685596466
19.764141584064458,-0.06519357669466977
19.772768446388362,-0.08379517616075939
19.781395308712266,-0.06954185700924337
19.79002217103617,-0.04059738009737615
19.798649033360075,-0.02085677780938851
19.807275895683983,-0.017485498472873635
19.815902758007883,-0.024136703654726876
19.824529620331788,-0.031072104049839778
19.833156482655692,-0.032769642016387816
19.841783344979596,-0.03196162331992004
19.8504102073035,-0.03230745596494453
19.859037069627405,-0.02950861795318881
19.86766393195131,-0.017775034775861693
19.876290794275214,0.0016198886093594664
19.884917656599118,0.02366354395522257
19.893544518923022,0.04148954365391645
19.902171381246927,0.046457559776783584
19.91079824357083,0.03556596954870014
19.919425105894735,0.016467284499240408
19.92805196821864,0.001381607592000499
19.936678830542544,-0.0030482888485649172
19.945305692866445,0.0013457061845709424
19.95393255519035,0.008556117056881677
19.962559417514253,0.012856505284086519
19.971186279838157,0.012012224222673713
19.97981314216206,0.008046530291156253
19.988440004485966,0.005114328359803091
19.99706686680987,0.007732436326195427
20.005693729133775,0.01887955081063743
20.01432059145768,0.03500010716594307
20.022947453781583,0.043472182757619694
20.031574316105488,0.03294119665080121
20.040201178429392,0.006119405611137616
20.048828040753296,-0.023205492628155244
20.0574549030772,-0.04143729653806664
20.066081765401105,-0.04219656997030613
20.07470862772501,-0.027443685567407547
20.083335490048913,-0.0015247643086502352
20.091962352372818,0.03562762450090853
20.100589214696722,0.08477817286249045
20.109216077020626,0.13093931240728718
20.11784293934453,0.13898075979205116
20.126469801668435,0.08875197293452554
20.13509666399234,0.008046933719991885
20.143723526316244,-0.05339058997503209
20.152350388640148,-0.0727495484046655
20.160977250964052,-0.06198688135928204
20.169604113287956,-0.04130869147201017
20.17823097561186,-0.0214961997099267
20.18685783793576,-0.005393084191561062
20.195484700259666,0.0065564905866917645
20.20411156258357,0.013270507174271624
20.212738424907474,0.013855400548923001
20.22136528723138,0.009777880590834514
20.229992149555283,0.0026826635654812686
20.238619011879187,-0.008648663911643309
20.24724587420309,-0.026192902395039852
20.255872736526996,-0.05019415593012484
20.2644995988509,-0.07925513889643052
20.273126461174805,-0.10461901740801166
20.28175332349871,-0.10739245943304429
20.290380185822613,-0.07842742067344795
20.299007048146517,-0.0344694970220789
20.307633910470418,9.632969101921064e-05
20.316260772794323,0.01470577220290559
20.32488763511823,0.012375720550402354
20.333514497442135,0.002463059139877668
20.34214135976604,-0.006666946182466578
20.350768222089943,-0.013131428929001538
20.359395084413848,-0.019374405194415804
20.368021946737752,-0.026461569105865414
20.376648809061656,-0.03315325878680525
20.38527567138556,-0.03679544738990327
20.393902533709465,-0.03237870899606709
20.40252939603337,-0.0178058355695038
20.411156258357273,-0.0005839103417906713
20.419783120681178,0.008691015102393857
20.428409983005082,0.006873495244809082
20.437036845328983,-0.0016138710204821232
20.445663707652887,-0.00986855689854619
20.45429056997679,-0.012244890542673447
20.462917432300696,-0.007075805367572656
20.4715442946246,0.0031202322482667758
20.480171156948504,0.015274182071840437
20.48879801927241,0.029023772546174553
20.497424881596313,0.04412605231687384
20.506051743920217,0.05481244761031234
20.51467860624412,0.05169904619955906
20.523305468568026,0.033949451861800754
20.53193233089193,0.015138666889475745
20.540559193215834,0.01141746603716538
20.54918605553974,0.026698094007502452
20.55781291786364,0.048490911077936155
20.566439780187544,0.057379942165186416
20.575066642511448,0.04698936208782832
20.583693504835352,0.02863830454107752
20.59232036715926,0.013084601723148662
20.600947229483165,0.0012410392958299944
20.60957409180707,-0.00916672433684127
20.618200954130973,-0.01845221639808189
20.626827816454878,-0.023680191228871383
20.635454678778782,-0.02104693234740704
20.644081541102686,-0.01174971709672257
20.65270840342659,-0.001967042004725986
20.661335265750495,0.004331397767676275
20.6699621280744,0.0074722054282281266
20.6785889903983,0.008209867350239252
20.687215852722204,0.006244513870810686
20.69584271504611,1.3355216272043402e-05
20.704469577370013,-0.012065406560891797
20.713096439693917,-0.02699172252051479
20.72172330201782,-0.03723416379270523
20.730350164341726,-0.03706222308283827
20.73897702666563,-0.025641069771873377
20.747603888989534,-0.006115253482014775
20.75623075131344,0.01637231577652839
20.764857613637343,0.03773732141751009
20.773484475961247,0.05099276933725754
20.78211133828515,0.04350509454522148
20.790738200609056,0.015226547899976395
20.799365062932957,-0.012638629589702556
20.80799192525686,-0.022008987760269
20.816618787580765,-0.012219036974737358
20.82524564990467,0.008459859012030424
20.833872512228574,0.027198157486155675
20.842499374552478,0.031563632041532
20.851126236876386,0.020693819085654323
20.85975309920029,0.006478783818847235
20.868379961524194,0.0016589393279725206
20.8770068238481,0.008703366410393687
20.885633686172003,0.0196291104226438
20.894260548495907,0.02577938866601314
20.90288741081981,0.024977725803449514
20.911514273143716,0.018369861492891555
20.920141135467617,0.006155002206974495
20.92876799779152,-0.010476628155915647
20.937394860115425,-0.026900605670920206
20.94602172243933,-0.03717270042697522
20.954648584763234,-0.037357788394169644
20.96327544708714,-0.027753747308636213
20.971902309411043,-0.013500959564823202
20.980529171734947,-0.0013277009780753054
20.98915603405885,0.005326993183624273
20.997782896382756,0.008452091955198509
21.00640975870666,0.014958123968190976
21.015036621030564,0.03400845247597022
21.02366348335447,0.069604486159398
21.032290345678373,0.10967084175765858
21.040917208002277,0.1277502814617888
21.049544070326178,0.10898723787436525
21.058170932650082,0.0677105579309826
21.066797794973986,0.02834744548664573
21.07542465729789,0.0024807180804226597
21.084051519621795,-0.011105347547065991
21.0926783819457,-0.01688829317501081
21.101305244269604,-0.017345322742087523
21.10993210659351,-0.01382086447742052
21.118558968917416,-0.007937569935591578
21.12718583124132,-0.0018389005752084868
21.135812693565224,0.00032628514478746495
21.14443955588913,-0.007471848396425378
21.153066418213033,-0.02932057778745695
21.161693280536937,-0.06382803843866461
21.170320142860838,-0.10126483017710654
21.178947005184742,-0.12270180497456724
21.187573867508647,-0.11408037857557643
21.19620072983255,-0.08136083350543806
21.204827592156455,-0.03995816365551613
21.21345445448036,-0.0007542796706567862
21.222081316804264,0.02965417367500052
21.230708179128168,0.05087929814486802
21.239335041452073,0.06603448560833412
21.247961903775977,0.07171387743705077
21.25658876609988,0.06281217269573452
21.265215628423785,0.04369888886044784
21.27384249074769,0.022944475509819713
21.282469353071594,0.004129898669893986
21.291096215395495,-0.011531072502846755
21.2997230777194,-0.021192437393215288
21.308349940043303,-0.022836122185036056
21.316976802367208,-0.018050180790478175
21.325603664691112,-0.010918275807767733
21.334230527015016,-0.005007399119661353
21.34285738933892,-0.002254015445756963
21.351484251662825,-0.003731056996141322
21.36011111398673,-0.010109970242082702
21.368737976310634,-0.02046418715388792
21.37736483863454,-0.030230551813410094
21.385991700958446,-0.03357124914438253
21.39461856328235,-0.029065609380697487
21.403245425606254,-0.02142768566338026
21.411872287930155,-0.018217013310919506
21.42049915025406,-0.02278976172583585
21.429126012577964,-0.029246560722858965
21.437752874901868,-0.029911709884249297
21.446379737225772,-0.025241894885535153
21.455006599549677,-0.019483320490328613
21.46363346187358,-0.013243210115597879
21.472260324197485,-0.005327827161316407
21.48088718652139,0.003572505715622903
21.489514048845294,0.011316616043765866
21.498140911169198,0.01628412524798992
21.506767773493102,0.017725634652496755
21.515394635817007,0.014682458024196444
21.52402149814091,0.0068225755486633274
21.532648360464812,-0.002623653956776774
21.541275222788716,-0.007958802808657479
21.54990208511262,-0.0056331713630976684
21.558528947436525,0.004705373554212112
21.56715580976043,0.01994411641814885
21.575782672084333,0.03197485809334649
21.584409534408238,0.03170941168093004
21.593036396732142,0.015471462051214848
21.601663259056046,-0.01394039368202378
21.61029012137995,-0.04553751932395032
21.618916983703855,-0.0601701995547797
21.62754384602776,-0.04749977349973628
21.636170708351663,-0.0194973195307265
21.64479757067557,0.005870863377391813
21.653424432999476,0.022022332782174858
21.662051295323376,0.027250964684351446
21.67067815764728,0.01410784869617247
21.679305019971185,-0.02573687908037443
21.68793188229509,-0.08127147261043258
21.696558744618994,-0.11586598140399584
21.705185606942898,-0.1035879379619325
21.713812469266802,-0.06045812319937854
21.722439331590707,-0.01905667060228901
21.73106619391461,0.006006911398456152
21.739693056238515,0.017605161337100893
21.74831991856242,0.023725093245921886
21.756946780886324,0.0309642449362983
21.765573643210228,0.04145484067283314
21.774200505534132,0.050867825856155215
21.782827367858033,0.05066654758249082
21.791454230181937,0.03740626207735353
21.80008109250584,0.018425371639101996
21.808707954829746,0.005627414673934079
21.81733481715365,0.004955894215586951
21.825961679477555,0.012310743970887095
21.83458854180146,0.018421140089514815
21.843215404125363,0.01682629902278811
21.851842266449268,0.007712130895777929
21.860469128773172,-0.006206164878594301
21.869095991097076,-0.0252586738475404
21.87772285342098,-0.04616029466872324
21.886349715744885,-0.05453872380393446
21.89497657806879,-0.040024883910866525
21.903603440392693,-0.012771950774841917
21.912230302716598,0.007278663119314336
21.920857165040502,0.010160497823711187
21.929484027364406,0.0011113842955538687
21.93811088968831,-0.007503702114538872
21.946737752012215,-0.007438024950568638
21.95536461433612,0.0001911960258010677
21.963991476660023,0.008299169862665831
21.972618338983928,0.010736687780132896
21.981245201307832,0.005996315060883168
21.989872063631736,-0.0034289571232783444
21.99849892595564,-0.012485410863793763
22.007125788279545,-0.01567623800653105
22.01575265060345,-0.011022170020698038
22.02437951292735,-0.001227846443222864
22.033006375251254,0.009390853768359436
22.04163323757516,0.017040889290040356
22.050260099899063,0.019713651217384602
22.058886962222967,0.01882858161965715
22.06751382454687,0.016553866294184674
22.076140686870776,0.011660205163139212
22.08476754919468,0.00234152669537042
22.093394411518585,-0.008543654053894036
22.10202127384249,-0.014677756321050636
22.110648136166393,-0.011667026678949656
22.119274998490297,0.00042263750168726076
22.1279018608142,0.017382113340248882
22.136528723138106,0.031217964720677324
22.14515558546201,0.03418302752828569
22.15378244778591,0.024831735188271673
22.16240931010982,0.007923154465128356
22.171036172433723,-0.009626377935285532
22.179663034757628,-0.02098669566477669
22.188289897081532,-0.021761907950442638
22.196916759405436,-0.014682456628472037
22.20554362172934,-0.012930798577426657
22.214170484053245,-0.034986812505781784
22.22279734637715,-0.0891934482375455
22.231424208701053,-0.15416991242364936
22.240051071024958,-0.18145389071060636
22.248677933348862,-0.1439504489240349
22.257304795672766,-0.07055444983069298
22.26593165799667,-0.008673434543720096
22.27455852032057,0.02157766057798523
22.283185382644476,0.02723732673575577
22.29181224496838,0.024118747717993008
22.300439107292284,0.022080804046106094
22.30906596961619,0.02021773482447989
22.317692831940093,0.015006618166348415
22.326319694263997,0.009451266199467203
22.3349465565879,0.012881539289346353
22.343573418911806,0.036900266929925804
22.35220028123571,0.08227537684339485
22.360827143559614,0.12123266567215912
22.36945400588352,0.11955344240903759
22.378080868207423,0.0763936787972484
22.386707730531327,0.0129747841705009
22.395334592855228,-0.054696723751445124
22.403961455179132,-0.10773555172650111
22.412588317503037,-0.11801108382297286
22.421215179826945,-0.07703242290107518
22.42984204215085,-0.01592787220287768
22.438468904474753,0.026829189708510292
22.447095766798657,0.04104744130752579
22.455722629122562,0.03709143809808477
22.464349491446466,0.027023715646260597
22.47297635377037,0.0191789007717059
22.481603216094275,0.01506605038669685
22.49023007841818,0.009863006074289958
22.498856940742083,0.0008637127354264068
22.507483803065988,-0.008496713966986893
22.51611066538989,-0.014068453957817613
22.524737527713793,-0.014872806737904897
22.533364390037697,-0.0114491086072766
22.5419912523616,-0.005008357689620145
22.550618114685506,0.001431684869133334
22.55924497700941,0.0042703892528973405
22.567871839333314,0.003848401377267505
22.57649870165722,0.005911941103076552
22.585125563981123,0.014379818910325989
22.593752426305027,0.025121609193935343
22.60237928862893,0.031742941067632285
22.611006150952836,0.03337007376273957
22.61963301327674,0.03288466092895429
22.628259875600644,0.03193956399605863
22.63688673792455,0.03071506625605927
22.64551360024845,0.029427941628920082
22.654140462572354,0.02679850359916542
22.662767324896258,0.019323993224764996
22.671394187220162,0.006802851450444045
22.680021049544067,-0.004123785762385971
22.688647911867974,-0.007510392279575541
22.69727477419188,-0.004948811491917222
22.705901636515783,-0.0014017562567622387
22.714528498839687,-0.0002818029712538777
22.72315536116359,-0.003277279114821006
22.731782223487496,-0.009611752256768124
22.7404090858114,-0.015405829895011538
22.749035948135305,-0.016385050671857856
22.75766281045921,-0.012882652302631971
22.76628967278311,-0.010934256055498984
22.774916535107014,-0.015500132995492041
22.78354339743092,-0.024104422105375743
22.792170259754823,-0.028340112151640718
22.800797122078727,-0.017978064154455665
22.80942398440263,0.012240178078121267
22.818050846726535,0.049830809638373635
22.82667770905044,0.06778768558511025
22.835304571374344,0.052493460709047673
22.84393143369825,0.017458897361279757
22.852558296022153,-0.013879052022460706
22.861185158346057,-0.027964059666290227
22.86981202066996,-0.025744260676127388
22.878438882993866,-0.016173436049112075
22.887065745317766,-0.008139213238156036
22.89569260764167,-0.006257774411586026
22.904319469965575,-0.009099011265636819
22.91294633228948,-0.011132657533780366
22.921573194613384,-0.008882301150494197
22.930200056937288,-0.0029484230832238405
22.938826919261192,0.0051417499194748
22.9474537815851,0.013215041548698013
22.956080643909004,0.017214824058373542
22.96470750623291,0.013606634790939764
22.973334368556813,0.003346689749404114
22.981961230880717,-0.007649938181883122
22.99058809320462,-0.012848051816863696
22.999214955528526,-0.010070970677642021
23.007841817852427,-0.0026515484856771366
23.01646868017633,0.004209368074922331
23.025095542500235,0.007601538502965532
23.03372240482414,0.006769311225086614
23.042349267148044,0.0022904899430212238
23.050976129471948,-0.002934819997768608
23.059602991795852,-0.00492426007944994
23.068229854119757,-0.00021474460070486083
23.07685671644366,0.014471661473631848
23.085483578767565,0.03981919214554294
23.09411044109147,0.06762973918560365
23.102737303415374,0.08104675285978102
23.11136416573928,0.07094772056016095
23.119991028063183,0.04964469947777469
23.128617890387083,0.037356141761681554
23.137244752710988,0.039102321921189266
23.145871615034892,0.04302674526306469
23.154498477358796,0.03809176375433179
23.1631253396827,0.025931804944962458
23.171752202006605,0.015018125430710492
23.18037906433051,0.010951262851771263
23.189005926654414,0.013274298223504118
23.197632788978318,0.016509227716828924
23.206259651302222,0.015732831034375873
23.21488651362613,0.012417117880001641
23.223513375950034,0.010842625747968133
23.23214023827394,0.01051486926095632
23.240767100597843,0.0081427303133664
23.249393962921747,0.0037565638640667293
23.258020825245648,-0.001051981130677243
23.266647687569552,-0.007209158645101344
23.275274549893457,-0.014719633068526567
23.28390141221736,-0.016934307607428437
23.292528274541265,-0.004632174428153326
23.30115513686517,0.021910395680821555
23.309781999189074,0.04906446336654931
23.318408861512978,0.06122272332956558
23.327035723836882,0.053611109052705816
23.335662586160787,0.03241160316321008
23.34428944848469,0.0065154298522060025
23.352916310808595,-0.019698266443759285
23.3615431731325,-0.047312200060838625
23.370170035456404,-0.07322371556371754
23.378796897780305,-0.08374994827199046
23.38742376010421,-0.06899413795991256
23.396050622428113,-0.03752625322599318
23.404677484752018,-0.006910674176700998
23.413304347075922,0.011755010713209767
23.421931209399826,0.01657132949482505
23.43055807172373,0.01269303810093944
23.439184934047635,0.007835902608285098
23.44781179637154,0.005627675423933018
23.456438658695443,0.005146621964728073
23.465065521019348,0.0048616277010926304
23.473692383343256,0.003648484867671703
23.48231924566716,0.0012260369161012153
23.490946107991064,0.0007297845445857403
23.499572970314965,0.008151756225892344
23.50819983263887,0.025910315858229
23.516826694962774,0.04601217968711351
23.525453557286678,0.05340593064150055
23.534080419610582,0.042778550507463015
23.542707281934486,0.026322538189975257
23.55133414425839,0.017722998909551417
23.559961006582295,0.018581330083775334
23.5685878689062,0.02436818910408353
23.577214731230104,0.03313645706678604
23.585841593554008,0.04364102413358599
23.594468455877912,0.04967316887071789
23.603095318201817,0.04479428678779713
23.61172218052572,0.03096045491114795
23.62034904284962,0.014960204404399921
23.628975905173526,0.0006432881140058964
23.63760276749743,-0.010890842989833862
23.646229629821335,-0.017159299600517753
23.65485649214524,-0.014827861694147017
23.663483354469143,-0.005412319534824667
23.672110216793047,0.0029879060674718547
23.680737079116952,0.0021522452691488986
23.689363941440856,-0.00855691888375062
23.69799080376476,-0.022047747844455734
23.706617666088665,-0.030682223454402233
23.71524452841257,-0.03165421594493827
23.723871390736473,-0.026057522922265982
23.732498253060378,-0.015809202820504777
23.741125115384282,-0.0023098208965886304
23.749751977708186,0.012037522675657494
23.75837884003209,0.02239335071530174
23.767005702355995,0.02504736905663077
23.7756325646799,0.021174265358811967
23.784259427003803,0.01466371820691597
23.792886289327708,0.008819234902958335
23.801513151651612,0.00509412108840319
23.810140013975516,0.0016337096683862531
23.81876687629942,-0.006636969340830402
23.827393738623325,-0.023661742146863802
23.83602060094723,-0.04500917607497403
23.844647463271134,-0.05622983561513245
23.853274325595038,-0.04695824657021569
23.861901187918942,-0.024636836166085314
23.870528050242843,-0.0050178886721068214
23.879154912566747,0.0038842160756485007
23.88778177489065,0.003977989220004161
23.896408637214556,0.0017345996927790597
23.90503549953846,0.002169721499563392
23.913662361862364,0.005355470884041805
23.92228922418627,0.007816197916079218
23.930916086510173,0.006449384607214806
23.939542948834077,0.002258031589722131
23.94816981115798,-0.0001067805653270836
23.956796673481886,0.0023134304202479224
23.96542353580579,0.009055741144882098
23.974050398129695,0.018907252591919322
23.9826772604536,0.02939415792115846
23.9913041227775,0.035693897938878255
23.999930985101408,0.0314629180710116
24.008557847425312,0.009045485821873594
24.017184709749216,-0.03795367368348541
24.02581157207312,-0.1079947548115107
24.034438434397025,-0.17949160841365674
24.04306529672093,-0.2100230607209636
24.051692159044833,-0.1753523867989527
24.060319021368738,-0.10271094122671144
24.068945883692642,-0.0384404647893531
24.077572746016546,-0.00290176005165822
24.08619960834045,0.009275184981209649
24.094826470664355,0.01025466797388366
24.10345333298826,0.008430856795257298
24.11208019531216,0.005469971007231848
24.120707057636064,0.0013745428900631559
24.12933391995997,0.001237569560745121
24.137960782283873,0.010919262735686051
24.146587644607777,0.027332791753077682
24.15521450693168,0.03915172964584416
24.163841369255586,0.03746802293510562
24.17246823157949,0.023802398832736934
24.181095093903394,0.007662603131098051
24.1897219562273,-0.002417128032454362
24.198348818551203,-0.004980665115170128
24.206975680875107,-0.0033986516924402583
24.21560254319901,-0.0003857052866419604
24.224229405522916,0.002435843150859736
24.232856267846817,0.004093179390106773
24.24148313017072,0.006093332282054722
24.250109992494625,0.00976732788426459
24.258736854818533,0.011941624700870675
24.267363717142437,0.00855384946211523
24.27599057946634,0.0006966857754202786
24.284617441790246,-0.007406657801025393
24.29324430411415,-0.012523195152728744
24.301871166438055,-0.01184331596444559
24.31049802876196,-0.003156130963025597
24.319124891085863,0.010745824693401311
24.327751753409768,0.020734421624571456
24.336378615733672,0.020892052997978527
24.345005478057576,0.01649645407941036
24.35363234038148,0.01549564266789176
24.36225920270538,0.01764669249490912
24.370886065029286,0.01734467193092981
24.37951292735319,0.012033207143744742
24.388139789677094,0.003763392594936346
24.396766652001,-0.004649142002414284
24.405393514324903,-0.010464656271245867
24.414020376648807,-0.011781459326540211
24.42264723897271,-0.010345362531356869
24.431274101296616,-0.008206730560893424
24.43990096362052,-0.0042656689604932555
24.448527825944424,0.000990259904939255
24.45715468826833,0.003555699542230448
24.465781550592233,0.0014225866784577691
24.474408412916137,-0.003236763034471916
24.483035275240038,-0.007701202982208322
24.491662137563942,-0.010634991737247367
24.500288999887847,-0.011384375212234938
24.50891586221175,-0.01091745536656516
24.51754272453566,-0.012075145796807693
24.526169586859563,-0.0159095500725725
24.534796449183467,-0.01977632905872838
24.54342331150737,-0.020778107513825396
24.552050173831276,-0.018866780743706853
24.56067703615518,-0.016074303064561445
24.569303898479085,-0.013271572249003768
24.57793076080299,-0.007988610487025039
24.586557623126893,0.000992882165315007
24.595184485450797,0.006367925671825944
24.6038113477747,-0.004462867651418825
24.612438210098603,-0.036209694641249984
24.621065072422507,-0.07960515279409441
24.62969193474641,-0.11989358210581132
24.638318797070315,-0.14267206823207634
24.64694565939422,-0.13188134713944716
24.655572521718124,-0.08260550751614167
24.66419938404203,-0.018682115024752463
24.672826246365933,0.021229962947402516
24.681453108689837,0.01971306442281747
24.69007997101374,-0.005596089043646238
24.698706833337646,-0.02525410184021554
24.70733369566155,-0.025810954610599922
24.715960557985454,-0.0141846067348715
24.724587420309355,-0.004658827989764081
24.73321428263326,-0.0043317333416680055
24.741841144957164,-0.009386394793769341
24.750468007281068,-0.012551085237047215
24.759094869604972,-0.011178158954383996
24.767721731928876,-0.008618435693745232
24.77634859425278,-0.009639259108459646
24.78497545657669,-0.0175462066657754
24.793602318900593,-0.03491455925395272
24.802229181224497,-0.061246967502022465
24.8108560435484,-0.08669551025039601
24.819482905872306,-0.09312392467098331
24.82810976819621,-0.0718496316506265
24.836736630520114,-0.036240575363446936
24.84536349284402,-0.006700084446834149
24.85399035516792,0.008852836068512168
24.862617217491824,0.01530641997270474
24.871244079815728,0.018634589115747172
24.879870942139632,0.017292386302700705
24.888497804463537,0.008270707179359054
24.89712466678744,-0.0025570141452834396
24.905751529111345,-0.005321947367065096
24.91437839143525,0.002375198049938311
24.923005253759154,0.014771646263140873
24.93163211608306,0.025233457206819056
24.940258978406963,0.030238782942134793
24.948885840730867,0.028639661898028655
24.95751270305477,0.022190399024481104
24.966139565378676,0.014928893005843302
24.974766427702576,0.008084306677886916
24.98339329002648,-0.0019833156077837277
24.992020152350385,-0.017280463857897266
25.00064701467429,-0.030756437406000328
25.009273876998193,-0.028880616121464586
25.017900739322098,0.0005927972957631717
25.026527601646002,0.055583129069789336
25.035154463969906,0.10474785430988545
25.04378132629381,0.1127732363264968
25.05240818861772,0.08368241445386451
25.061035050941623,0.04735522458869987
25.069661913265527,0.02255603449670609
25.07828877558943,0.012614609204060427
25.086915637913336,0.014067317707629418
25.095542500237237,0.020468777869886504
25.10416936256114,0.02616281988079847
25.112796224885045,0.029362572335255722
25.12142308720895,0.02940899502644325
25.130049949532854,0.02399040713117214
25.138676811856758,0.013613925643598002
25.147303674180662,0.004083493498527621
25.155930536504567,0.001015958979280412
25.16455739882847,0.004840676576128439
25.173184261152375,0.010744776721560465
25.18181112347628,0.01261210300181279
25.190437985800184,0.00879472984054747
25.199064848124088,0.0025083820195568943
25.207691710447993,-0.003744661293049537
25.216318572771893,-0.010570927578949512
25.224945435095798,-0.01778052402366529
25.233572297419702,-0.02044807857372809
25.242199159743606,-0.010759897100652883
25.25082602206751,0.01828852815008846
25.259452884391415,0.07016127438600102
25.26807974671532,0.13175010798025394
25.276706609039223,0.16692236822125367
25.285333471363128,0.15093736782382047
25.293960333687032,0.10190513781504759
25.302587196010936,0.05557423149860473
25.311214058334844,0.02847020987650458
25.31984092065875,0.01597061200307398
25.328467782982653,0.009087408015036838
25.337094645306554,0.005111387661153159
25.345721507630458,0.004848047679818765
25.354348369954362,0.006554155484281118
25.362975232278266,0.007252716793300942
25.37160209460217,0.007483036680010401
25.380228956926075,0.012020327014505857
25.38885581924998,0.02418609168158713
25.397482681573884,0.035590897844171264
25.406109543897788,0.02753292681767907
25.414736406221692,-0.003759741382630596
25.423363268545597,-0.033378551843999134
25.4319901308695,-0.036978186009556595
25.440616993193405,-0.018603389166366485
25.44924385551731,0.0024573176474735683
25.457870717841214,0.013770888934914625
25.466497580165115,0.012043613642333481
25.47512444248902,-0.0015536426370251976
25.483751304812923,-0.021385517726979848
25.492378167136827,-0.04025089262801533
25.501005029460732,-0.05363046751155149
25.509631891784636,-0.05577090486292599
25.51825875410854,-0.04191528245492708
25.526885616432445,-0.020075456348737298
25.53551247875635,-0.004520478490386364
25.544139341080253,0.0024089013389558766
25.552766203404158,0.00912971762989587
25.561393065728062,0.02107867789863092
25.57001992805197,0.032948469291407365
25.578646790375874,0.03293647840563446
25.587273652699775,0.017758041542298656
25.59590051502368,-0.0017921091756330897
25.604527377347583,-0.014245288584984351
25.613154239671488,-0.018035575310961095
25.621781101995392,-0.017910869107864956
25.630407964319296,-0.018598533939863198
25.6390348266432,-0.023256064577910778
25.647661688967105,-0.03356265199096282
25.65628855129101,-0.045782357153578306
25.664915413614914,-0.04980781886579158
25.673542275938818,-0.04164807921422748
25.682169138262722,-0.030270996903651044
25.690796000586626,-0.02452491973373034
25.69942286291053,-0.023792801724410013
25.70804972523443,-0.022914990056809505
25.716676587558336,-0.018163621527682847
25.72530344988224,-0.008577252705588208
25.733930312206144,0.003773865934822666
25.74255717453005,0.011897913752643418
25.751184036853953,0.008015859459183311
25.759810899177857,-0.006796416079855656
25.76843776150176,-0.022059234393700014
25.777064623825666,-0.026629831984042323
25.78569148614957,-0.015851501938505635
25.794318348473475,0.006390809006854667
25.80294521079738,0.028905468994590768
25.811572073121283,0.03862573019095492
25.820198935445188,0.030742581749441774
25.828825797769092,0.012195135781946052
25.837452660092996,-0.0062838355013933415
25.8460795224169,-0.0170203033789175
25.854706384740805,-0.017946775472605505
25.86333324706471,-0.012991148934639502
25.871960109388613,-0.005556597725233567
25.880586971712518,0.008561972180005277
25.889213834036422,0.03581693965983158
25.897840696360326,0.07145852563994012
25.90646755868423,0.09610197465007594
25.915094421008135,0.09147499601392015
25.92372128333204,0.06046034698737419
25.932348145655943,0.02434745921293928
25.940975007979848,-4.9064175941963394e-05
25.94960187030375,-0.011330912949402297
25.958228732627653,-0.014494579153878142
25.966855594951557,-0.011392128230442666
25.97548245727546,-0.0005032936974439569
25.984109319599366,0.018236704781675
25.99273618192327,0.03849704322047368
26.001363044247174,0.047684042602213476
26.00998990657108,0.037111987764419936
26.018616768894983,0.011842275571316214
26.027243631218887,-0.014476871988513893
26.03587049354279,-0.03109887138763366
26.044497355866696,-0.03339470289169299
26.0531242181906,-0.020262297249020005
26.061751080514505,0.007342911500259781
26.07037794283841,0.04591758014057671
