,0
0.0,-0.011968888056391345
0.008443949066099233,-0.018397234271410837
0.016887898132198466,-0.019561923796434004
0.0253318471982977,-0.014903813404774324
0.03377579626439693,-0.007952826509596517
0.04221974533049617,-0.0023595902461710358
0.0506636943965954,-0.0012117624243284772
0.059107643462694634,-0.005928780837781426
0.06755159252879386,-0.012946760103613142
0.07599554159489309,-0.014756544821320619
0.08443949066099234,-0.005330821589574713
0.09288343972709157,0.01344991947903611
0.1013273887931908,0.029425414009746638
0.10977133785929004,0.029925542956312834
0.11821528692538927,0.016778108643113805
0.1266592359914885,0.005913676257807947
0.13510318505758773,0.009333380976134729
0.14354713412368697,0.02107758760259914
0.15199108318978619,0.025500838000998886
0.16043503225588543,0.017177155228632786
0.16887898132198467,0.004684285977476327
0.1773229303880839,-0.001630635675164579
0.18576687945418313,0.0009700612174171558
0.19421082852028237,0.005894149256614549
0.2026547775863816,0.005216635513463146
0.21109872665248083,-0.0005843006480924066
0.21954267571858008,-0.006110616458773699
0.22798662478467932,-0.009567450077040223
0.23643057385077854,-0.01338372494936572
0.24487452291687778,-0.01948605632877878
0.253318471982977,-0.025732729552419974
0.26176242104907627,-0.027562366371296162
0.27020637011517545,-0.02256835094296521
0.2786503191812747,-0.011632611300903178
0.28709426824737394,0.0018840317603938056
0.2955382173134732,0.011904133046719712
0.30398216637957237,0.013746515470360682
0.31242611544567167,0.008942364648319396
0.32087006451177086,0.0020137153081836033
0.3293140135778701,-0.005080734522834325
0.33775796264396934,-0.013409377951653761
0.3462019117100686,-0.023530965717870767
0.3546458607761678,-0.0339365529789838
0.3630898098422671,-0.04321421404822065
0.37153375890836626,-0.04931423813899461
0.3799777079744655,-0.04787372504406562
0.38842165704056475,-0.037185485339389084
0.396865606106664,-0.022472981466330224
0.4053095551727632,-0.011205800278739717
0.4137535042388625,-0.0067556210219264
0.42219745330496167,-0.007579033242631581
0.43064140237106097,-0.010339871529474645
0.43908535143716015,-0.012871411469476672
0.4475293005032594,-0.014060697138401027
0.45597324956935864,-0.012768572055353691
0.4644171986354579,-0.008889884557328134
0.47286114770155707,-0.003999221251867113
0.48130509676765637,0.0009026045836059051
0.48974904583375556,0.005498021468840349
0.49819299489985486,0.006144967114956025
0.506636943965954,-0.002420650755336083
0.5150808930320533,-0.017807247699086252
0.5235248420981525,-0.02788204631635323
0.5319687911642517,-0.02371101714658412
0.5404127402303509,-0.010342793441068678
0.5488566892964503,0.0013399304269564268
0.5573006383625494,0.005954969355423549
0.5657445874286486,0.0028216496674565716
0.5741885364947479,-0.006256530838829046
0.5826324855608471,-0.016622243045512637
0.5910764346269464,-0.02337823982753509
0.5995203836930456,-0.02352654974797056
0.6079643327591447,-0.01597177320764888
0.6164082818252441,-0.0026049175360850756
0.6248522308913433,0.012898483774339393
0.6332961799574425,0.029043404495119378
0.6417401290235417,0.04351619376951973
0.6501840780896411,0.04855502951665752
0.6586280271557402,0.04023321626376064
0.6670719762218394,0.0263524851827137
0.6755159252879387,0.015617290852361894
0.6839598743540379,0.008104634041528698
0.6924038234201372,3.503563101708577e-05
0.7008477724862364,-0.009441422220223912
0.7092917215523356,-0.01749455823291156
0.7177356706184349,-0.021164153061006007
0.7261796196845342,-0.018387402754987087
0.7346235687506333,-0.007078123644323692
0.7430675178167325,0.01113405884198474
0.7515114668828319,0.02811192510881784
0.759955415948931,0.034277151017715404
0.7683993650150303,0.026137731681894365
0.7768433140811295,0.008482051769117049
0.7852872631472287,-0.009840324116817841
0.793731212213328,-0.021158315436837508
0.8021751612794272,-0.022849687554540365
0.8106191103455264,-0.01928316032725196
0.8190630594116256,-0.016912234888038658
0.827507008477725,-0.017478503015487545
0.8359509575438242,-0.018625525907363626
0.8443949066099233,-0.017889999031082588
0.8528388556760226,-0.014116675879524726
0.8612828047421219,-0.006957989771736903
0.8697267538082211,0.0017819184282520046
0.8781707028743203,0.006341942688007502
0.8866146519404196,0.0010727202931556906
0.8950586010065188,-0.014175738885534743
0.903502550072618,-0.034257900289921095
0.9119464991387173,-0.051263736490691506
0.9203904482048164,-0.05732433860245489
0.9288343972709158,-0.04908224265468869
0.937278346337015,-0.030833166616323224
0.9457222954031141,-0.011022047202065382
0.9541662444692134,0.003280508511164966
0.9626101935353127,0.006959636843947711
0.9710541426014119,-0.0011660237792723573
0.9794980916675111,-0.015318165648672156
0.9879420407336104,-0.026846382131088625
0.9963859897997097,-0.029695822910711076
1.0048299388658086,-0.022361496633170434
1.013273887931908,-0.007953582599212321
1.0217178369980073,0.008984263780149477
1.0301617860641066,0.02465404924801984
1.0386057351302058,0.03536116137381779
1.047049684196305,0.03934163872515126
1.055493633262404,0.03779631194513889
1.0639375823285033,0.03205686406789078
1.0723815313946026,0.021839016593746548
1.0808254804607018,0.008021886933269613
1.0892694295268013,-0.0026139983834328156
1.0977133785929005,-0.00015270004010641588
1.1061573276589998,0.018044611030430268
1.1146012767250988,0.04240294644567402
1.123045225791198,0.057752655913463
1.1314891748572973,0.056698812913089675
1.1399331239233965,0.04489461374828236
1.1483770729894958,0.030884196647475787
1.1568210220555952,0.01810279195760079
1.1652649711216942,0.006987706448744417
1.1737089201877935,-0.00264906223815139
1.1821528692538927,-0.01017509765773889
1.190596818319992,-0.01430732883487595
1.1990407673860912,-0.01432959831657387
1.2074847164521905,-0.008641739870937325
1.2159286655182895,0.002388508818338797
1.224372614584389,0.011308766658175453
1.2328165636504882,0.01027154346421371
1.2412605127165874,0.0010664080862772044
1.2497044617826867,-0.006965721999385257
1.258148410848786,-0.0050449203909391435
1.266592359914885,0.008559322865522807
1.2750363089809842,0.025223876097110416
1.2834802580470834,0.03149519456722767
1.291924207113183,0.022457233653518906
1.3003681561792821,0.005415036080186077
1.3088121052453814,-0.011307316042805028
1.3172560543114804,-0.024922983333649267
1.3257000033775796,-0.035175952637082696
1.334143952443679,-0.041188566148155394
1.3425879015097781,-0.04065829768176472
1.3510318505758774,-0.03315775188216921
1.3594757996419766,-0.023314913200294475
1.3679197487080759,-0.017325799718197338
1.376363697774175,-0.01570834421389936
1.3848076468402744,-0.012215634425312094
1.3932515959063736,-0.0036971128551152805
1.4016955449724728,0.003994495984266532
1.410139494038572,0.00331703812562438
1.418583443104671,-0.008441480551957002
1.4270273921707703,-0.02788348652121582
1.4354713412368698,-0.04669485846092543
1.443915290302969,-0.05838600278079301
1.4523592393690683,-0.06246303396817786
1.4608031884351675,-0.05860189633894403
1.4692471375012666,-0.043164002821059186
1.4776910865673658,-0.019322894707821683
1.486135035633465,-0.0023825175880695885
1.4945789846995643,-0.0022394865440970827
1.5030229337656638,-0.009484394406751143
1.511466882831763,-0.010194872230669528
1.519910831897862,-0.002359289462439945
1.5283547809639613,0.008521724692449236
1.5367987300300605,0.016148948623331154
1.5452426790961598,0.016319485981062913
1.553686628162259,0.011816227009214069
1.5621305772283582,0.009151936952320961
1.5705745262944575,0.01078573120155188
1.5790184753605567,0.015098670470579348
1.587462424426656,0.0191737893775222
1.5959063734927552,0.020400717085433433
1.6043503225588545,0.018493103622613367
1.6127942716249537,0.015336313777879923
1.6212382206910527,0.013611303523621637
1.629682169757152,0.015339097412333646
1.6381261188232512,0.019211112080372357
1.6465700678893507,0.021276412630836034
1.65501401695545,0.020140906479362303
1.6634579660215492,0.017534526827911914
1.6719019150876484,0.012318930924125702
1.6803458641537474,0.001358986647921933
1.6887898132198467,-0.012492705292145065
1.697233762285946,-0.02219326438043934
1.7056777113520452,-0.024876827312439797
1.7141216604181446,-0.023000436574568607
1.7225656094842439,-0.02034751395807046
1.7310095585503429,-0.017620981470581106
1.7394535076164421,-0.011517818649840925
1.7478974566825414,1.3314238388906219e-05
1.7563414057486406,0.014185769271176095
1.7647853548147399,0.026648683169680255
1.773229303880839,0.0344571701861411
1.7816732529469383,0.03584816207452778
1.7901172020130376,0.032043096798651687
1.7985611510791368,0.02780366468795195
1.807005100145236,0.02575810725393901
1.8154490492113353,0.023033108058069192
1.8238929982774346,0.01744523236426877
1.8323369473435336,0.014583666466470984
1.8407808964096328,0.025417454956486014
1.8492248454757323,0.05468463928055912
1.8576687945418315,0.08911987851577394
1.8661127436079308,0.10430046255906304
1.87455669267403,0.08953950313620211
1.883000641740129,0.05560266653714911
1.8914445908062283,0.016686259287002236
1.8998885398723275,-0.02089600078283821
1.9083324889384268,-0.053320404736591824
1.916776438004526,-0.07495533674052969
1.9252203870706255,-0.08140367734463046
1.9336643361367245,-0.07357321674490266
1.9421082852028237,-0.058832105928414404
1.950552234268923,-0.046604455290025104
1.9589961833350222,-0.04080366997514934
1.9674401324011213,-0.03775946083573361
1.9758840814672207,-0.030511655465958187
1.9843280305333197,-0.01713571794505618
1.9927719795994194,-0.0067643463416705175
2.0012159286655185,-0.010349105305781928
2.0096598777316173,-0.027339375836081193
2.018103826797717,-0.0476252294690557
2.026547775863816,-0.05863086239756442
2.0349917249299154,-0.04970426099125113
2.0434356739960147,-0.02066456733676528
2.051879623062114,0.015071326845599704
2.060323572128213,0.04099416412847281
2.068767521194312,0.0475900759599541
2.0772114702604116,0.03486832635927161
2.0856554193265104,0.011820982808431489
2.09409936839261,-0.009805329111407341
2.1025433174587094,-0.023265363886951437
2.110987266524808,-0.0256062383275855
2.119431215590908,-0.013765128998144041
2.1278751646570067,0.01191545372141435
2.1363191137231063,0.04386569210874957
2.144763062789205,0.0698004327574024
2.153207011855305,0.07777195537817576
2.1616509609214036,0.06285339564678358
2.170094909987503,0.0308318763245565
2.1785388590536026,-0.005107008508805664
2.1869828081197014,-0.03153455549550833
2.195426757185801,-0.043908900137336226
2.2038707062519,-0.04792643764727562
2.2123146553179995,-0.0487333094487533
2.2207586043840983,-0.04415526393199199
2.2292025534501976,-0.029816583686673805
2.2376465025162973,-0.006284619109988142
2.246090451582396,0.01886752875072939
2.2545344006484958,0.03603008311138397
2.2629783497145946,0.04034379694971542
2.271422298780694,0.03192793909395937
2.279866247846793,0.014270171274357481
2.2883101969128923,-0.005312825474251987
2.2967541459789915,-0.01786516410590465
2.3051980950450908,-0.018933973106927852
2.3136420441111905,-0.014510891112129262
2.3220859931772893,-0.016465330990676107
2.3305299422433885,-0.02969520675121456
2.3389738913094877,-0.04747556771346402
2.347417840375587,-0.05652747740561356
2.3558617894416862,-0.04582079663229063
2.3643057385077855,-0.01725278500595568
2.3727496875738847,0.012949727269733261
2.381193636639984,0.0295553847209871
2.389637585706083,0.031533335808132563
2.3980815347721824,0.022455553505843225
2.4065254838382817,-0.004824408152892156
2.414969432904381,-0.059586478091697634
2.42341338197048,-0.12510972979248525
2.431857331036579,-0.1545391640684116
2.4403012801026787,-0.12004412035927048
2.448745229168778,-0.04966489415141178
2.457189178234877,0.00944886202185795
2.4656331273009764,0.03589077149599715
2.474077076367075,0.03280737672306251
2.482521025433175,0.013115680696645234
2.4909649744992737,-0.00825745817006733
2.4994089235653734,-0.021247243190334848
2.507852872631472,-0.025961355768343044
2.516296821697572,-0.02980345688635129
2.524740770763671,-0.03789496651201787
2.53318471982977,-0.04759951219981306
2.5416286688958696,-0.051547559956170844
2.5500726179619684,-0.043967513973507705
2.558516567028068,-0.025066820623126446
2.566960516094167,-0.002374508953758014
2.575404465160266,0.013356148177088106
2.583848414226366,0.018189011372871253
2.5922923632924646,0.018706438038913604
2.6007363123585643,0.02139455617683075
2.609180261424663,0.02385043929139915
2.6176242104907628,0.021550572949462464
2.6260681595568616,0.016837293640752284
2.634512108622961,0.015516067047378429
2.64295605768906,0.01726471349073453
2.6514000067551593,0.014477341380459618
2.659843955821259,0.0031249412579770876
2.668287904887358,-0.010142405655812873
2.676731853953457,-0.015829090323457858
2.6851758030195563,-0.01251443841825223
2.6936197520856555,-0.00782501061222278
2.7020637011517548,-0.00901222999323552
2.710507650217854,-0.014593947469515587
2.7189515992839532,-0.01840009425259905
2.7273955483500525,-0.017722312439492346
2.7358394974161517,-0.013437106861100782
2.744283446482251,-0.006741889401965779
2.75272739554835,-0.0004608150974190327
2.7611713446144495,0.0006394105233840867
2.7696152936805487,-0.0034943348826183443
2.778059242746648,-0.006115678231463851
2.786503191812747,-0.0029778680780607374
2.7949471408788464,0.0011374710278660143
2.8033910899449457,-0.0011866986300798695
2.811835039011045,-0.010187902656712634
2.820278988077144,-0.020877318635179862
2.8287229371432434,-0.032221196672721455
2.837166886209342,-0.04515044109104475
2.845610835275442,-0.054279420472255736
2.8540547843415407,-0.05279853771555285
2.8624987334076404,-0.042860772248672255
2.8709426824737396,-0.03193494383946855
2.879386631539839,-0.023830516847202443
2.887830580605938,-0.017377394369737415
2.896274529672037,-0.007971721210019211
2.9047184787381366,0.009104871427619926
2.9131624278042354,0.036861578278151536
2.921606376870335,0.07753074182663443
2.930050325936434,0.12137772357397143
2.938494275002533,0.13715718997327972
2.946938224068633,0.10183387077866726
2.9553821731347316,0.035152761884029854
2.9638261222008313,-0.02049853439758937
2.97227007126693,-0.039778125727133386
2.98071402033303,-0.02159986193480154
2.9891579693991286,0.02428938278350206
2.997601918465228,0.08618964362318242
3.0060458675313275,0.14316890776176233
3.0144898165974263,0.1625507448195932
3.022933765663526,0.1320076960921227
3.031377714729625,0.07923232767214852
3.039821663795724,0.036728768272146946
3.0482656128618233,0.013049261650340843
3.0567095619279225,0.0029382079878860065
3.065153510994022,-0.0016839899491952646
3.073597460060121,-0.006054971946814588
3.0820414091262207,-0.005595463560276558
3.0904853581923195,0.01055283133212755
3.0989293072584188,0.046450424040614856
3.107373256324518,0.0866192641338434
3.1158172053906172,0.10058843012622486
3.1242611544567165,0.07551205155614868
3.1327051035228157,0.033894383642304036
3.141149052588915,0.005311730128792012
3.149593001655014,-0.0011307188178267219
3.1580369507211135,0.005823596734158654
3.1664808997872127,0.012941583032894931
3.174924848853312,0.014586078024670596
3.183368797919411,0.01411122893666736
3.1918127469855104,0.014194165184670447
3.2002566960516092,0.013735241783055638
3.208700645117709,0.011405584173236975
3.217144594183808,0.005542906208663528
3.2255885432499074,-0.003512861330144155
3.2340324923160066,-0.010916565147410509
3.2424764413821054,-0.012914637792697088
3.250920390448205,-0.008912168331711611
3.259364339514304,0.0025024492013055745
3.2678082885804036,0.020097897032638708
3.2762522376465024,0.035315223310628696
3.284696186712602,0.03989005191578971
3.2931401357787013,0.03478272463294199
3.3015840848448,0.025807760121013535
3.3100280339109,0.016925819677254046
3.3184719829769986,0.009168035975299138
3.3269159320430983,-0.0005097196759220133
3.335359881109197,-0.01467171655326334
3.343803830175297,-0.0289907967410896
3.352247779241396,-0.03677057291862185
3.360691728307495,-0.035982621746380644
3.3691356773735945,-0.0291629747878554
3.3775796264396933,-0.019795235869812435
3.386023575505793,-0.009781470427851126
3.394467524571892,-0.0003517534101386637
3.402911473637991,0.0054022307907163085
3.4113554227040903,0.001898139297285479
3.4197993717701896,-0.016998252122427223
3.4282433208362892,-0.05597131196285962
3.436687269902388,-0.11533284167830413
3.4451312189684877,-0.1769275787818018
3.4535751680345865,-0.19969694046509495
3.4620191171006858,-0.15998469818899408
3.470463066166785,-0.08266159641957092
3.4789070152328843,-0.009777453311531872
3.4873509642989835,0.0333305137143186
3.4957949133650827,0.038758750336944946
3.504238862431182,0.01285272636168775
3.5126828114972812,-0.02598088952769741
3.5211267605633805,-0.054480551471775655
3.5295707096294797,-0.05744533482995712
3.538014658695579,-0.03854483653676366
3.546458607761678,-0.01288308703229387
3.5549025568277774,0.008451069580032007
3.5633465058938767,0.021319063472769257
3.571790454959976,0.024389772896012612
3.580234404026075,0.017798455908078874
3.5886783530921744,0.001965566064880762
3.5971223021582737,-0.02081402686803745
3.6055662512243725,-0.04102241846192252
3.614010200290472,-0.045776324339234
3.622454149356571,-0.03249842221057611
3.6308980984226706,-0.012589176280660875
3.63934204748877,0.0010735683731147871
3.647785996554869,0.005434146277700699
3.6562299456209684,0.005634034381637672
3.664673894687067,0.006485017224834684
3.673117843753167,0.008516000320598073
3.6815617928192657,0.012726877129172455
3.6900057418853653,0.023153973800118195
3.6984496909514646,0.0382950945895199
3.7068936400175634,0.045310713186263556
3.715337589083663,0.03368942916341492
3.723781538149762,0.010909668773630858
3.7322254872158616,-0.005941434430516395
3.7406694362819604,-0.007404081496883583
3.74911338534806,0.004394622726012242
3.757557334414159,0.020170606335028433
3.766001283480258,0.030139884969184412
3.7744452325463578,0.03032800096158649
3.7828891816124566,0.024680594324304472
3.7913331306785563,0.020543190855799365
3.799777079744655,0.019789103289072303
3.8082210288107547,0.017422713073514357
3.8166649778768535,0.010387472112120903
3.825108926942953,0.0018206583751590386
3.833552876009052,-0.004581352620309347
3.8419968250751513,-0.008523625808788822
3.850440774141251,-0.011586175645460658
3.8588847232073498,-0.015451191098087033
3.867328672273449,-0.02007709563054372
3.8757726213395483,-0.023558284290446024
3.8842165704056475,-0.024511330060806805
3.8926605194717467,-0.022048024250470366
3.901104468537846,-0.013918602484242643
3.9095484176039452,0.0023888384379390257
3.9179923666700445,0.023758348757394618
3.926436315736144,0.03871921103534138
3.9348802648022425,0.038938241809472
3.943324213868342,0.029028709976497463
3.9517681629344414,0.017113515751115513
3.960212112000541,0.0055523535164615796
3.9686560610666395,-0.004985687415280922
3.977100010132739,-0.011948169938640263
3.985543959198839,-0.013749390578475235
3.993987908264937,-0.0118926827735539
4.002431857331037,-0.008934712011225478
4.010875806397136,-0.005733870541497895
4.0193197554632345,-0.0007772795608614897
4.027763704529335,0.0078101472459347725
4.036207653595434,0.017856706801109175
4.044651602661533,0.021416024737957423
4.053095551727632,0.012188649265728277
4.061539500793732,-0.005172817062233185
4.069983449859831,-0.01782454538628198
4.078427398925929,-0.015666413150101744
4.086871347992029,0.0011927045637878725
4.095315297058129,0.022457313368349777
4.103759246124228,0.03676947326343064
4.112203195190326,0.04281420388043717
4.120647144256426,0.04773736933802707
4.1290910933225256,0.05343879263467835
4.137535042388624,0.05137876329075493
4.145978991454724,0.0355013177515587
4.154422940520823,0.012631891127784107
4.1628668895869225,-0.00555828550176172
4.171310838653021,-0.014831197166126681
4.179754787719121,-0.019275859653641533
4.18819873678522,-0.023139046117883047
4.196642685851319,-0.025020859800115466
4.205086634917419,-0.021250243900465267
4.213530583983518,-0.012247316192686637
4.221974533049616,-0.002705229274915623
4.230418482115716,0.003449505525438651
4.238862431181816,0.005705608694394354
4.247306380247915,0.00542096721252353
4.255750329314013,0.004630578680359997
4.2641942783801134,0.006131488360577578
4.272638227446213,0.012793958118913023
4.281082176512311,0.02589862848635208
4.28952612557841,0.04094590412961258
4.29797007464451,0.046209872879140065
4.30641402371061,0.034157714700713486
4.314857972776708,0.011925396908189705
4.323301921842807,-0.006824676199637749
4.331745870908907,-0.01496970566438429
4.340189819975006,-0.014520376852857274
4.348633769041105,-0.011827593558751771
4.357077718107205,-0.011706756008893067
4.365521667173304,-0.014074582596465062
4.373965616239403,-0.015109818659797577
4.382409565305502,-0.01227912966210046
4.390853514371602,-0.007224091742264268
4.3992974634377005,-0.0028828171950467073
4.4077414125038,0.0007643201217919973
4.4161853615699,0.006939327653894215
4.424629310635999,0.01744292465803562
4.433073259702097,0.02970604035030795
4.441517208768197,0.040251300181515993
4.449961157834297,0.04765534948758709
4.458405106900395,0.049397499392655995
4.466849055966494,0.04029977348355994
4.4752930050325945,0.01952239388497826
4.483736954098693,-0.004162806610450804
4.492180903164792,-0.0192803616237192
4.500624852230891,-0.022770186206767927
4.5090688012969915,-0.02226887804952377
4.51751275036309,-0.027089913596879536
4.525956699429189,-0.0372849687851903
4.534400648495288,-0.04311462982795359
4.542844597561388,-0.037405465128663294
4.551288546627487,-0.02512716570458891
4.559732495693586,-0.016534146843009613
4.568176444759686,-0.015381453631447094
4.576620393825785,-0.017912373023106103
4.585064342891884,-0.021314710482655885
4.593508291957983,-0.02685604320925563
4.601952241024082,-0.03215534925215426
4.6103961900901815,-0.029410743636808723
4.618840139156281,-0.014969467852169396
4.627284088222381,0.004726333541809369
4.635728037288479,0.017917156571858196
4.6441719863545785,0.01817897112637003
4.652615935420678,0.0089286386800938
4.661059884486777,-0.002609732812606923
4.669503833552876,-0.011214631013103315
4.6779477826189755,-0.014858040543317552
4.686391731685075,-0.01432626315040473
4.694835680751174,-0.011032593906473752
4.703279629817273,-0.005620948710086182
4.7117235788833725,0.0005059466622602894
4.720167527949472,0.005333145019212492
4.728611477015571,0.008207762161237015
4.73705542608167,0.009640534645240404
4.745499375147769,0.0116197288955763
4.753943324213869,0.01814350053932389
4.762387273279968,0.030281093799576934
4.770831222346067,0.04127709640768714
4.779275171412166,0.04275220610536465
4.787719120478266,0.034553617872841454
4.796163069544365,0.0234566832428656
4.804607018610463,0.014659564610989563
4.813050967676563,0.00804101487480831
4.821494916742663,0.001524734477495716
4.829938865808762,-0.0055662345695348696
4.838382814874861,-0.012708992195500875
4.84682676394096,-0.016876838640570845
4.85527071300706,-0.012648326865404246
4.863714662073158,0.001888683214327915
4.872158611139258,0.022151244827692998
4.880602560205357,0.040510939295049835
4.889046509271457,0.048930953976403624
4.897490458337556,0.04131965551409042
4.905934407403655,0.0199158420564432
4.914378356469754,-0.007576359516382141
4.922822305535853,-0.04501943269747404
4.931266254601953,-0.10557390195379894
4.939710203668052,-0.1780836746062641
4.94815415273415,-0.21609248425380737
4.9565981018002505,-0.185711601621731
4.96504205086635,-0.10650890519206947
4.973485999932449,-0.024422044022973714
4.981929948998547,0.029745778718254158
4.9903738980646475,0.04798403793768882
4.998817847130747,0.03997774444066884
5.007261796196845,0.023451336837161184
5.015705745262944,0.009199209128168895
5.0241496943290445,-0.0038213590749929124
5.032593643395144,-0.021054056029795716
5.041037592461242,-0.04389106816004182
5.049481541527342,-0.0636617264248081
5.057925490593441,-0.06415188037751782
5.06636943965954,-0.04033954039234571
5.074813388725639,-0.008496182828386625
5.083257337791739,0.012544613786878015
5.091701286857838,0.019795545383255196
5.100145235923937,0.022888065051861216
5.108589184990037,0.03034076806403115
5.117033134056136,0.03942163275808474
5.1254770831222345,0.040875785450974485
5.133921032188334,0.030563264288545118
5.142364981254434,0.01114346823078095
5.150808930320532,-0.01096738549589069
5.1592528793866315,-0.027389753905379777
5.167696828452732,-0.03289706905385233
5.176140777518831,-0.02815193610005493
5.184584726584929,-0.015628535793132708
5.193028675651028,0.0030226577948006443
5.201472624717129,0.024581717201395927
5.209916573783227,0.043260638765825164
5.218360522849326,0.05387956246616217
5.226804471915425,0.054904408341230955
5.2352484209815255,0.0487831247894434
5.243692370047624,0.03895190391303084
5.252136319113723,0.026807343818005158
5.260580268179823,0.013899463806879987
5.269024217245922,0.00386733981758681
5.277468166312021,-0.0021455852024143936
5.28591211537812,-0.009843090439607927
5.29435606444422,-0.027374352579631823
5.302800013510319,-0.05448169769030353
5.311243962576418,-0.07838254714012205
5.319687911642518,-0.08424818813744668
5.328131860708616,-0.06715326914925852
5.336575809774716,-0.03244901545241221
5.345019758840815,0.008760403711551375
5.353463707906914,0.039077675588385694
5.361907656973013,0.037910626921277814
5.3703516060391125,0.0033173416421227713
5.378795555105213,-0.035955142661826166
5.387239504171311,-0.050455185906730655
5.39568345323741,-0.038243511305999865
5.4041274023035095,-0.013026021607211367
5.412571351369609,0.014401809696176868
5.421015300435708,0.03594350042166749
5.429459249501807,0.0431910899451427
5.4379031985679065,0.03482012465723988
5.446347147634006,0.019844126296894766
5.454791096700105,0.006992484252499152
5.463235045766204,-0.0011184437166554448
5.4716789948323035,-0.002492618710715445
5.480122943898403,0.006742228008014257
5.488566892964502,0.027209498534715118
5.497010842030601,0.050332727094586936
5.5054547910967,0.061889503975986665
5.5138987401628,0.05575759791684149
5.522342689228899,0.03897235485825002
5.530786638294998,0.021467246982294717
5.539230587361097,0.010291540356965351
5.547674536427197,0.012745214304218207
5.556118485493296,0.0336625800534622
5.564562434559395,0.06529189991482257
5.573006383625494,0.08650967644558549
5.581450332691594,0.08267500287838493
5.589894281757693,0.05948714399730133
5.598338230823792,0.028568263702440453
5.606782179889891,-0.003175981511596741
5.61522612895599,-0.026373298923061922
5.62367007802209,-0.03292329420437506
5.632114027088189,-0.02611781806098881
5.640557976154288,-0.015073241558618253
5.649001925220388,-0.004169234980921128
5.657445874286487,0.007831159527886069
5.665889823352586,0.022939488343856496
5.674333772418684,0.039230235302121705
5.6827777214847845,0.04900001361446492
5.691221670550884,0.045405209908394174
5.699665619616983,0.03198786433060313
5.708109568683081,0.019341752536738244
5.7165535177491815,0.013814847445359563
5.724997466815281,0.013284861043394483
5.733441415881379,0.010815873893163882
5.741885364947479,0.00219959185947329
5.7503293140135785,-0.009549274697599544
5.758773263079678,-0.01805565369061215
5.767217212145776,-0.018977732275926924
5.775661161211876,-0.011896500711859504
5.7841051102779755,-0.0019904179992098234
5.792549059344074,0.0007309192549378781
5.800993008410174,-0.011438016558638481
5.809436957476273,-0.03712055860292833
5.8178809065423716,-0.06506229677183537
5.826324855608471,-0.07891616066984636
5.834768804674571,-0.07066774913131314
5.84321275374067,-0.05029900576594097
5.8516567028067685,-0.03363894136295973
5.860100651872868,-0.026274808434425728
5.868544600938968,-0.02548938335133833
5.876988550005066,-0.02834246191248141
5.8854324990711655,-0.032345161443144525
5.893876448137266,-0.032533431983224496
5.902320397203365,-0.022638174524526992
5.910764346269463,-0.0032989770060772323
5.9192082953355625,0.013603309120437085
5.927652244401663,0.01650878350946125
5.936096193467761,0.007460309055654653
5.94454014253386,-0.0019781253973260773
5.95298409159996,-0.003303481855121444
5.96142804066606,0.005169823628543345
5.969871989732158,0.02238091581116838
5.978315938798257,0.04482626861899596
5.986759887864357,0.06345982366807947
5.995203836930456,0.06889700210401055
6.003647785996555,0.06026204797756648
6.012091735062655,0.04395184728532726
6.020535684128754,0.026543089559902082
6.028979633194853,0.009669406892017746
6.037423582260952,-0.011793096586262326
6.045867531327052,-0.0464756414847564
6.05431148039315,-0.09808715872527415
6.06275542945925,-0.15156678278488203
6.07119937852535,-0.17120106285899664
6.079643327591448,-0.1347871409979019
6.088087276657547,-0.06502382438266292
6.096531225723647,-0.006132922657198187
6.104975174789747,0.01834474216533065
6.113419123855845,0.014270604639488788
6.121863072921944,-0.0006910558385495903
6.130307021988044,-0.01251647739561618
6.138750971054143,-0.01252293016940076
6.147194920120242,0.0049397390996253855
6.155638869186341,0.03947537538690382
6.164082818252441,0.07827250349902647
6.17252676731854,0.09763720673485192
6.180970716384639,0.08445529234111333
6.189414665450738,0.05278353316784639
6.1978586145168375,0.02565156295523475
6.206302563582937,0.011227795972823633
6.214746512649036,0.00415621732584011
6.223190461715136,-0.002706339579545008
6.2316344107812345,-0.011910285554631094
6.240078359847334,-0.021030296257541513
6.248522308913433,-0.026134532689829983
6.256966257979532,-0.025677786513383524
6.2654102070456315,-0.021121219100498523
6.273854156111731,-0.013975140663731218
6.28229810517783,-0.0045370779825837405
6.290742054243929,0.005222736183720599
6.299186003310028,0.010614900291072512
6.307629952376128,0.007295439358704157
6.316073901442227,-0.005907152142993086
6.324517850508326,-0.02332261735676889
6.332961799574425,-0.031536004935446456
6.341405748640524,-0.02250682305117778
6.349849697706624,-0.0051976298808091605
6.358293646772723,0.005591277456345324
6.366737595838822,0.0035625024888394988
6.375181544904922,-0.00878156010999806
6.383625493971021,-0.02385930858954932
6.39206944303712,-0.03328696698456714
6.4005133921032185,-0.03279811261531158
6.408957341169319,-0.02491090721425893
6.417401290235418,-0.016888991035273963
6.425845239301517,-0.01307980323441587
6.434289188367616,-0.010817272623661854
6.442733137433716,-0.005827585138170322
6.451177086499815,0.00220093025230956
6.459621035565913,0.010233433494947172
6.468064984632013,0.014464442311758047
6.4765089336981125,0.014272209266416803
6.484952882764211,0.01614767560930107
6.493396831830311,0.02857589717157881
6.50184078089641,0.04924285448248441
6.5102847299625095,0.06323097244629854
6.518728679028608,0.060718963602268326
6.527172628094708,0.04866904193677682
6.535616577160807,0.03828682221154653
6.544060526226906,0.031422802550957786
6.552504475293005,0.022078744656117175
6.560948424359105,0.004773456950191327
6.569392373425204,-0.016191543605050287
6.577836322491303,-0.026910230173588002
6.586280271557403,-0.018782987474716257
6.594724220623502,0.0015469521820070456
6.6031681696896,0.021173053042412664
6.6116121187556995,0.03273695703191352
6.6200560678218,0.03486604494464225
6.628500016887899,0.028913529183729095
6.636943965953997,0.018925774582432935
6.645387915020097,0.011919602915686014
6.653831864086197,0.014743850803623611
6.662275813152295,0.028167649499119554
6.670719762218394,0.04434777703896018
6.679163711284494,0.05194507996293114
6.687607660350594,0.04571911574208071
6.696051609416692,0.030644686164909486
6.704495558482792,0.016159578086571175
6.712939507548891,0.008222785911430606
6.72138345661499,0.005962123841439302
6.729827405681089,0.0052306570167402755
6.738271354747189,0.004974160297377308
6.746715303813287,0.007832925537480143
6.755159252879387,0.016442663767777168
6.763603201945486,0.03158796707463306
6.772047151011586,0.04922515897875631
6.780491100077684,0.057997356596760294
6.788935049143784,0.04862193408860523
6.797378998209884,0.02564857171978016
6.805822947275982,0.003130495749890494
6.814266896342081,-0.0075150277563469986
6.822710845408181,-0.005218697955050026
6.831154794474281,0.000595687731539818
6.839598743540379,-0.00021953042883721564
6.848042692606478,-0.00965164189236886
6.8564866416725785,-0.02301028794395829
6.864930590738677,-0.033267951536492466
6.873374539804776,-0.03436777188479827
6.881818488870875,-0.02517874997020392
6.8902624379369755,-0.00930221198482652
6.898706387003074,0.008355599021712262
6.907150336069173,0.022561839192887963
6.915594285135273,0.029258641082793062
6.9240382342013715,0.028593035756901898
6.932482183267471,0.025266012519528383
6.94092613233357,0.024868318309699232
6.949370081399669,0.027552440010624738
6.9578140304657685,0.026612069040911852
6.966257979531868,0.01699605054504251
6.974701928597967,0.0033302825680099307
6.983145877664066,-0.004722417721146249
6.9915898267301655,-0.003407955676179162
7.000033775796265,0.0032015974943614663
7.008477724862364,0.009249832745830792
7.016921673928463,0.010998733530625315
7.0253656229945625,0.008056242410812403
7.033809572060662,0.0031690484316910564
7.042253521126761,1.015709493310351e-05
7.05069747019286,0.00035640174522974413
7.059141419258959,-0.0009328077903367014
7.067585368325059,-0.017855339408375446
7.076029317391158,-0.059640945095776
7.084473266457257,-0.11066275705931872
7.092917215523356,-0.13396370279882389
7.101361164589456,-0.10832790614650364
7.109805113655555,-0.054728800973299234
7.118249062721654,-0.012437212672437473
7.126693011787753,-0.003159751779706019
7.135136960853853,-0.02295021798740749
7.143580909919952,-0.05021538850723217
7.152024858986051,-0.061912736380254865
7.16046880805215,-0.04976357840002561
7.16891275711825,-0.02063854735409627
7.177356706184349,0.013566653599595711
7.185800655250448,0.0422484437698875
7.194244604316547,0.05641928441710083
7.202688553382647,0.05130888455687297
7.211132502448745,0.031166302581153132
7.219576451514845,0.006775583436360506
7.228020400580944,-0.011113788883340586
7.2364643496470435,-0.015790724732959102
7.244908298713142,-0.00749709747691431
7.253352247779242,0.006246331533096115
7.261796196845341,0.01584309873363023
7.27024014591144,0.01702576291459662
7.27868409497754,0.012313523763214047
7.287128044043639,0.005168803834186151
7.295571993109738,-0.0032403749732640326
7.304015942175837,-0.011342283286247545
7.312459891241937,-0.01679659476447903
7.320903840308036,-0.019211766084883376
7.329347789374134,-0.019919711049742078
7.3377917384402345,-0.020209979037316122
7.346235687506334,-0.02067998853967581
7.354679636572433,-0.020150899901969575
7.363123585638531,-0.015361115600221905
7.371567534704631,-0.004763216605836808
7.380011483770731,0.006740048720709759
7.388455432836829,0.010965501650866108
7.396899381902929,0.005206307952747825
7.405343330969028,-0.006053637135147522
7.413787280035127,-0.01578268064128708
7.422231229101226,-0.017804414046707018
7.430675178167326,-0.010617915813893871
7.439119127233425,-7.287472281326379e-05
7.447563076299524,0.005070529354026151
7.456007025365623,0.001657507928183989
7.464450974431723,-0.005234644470266095
7.4728949234978215,-0.009253027901383298
7.481338872563921,-0.010180306156739498
7.489782821630021,-0.01151156815707122
7.49822677069612,-0.012849608964873763
7.5066707197622184,-0.01022284682195771
7.515114668828318,-0.0024410594751350535
7.523558617894418,0.008306915146360262
7.532002566960516,0.020484660715328066
7.540446516026615,0.03386680938665529
7.5488904650927156,0.04572023422454942
7.557334414158815,0.04909882694966776
7.565778363224913,0.03955461292245218
7.574222312291012,0.02237232874872131
7.5826662613571125,0.007322194833933067
7.591110210423211,-0.0024366608644772973
7.59955415948931,-0.0111868695357422
7.60799810855541,-0.02153193198140381
7.6164420576215095,-0.028097716011651834
7.624886006687608,-0.024439160626981087
7.633329955753707,-0.016522026754135215
7.641773904819807,-0.020333016491542583
7.650217853885906,-0.04174981119261424
7.658661802952005,-0.06712551210369595
7.667105752018104,-0.07834753771833604
7.675549701084203,-0.06936846685875835
7.683993650150303,-0.04662320293229669
7.692437599216402,-0.022829861460760662
7.700881548282502,-0.009786158104728491
7.7093254973486,-0.009871886294981015
7.7177694464146995,-0.015345815126432887
7.726213395480799,-0.018169880263567303
7.734657344546898,-0.016090588717910494
7.743101293612997,-0.008489693809695302
7.7515452426790965,0.006537976057263682
7.759989191745197,0.029324477245259398
7.768433140811295,0.05386767700186428
7.776877089877394,0.06816488687135278
7.7853210389434935,0.06559847099000642
7.793764988009593,0.04935817873462332
7.802208937075692,0.021674287136170763
7.810652886141791,-0.013132002098011434
7.8190968352078905,-0.03664696806930832
7.827540784273991,-0.03062165131111122
7.835984733340089,0.00017231875790825815
7.844428682406187,0.032183515883199634
7.852872631472288,0.04586364377915993
7.861316580538387,0.03943013335940562
7.869760529604485,0.023634116657138177
7.878204478670585,0.009862270893015807
7.886648427736684,0.003549624253198242
7.895092376802783,0.0037967020521229777
7.903536325868883,0.007419078402366468
7.911980274934982,0.013609190007742874
7.920424224001082,0.022247745898696294
7.928868173067181,0.028211846746273413
7.937312122133279,0.026583221381630707
7.94575607119938,0.02088585149944267
7.954200020265478,0.016167285454551202
7.962643969331577,0.011806859360642272
7.971087918397678,0.006401598645261755
7.979531867463776,0.0011301250773663224
7.987975816529874,-0.0030196447890078054
7.996419765595975,-0.005667637514421247
8.004863714662074,-0.006588368681172667
8.013307663728172,-0.0078118019094118845
8.021751612794272,-0.01153144327069745
8.03019556186037,-0.015088682240188615
8.038639510926469,-0.012468498356985153
8.047083459992571,-0.0022406785442879444
8.05552740905867,0.00862009728437295
8.06397135812477,0.01172418927531294
8.072415307190868,0.005933063249752659
8.080859256256966,-0.004031205277866711
8.089303205323066,-0.013869482427876363
8.097747154389165,-0.019024000168532933
8.106191103455265,-0.013328917831429064
8.114635052521365,0.002493071187498664
8.123079001587463,0.016678095066803244
8.131522950653562,0.019401517665927296
8.139966899719662,0.01318391579092181
8.14841084878576,0.0059893322727570236
8.156854797851858,0.002312691840527457
8.165298746917959,0.002261832061723772
8.173742695984059,0.0038493084111797305
8.182186645050159,0.005101700356260746
8.190630594116257,0.005088829810758793
8.199074543182356,0.004429313721366554
8.207518492248456,0.005529440639317136
8.215962441314554,0.011448642114277421
8.224406390380652,0.022288322873295716
8.232850339446754,0.03348560173611926
8.241294288512853,0.040740359543262175
8.249738237578951,0.0435441256229947
8.258182186645051,0.04228642024394229
8.26662613571115,0.03737682716798274
8.275070084777248,0.030447206691270757
8.283514033843348,0.022429231968891312
8.291957982909448,0.013047525870926526
8.300401931975546,0.003832995992409792
8.308845881041647,-0.001124388022427582
8.317289830107745,0.000909848449653332
8.325733779173845,0.008337950124869903
8.334177728239943,0.016363240275793788
8.342621677306042,0.019850997919626016
8.351065626372144,0.017601999093697567
8.359509575438242,0.013563426434205703
8.36795352450434,0.010834007482722738
8.37639747357044,0.007420718737565794
8.384841422636539,0.000243720792466118
8.393285371702637,-0.009899894008058031
8.401729320768737,-0.019104108527196732
8.410173269834837,-0.024231988623261633
8.418617218900936,-0.024231323408461087
8.427061167967036,-0.018280533273418324
8.435505117033134,-0.006405752326841473
8.443949066099233,0.005673394995107077
8.452393015165333,0.005423516693140165
8.460836964231431,-0.02083131735559246
8.469280913297533,-0.07916859497886512
8.477724862363631,-0.15281589335498078
8.48616881142973,-0.1983282368580741
8.49461276049583,-0.18321329208008327
8.503056709561928,-0.12142797018145116
8.511500658628027,-0.05285820256614075
8.519944607694127,-0.00681122331158613
8.528388556760227,0.009251750610913722
8.536832505826325,0.004649482721307207
8.545276454892425,-0.007171832222792187
8.553720403958524,-0.018864548893541715
8.562164353024622,-0.028131253200028964
8.570608302090722,-0.032277018662319704
8.57905225115682,-0.02899276458704679
8.587496200222922,-0.0207474315918906
8.59594014928902,-0.011988423392815454
8.60438409835512,-0.0027810391250167746
8.61282804742122,0.009514215538365598
8.621271996487318,0.024529532294910818
8.629715945553416,0.03857202194485926
8.638159894619516,0.04757365154176062
8.646603843685615,0.04778737423817334
8.655047792751715,0.036925473434000725
8.663491741817815,0.018188232866239506
8.671935690883913,0.0004038107973586306
8.680379639950011,-0.007483780828661172
8.688823589016112,-0.0011731523047957227
8.69726753808221,0.0164284054784031
8.705711487148308,0.034882772200325894
8.71415543621441,0.04219274737131504
8.722599385280509,0.03515075649439009
8.731043334346609,0.021038494816171854
8.739487283412707,0.007244936365500876
8.747931232478805,-0.005017067960396004
8.756375181544906,-0.016478610161246025
8.764819130611004,-0.025325283027880244
8.773263079677104,-0.028422530104739146
8.781707028743204,-0.026333379121176875
8.790150977809303,-0.02387219542707296
8.798594926875401,-0.023848619072160734
8.807038875941501,-0.024239721908021927
8.8154828250076,-0.021892816742078228
8.823926774073698,-0.01634725033527356
8.8323707231398,-0.009771702907010495
8.840814672205898,-0.00322513493598161
8.849258621271998,0.005579207876354595
8.857702570338096,0.018934040588236316
8.866146519404195,0.03288770653609215
8.874590468470295,0.037008587683374984
8.883034417536393,0.02580789897226613
8.891478366602493,0.007077889434059866
8.899922315668594,-0.007679373461655553
8.908366264734692,-0.015761778000923328
8.91681021380079,-0.02059499821855782
8.92525416286689,-0.022779753388364417
8.933698111932989,-0.019520635607336162
8.942142060999087,-0.009184559448065337
8.950586010065189,0.00571561251426786
8.959029959131287,0.017596012261429917
8.967473908197386,0.017795681535629573
8.975917857263486,0.00328772961074642
8.984361806329584,-0.020283352358390162
8.992805755395684,-0.039548735204290156
9.001249704461783,-0.04124105782289475
9.009693653527883,-0.02572426267958884
9.018137602593983,-0.007398117752861277
9.026581551660081,0.003002386790764969
9.03502550072618,0.007692632751181285
9.04346944979228,0.012187069939604753
9.051913398858378,0.016781522502755022
9.060357347924477,0.018518588004692693
9.068801296990577,0.015132462412382152
9.077245246056677,0.0060692767489532486
9.085689195122775,-0.006374665466518022
9.094133144188875,-0.015859902298504525
9.102577093254974,-0.016350914973678944
9.111021042321072,-0.007617317899409287
9.119464991387172,0.006464294237056658
9.12790894045327,0.02154961732994479
9.136352889519372,0.032390426263336575
9.14479683858547,0.032607374383916046
9.15324078765157,0.020459856153124057
9.16168473671767,0.003514299923283778
9.170128685783768,-0.008504139857565951
9.178572634849866,-0.012567319869449999
9.187016583915966,-0.011681994953357281
9.195460532982066,-0.009685213003868008
9.203904482048165,-0.005918578037746098
9.212348431114265,0.004930966168179435
9.220792380180363,0.025146539094900725
9.229236329246461,0.04806479272965065
9.237680278312562,0.06237689911329806
9.24612422737866,0.06437606810729768
9.254568176444762,0.06041192864607359
9.26301212551086,0.05337674796334577
9.271456074576959,0.03965453096086231
9.279900023643059,0.019264996554936388
9.288343972709157,-0.0023799462699217898
9.296787921775255,-0.017632566229729398
9.305231870841356,-0.022575351179272087
9.313675819907456,-0.02547404050570918
9.322119768973554,-0.039846540006792865
9.330563718039654,-0.06561103069616268
9.339007667105752,-0.08549803808240444
9.34745161617185,-0.08359165998523702
9.355895565237951,-0.058883754685407345
9.36433951430405,-0.01650264287411786
9.37278346337015,0.03983540177137828
9.38122741243625,0.0966251583740551
9.389671361502348,0.12631940010310136
9.398115310568448,0.11446260820828233
9.406559259634546,0.07938083812551364
9.415003208700645,0.047575966250321206
9.423447157766745,0.027237437343599444
9.431891106832845,0.011885308513125534
9.440335055898943,-0.0055601822018954495
9.448779004965044,-0.025355307395767895
9.457222954031142,-0.044633944692965485
9.46566690309724,-0.05975474532010038
9.47411085216334,-0.06315855315221423
9.482554801229439,-0.05162940340830379
9.490998750295539,-0.03477223716014081
9.499442699361639,-0.024356722299527483
9.507886648427737,-0.023352994581107955
9.516330597493837,-0.0287263894028517
9.524774546559936,-0.03501002107842589
9.533218495626034,-0.03427329693433239
9.541662444692134,-0.018315045837897573
9.550106393758233,0.017723584253106935
9.558550342824333,0.07217246327597807
9.566994291890433,0.1285403966502314
9.575438240956531,0.1536148324672029
9.58388219002263,0.12702871181893288
9.59232613908873,0.06834508641316615
9.600770088154828,0.013945529346916551
9.609214037220926,-0.01752119823617799
9.617657986287028,-0.026979296637940107
9.626101935353127,-0.022371326893992204
9.634545884419225,-0.012279715663899696
9.642989833485325,-0.0032749970556124677
9.651433782551424,0.0030811944173881373
9.659877731617524,0.00806280897535014
9.668321680683622,0.010041268659640215
9.676765629749722,0.006761910053011827
9.685209578815822,-0.0009662945296101729
9.69365352788192,-0.01284132136511728
9.702097476948019,-0.028685610197225615
9.71054142601412,-0.04354779681507626
9.718985375080218,-0.04986222942469987
9.727429324146316,-0.04462870369590581
9.735873273212418,-0.03188843566772431
9.744317222278516,-0.01835136047284444
9.752761171344615,-0.008705809319831666
9.761205120410715,-0.00374992007111565
9.769649069476813,-0.001054957267728559
9.778093018542913,0.0007686858522248953
9.786536967609011,0.000984430288067788
9.794980916675112,0.001672244395220234
9.803424865741212,0.006315977180673889
9.81186881480731,0.012320768168880041
9.820312763873408,0.01329337101405907
9.828756712939509,0.008428487544996225
9.837200662005607,0.0031015036390306403
9.845644611071705,0.000850072129781478
9.854088560137807,-4.0516777774185215e-05
9.862532509203906,-0.001610224986570774
9.870976458270004,-0.002173512546615513
9.879420407336104,0.0007542800072465697
9.887864356402202,0.005330580791185369
9.8963083054683,0.006220754801527984
9.904752254534401,0.0007658819323911409
9.913196203600501,-0.007940785160912851
9.921640152666601,-0.013117200450281844
9.9300841017327,-0.008315244000447893
9.938528050798798,0.006778596375452914
9.946971999864898,0.023087004580389803
9.955415948930996,0.028832245619180245
9.963859897997095,0.02153547814939008
9.972303847063195,0.010993943409578889
9.980747796129295,0.00916988124311376
9.989191745195393,0.017723259424153526
9.997635694261493,0.026382354065295755
10.006079643327592,0.024636846373792112
10.01452359239369,0.012267698597418907
10.02296754145979,-0.0022229811705412332
10.031411490525889,-0.00927434756260489
10.039855439591989,-0.0053185432397190105
10.048299388658089,0.0045205430562264715
10.056743337724187,0.010441060266892335
10.065187286790287,0.006245035346429114
10.073631235856386,-0.0048267391761364345
10.082075184922484,-0.013504103436735934
10.090519133988584,-0.013674575697841801
10.098963083054684,-0.007422241708124709
10.107407032120783,-0.0020465758685236676
10.115850981186883,-0.002505528717428022
10.124294930252981,-0.0072469202716904145
10.13273887931908,-0.011949958154474654
10.14118282838518,-0.014165441162606197
10.149626777451278,-0.012764648837385243
10.158070726517378,-0.008083375877732599
10.166514675583478,-0.004375110531274972
10.174958624649577,-0.007108018830810043
10.183402573715677,-0.01639344249423345
10.191846522781775,-0.025805744472456173
10.200290471847874,-0.028032801475295036
10.208734420913974,-0.01991499309543792
10.217178369980074,-0.002319667220954806
10.225622319046172,0.0210445448998281
10.234066268112272,0.04199227038971556
10.24251021717837,0.04970230586643111
10.250954166244469,0.0405443480257407
10.259398115310569,0.022510309327160763
10.267842064376667,0.006351878480074971
10.276286013442768,-0.0030520072568714124
10.284729962508868,-0.007506981633646486
10.293173911574966,-0.011498350274130629
10.301617860641064,-0.017587780845739552
10.310061809707165,-0.025648881629699284
10.318505758773263,-0.03192259892795001
10.326949707839363,-0.026220810702848724
10.335393656905463,0.004922525969013814
10.343837605971562,0.06690247059025158
10.352281555037662,0.13993394198568873
10.36072550410376,0.1784284410548873
10.369169453169858,0.15336820182836833
10.377613402235959,0.08550154008874378
10.386057351302057,0.015011466438727066
10.394501300368157,-0.03607601203161449
10.402945249434257,-0.06263612428970539
10.411389198500355,-0.06591885542036206
10.419833147566454,-0.05316992374572525
10.428277096632554,-0.03674145323638198
10.436721045698652,-0.026360242908507425
10.445164994764752,-0.02321311526893268
10.45360894383085,-0.021197046202894792
10.462052892896951,-0.013729528191583733
10.470496841963051,-0.0017859093005256317
10.47894079102915,0.006797613835929096
10.487384740095248,0.005800735000665769
10.495828689161348,-0.005826183517141506
10.504272638227446,-0.025623884521830127
10.512716587293545,-0.045369593464882695
10.521160536359647,-0.05044927631061269
10.529604485425745,-0.03310492876262064
10.538048434491843,-0.004904401997374205
10.546492383557943,0.013204495470013879
10.554936332624042,0.01094201129861962
10.56338028169014,-0.004370697939675692
10.57182423075624,-0.017405958827425898
10.58026817982234,-0.01892729221638254
10.58871212888844,-0.011390252064776268
10.597156077954539,-0.0033309628974281624
10.605600027020637,-0.0004476084526673621
10.614043976086737,-0.0023562295903447835
10.622487925152836,-0.005059111054012666
10.630931874218934,-0.0047118746816623034
10.639375823285036,-0.0006265780027764941
10.647819772351134,0.005205744495168776
10.656263721417233,0.010875860278745124
10.664707670483333,0.014993300658267723
10.673151619549431,0.01626938292987354
10.68159556861553,0.01293328666896129
10.69003951768163,0.002668896910634831
10.69848346674773,-0.013024342376110661
10.706927415813828,-0.026112353954233766
10.715371364879928,-0.02857428621275784
10.723815313946027,-0.021607160919267388
10.732259263012127,-0.013887289624804781
10.740703212078225,-0.010019624157371053
10.749147161144323,-0.007831478832883544
10.757591110210425,-0.00801459560883494
10.766035059276524,-0.018785075959578047
10.774479008342622,-0.048952166769626534
10.782922957408722,-0.09839092096246459
10.79136690647482,-0.14982606185195915
10.799810855540919,-0.17118631333366163
10.808254804607019,-0.14456603337237312
10.81669875367312,-0.08870650794449866
10.825142702739218,-0.035319043326710625
10.833586651805318,0.0011116481217457348
10.842030600871416,0.021369854166362227
10.850474549937516,0.02928937062217443
10.858918499003614,0.027846487106090882
10.867362448069713,0.019827832816376248
10.875806397135813,0.009692247321025887
10.884250346201913,0.004197486315011828
10.892694295268011,0.008984881174346877
10.901138244334112,0.02273117186870868
10.90958219340021,0.03550657401323747
10.918026142466308,0.03664449427177895
10.926470091532408,0.023599417269742625
10.934914040598507,0.0013530875885474289
10.943357989664607,-0.021693355272855628
10.951801938730707,-0.03527044216607301
10.960245887796805,-0.030515207890171345
10.968689836862904,-0.009189987073186714
10.977133785929004,0.012439450253777268
10.985577734995102,0.01900510291922611
10.994021684061202,0.011473039817717506
11.002465633127303,-0.00016169248977107586
11.0109095821934,-0.010872811700739818
11.019353531259501,-0.021373289281147453
11.0277974803256,-0.03149014026504775
11.036241429391698,-0.03739838998021139
11.044685378457798,-0.035075121102590805
11.053129327523896,-0.02516421128770652
11.061573276589996,-0.012979630544609006
11.070017225656096,-0.004559089620765762
11.078461174722195,-0.0034777743547098616
11.086905123788293,-0.008304027240606974
11.095349072854393,-0.012619971121843808
11.103793021920492,-0.01174101170701834
11.112236970986592,-0.008412764057816569
11.120680920052692,-0.008518576646003454
11.12912486911879,-0.012666837888885988
11.13756881818489,-0.015188596861824874
11.146012767250989,-0.01212542369796683
11.154456716317087,-0.005122764603730565
11.162900665383187,0.0036383923568371157
11.171344614449286,0.012645333168895887
11.179788563515386,0.018597067725917214
11.188232512581486,0.020605797918522975
11.196676461647584,0.023080224129779142
11.205120410713683,0.028255846747619343
11.213564359779783,0.030273673806659462
11.222008308845881,0.022427052540798093
11.23045225791198,0.007124309439256947
11.238896206978081,-0.004988778091698983
11.24734015604418,-0.0031933857172128524
11.25578410511028,0.017726936699407794
11.264228054176378,0.05816562611373169
11.272672003242477,0.10922459264909944
11.281115952308577,0.14448144314335212
11.289559901374675,0.1390187737888058
11.298003850440775,0.0993722676011689
11.306447799506875,0.05508448765685872
11.314891748572974,0.03021730178990653
11.323335697639072,0.03199078403220262
11.331779646705172,0.052212956866512616
11.34022359577127,0.07339932682410776
11.348667544837369,0.07984045944930834
11.357111493903469,0.06899046553333782
11.365555442969569,0.04867307584683753
11.37399939203567,0.02267487274235585
11.382443341101768,-0.008439480210005203
11.390887290167866,-0.036620874410648846
11.399331239233966,-0.04999493499702658
11.407775188300064,-0.044241504614912226
11.416219137366163,-0.02598910722682654
11.424663086432265,-0.00442399011572537
11.433107035498363,0.017278136046295012
11.441550984564461,0.03853479269554911
11.449994933630562,0.05367039589862041
11.45843888269666,0.052423131648767544
11.466882831762758,0.031666026960467795
11.475326780828858,0.0034514249581700032
11.483770729894959,-0.015566873264916861
11.492214678961057,-0.01830336210661746
11.500658628027157,-0.008993373218175407
11.509102577093255,0.003397544652369525
11.517546526159355,0.013084481176262343
11.525990475225454,0.019332961303998017
11.534434424291552,0.021853179187138857
11.542878373357654,0.01908690139934047
11.551322322423752,0.012311995609467738
11.55976627148985,0.006493682903773968
11.568210220555951,0.003981120699253055
11.57665416962205,0.0020240374923253934
11.585098118688148,-0.0018979496974018597
11.593542067754248,-0.0070047579925877615
11.601986016820348,-0.011295990963669632
11.610429965886446,-0.013058650259852596
11.618873914952546,-0.010671919787793947
11.627317864018645,-0.002654077582691546
11.635761813084743,0.012172527291098564
11.644205762150843,0.03067451468675724
11.652649711216942,0.039677184082208036
11.661093660283044,0.02428635343460113
11.669537609349142,-0.01584503546229911
11.67798155841524,-0.06470654016651783
11.68642550748134,-0.09817523492123412
11.694869456547439,-0.09504815810340335
11.703313405613537,-0.05255264767990345
11.711757354679637,0.0073380705886809915
11.720201303745736,0.05149446386274055
11.728645252811836,0.06099338445977389
11.737089201877936,0.044409358955859
11.745533150944034,0.023016721721322294
11.753977100010133,0.009801768555639512
11.762421049076233,0.006002406762069002
11.770864998142331,0.007902787889239806
11.779308947208431,0.011771429342363365
11.787752896274531,0.014066635291820943
11.79619684534063,0.011166377392317616
11.80464079440673,0.003317157085463315
11.813084743472828,-0.004188024677463758
11.821528692538926,-0.007339549372942959
11.829972641605027,-0.007978480230515679
11.838416590671125,-0.010794079586053171
11.846860539737225,-0.017877180226956068
11.855304488803325,-0.02697412756904017
11.863748437869424,-0.033808337348674576
11.872192386935522,-0.03487246267225703
11.880636336001622,-0.0282091219206484
11.88908028506772,-0.013046245777477995
11.897524234133819,0.008835013630195867
11.90596818319992,0.029637697503848027
11.914412132266019,0.03635171896074097
11.92285608133212,0.022012118801448474
11.931300030398218,-0.0030641963446873454
11.939743979464316,-0.01974529708978012
11.948187928530416,-0.02210008816143827
11.956631877596514,-0.020214686567175694
11.965075826662614,-0.021616687018846604
11.973519775728715,-0.0261489011151825
11.981963724794813,-0.03799102166940494
11.990407673860911,-0.06738428230481151
11.998851622927011,-0.11751030767725341
12.00729557199311,-0.16981668838311884
12.015739521059208,-0.18560521220653872
12.02418347012531,-0.13828774189595006
12.032627419191408,-0.03804698800286034
12.041071368257509,0.08575265598345193
12.049515317323607,0.19568625582417565
12.057959266389705,0.24256966908841515
12.066403215455805,0.20403367592999627
12.074847164521904,0.11882307655880428
12.083291113588004,0.04445921065409516
12.091735062654104,0.004699411960670565
12.100179011720202,-0.005662840835309293
12.1086229607863,0.0034375706470346113
12.1170669098524,0.023459385975775057
12.1255108589185,0.041364653864124794
12.133954807984598,0.04057349884771529
12.1423987570507,0.019460572043250815
12.150842706116798,0.00039491694031286266
12.159286655182896,0.004441055462145742
12.167730604248996,0.028298900814811664
12.176174553315095,0.050971713394724553
12.184618502381195,0.0481648024555849
12.193062451447293,0.00763543013986313
12.201506400513392,-0.05385891850872261
12.209950349579493,-0.09727016270600992
12.218394298645592,-0.09923800553372905
12.22683824771169,-0.07386931840054181
12.23528219677779,-0.04778640181597424
12.243726145843889,-0.032310828883252846
12.252170094909987,-0.025089374011104164
12.260614043976087,-0.020673132036062216
12.269057993042187,-0.014914506985500758
12.277501942108286,-0.007072376503286277
12.285945891174386,-0.0008099314788669008
12.294389840240484,-0.0001999433719691803
12.302833789306582,-0.003392036900045848
12.311277738372683,-0.002934289461923312
12.319721687438781,0.005381989573898674
12.328165636504883,0.016142869555434168
12.336609585570981,0.020132747727199474
12.34505353463708,0.013660643890330112
12.35349748370318,-0.003709979347745031
12.361941432769278,-0.036967317374668435
12.370385381835376,-0.09026240969663313
12.378829330901477,-0.14724498727209484
12.387273279967577,-0.16920837514096157
12.395717229033675,-0.1364420619109797
12.404161178099775,-0.07565045760042592
12.412605127165873,-0.023002199197278295
12.421049076231972,0.012248292800278449
12.429493025298072,0.03570634613393856
12.43793697436417,0.04856506619617768
12.446380923430272,0.05052481211760489
12.45482487249637,0.04672631743174821
12.463268821562469,0.04128604401897213
12.471712770628569,0.03152606390211954
12.480156719694667,0.014089098379653185
12.488600668760766,-0.009727567748379176
12.497044617826866,-0.035302516778458755
12.505488566892966,-0.05618987897540767
12.513932515959064,-0.06535811636038892
12.522376465025165,-0.058533504367875466
12.530820414091263,-0.037384366695664376
12.539264363157361,-0.01035518594107094
12.547708312223461,0.010547187684714382
12.55615226128956,0.017341707372972998
12.56459621035566,0.011237513407086536
12.57304015942176,-0.00011316792271837866
12.581484108487858,-0.008737945802309958
12.589928057553958,-0.011151768194178392
12.598372006620057,-0.009992688196620985
12.606815955686155,-0.011153602019193522
12.615259904752255,-0.018807001123833364
12.623703853818354,-0.03226963948789571
12.632147802884454,-0.047321080189649624
12.640591751950554,-0.059558357677937275
12.649035701016652,-0.06438050351491183
12.65747965008275,-0.05662225994351322
12.66592359914885,-0.03539126721991684
12.67436754821495,-0.006745130629109101
12.682811497281048,0.020834837857648496
12.69125544634715,0.04008069475669579
12.699699395413248,0.04673728918603329
12.708143344479348,0.04208736888705149
12.716587293545446,0.031418445656863914
12.725031242611545,0.019867422465557387
12.733475191677645,0.01081135179056765
12.741919140743743,0.00547332891869347
12.750363089809843,0.002438326511536547
12.758807038875943,-0.000943677490364644
12.767250987942042,-0.00385909373729812
12.77569493700814,0.00034312587017929267
12.78413888607424,0.016950313773843234
12.792582835140339,0.04007129190683814
12.801026784206437,0.05392346551201291
12.809470733272539,0.04773753614861923
12.817914682338637,0.028111595618005556
12.826358631404736,0.011216326677273465
12.834802580470836,0.00513722911285633
12.843246529536934,0.006156929315112619
12.851690478603034,0.00932443036500138
12.860134427669133,0.014023166052563244
12.868578376735233,0.019651762457898198
12.877022325801333,0.023811800226583853
12.885466274867431,0.025689350264014456
12.89391022393353,0.0257025329703849
12.90235417299963,0.022238868245934212
12.910798122065728,0.014810887236027503
12.919242071131826,0.008369572290574617
12.927686020197928,0.007236492649758296
12.936129969264027,0.007999920376180579
12.944573918330125,0.004792777321691863
12.953017867396225,-0.002042854122368865
12.961461816462323,-0.0070815546162664965
12.969905765528422,-0.007039713180571546
12.978349714594522,-0.0034725918066688235
12.986793663660622,0.00035333549155514596
12.995237612726722,0.0023484325950889253
13.00368156179282,0.002895247891233974
13.012125510858919,0.003906338765726367
13.020569459925019,0.004153940892187081
13.029013408991117,-0.0016337152079478133
13.037457358057216,-0.014834460001779877
13.045901307123316,-0.026634426923177187
13.054345256189416,-0.025444735616525042
13.062789205255514,-0.010342087167257779
13.071233154321614,0.008185035522455175
13.079677103387713,0.01881165222493456
13.088121052453811,0.01677263853807567
13.096565001519911,0.004983871359172887
13.10500895058601,-0.00902238600607274
13.113452899652112,-0.01801581290300449
13.12189684871821,-0.01740991468843623
13.130340797784308,-0.006254192831104069
13.138784746850408,0.010287785033832412
13.147228695916507,0.02312296808913263
13.155672644982605,0.027663228758625372
13.164116594048705,0.02673613164110148
13.172560543114805,0.024408235958530207
13.181004492180904,0.020585331371917245
13.189448441247004,0.012781679758136976
13.197892390313102,0.00031057171425258323
13.2063363393792,-0.016235840459395967
13.2147802884453,-0.03664778437197354
13.223224237511399,-0.05663225504436452
13.2316681865775,-0.06515299511867628
13.2401121356436,-0.05589260179457689
13.248556084709698,-0.03636730057467931
13.257000033775798,-0.017652367768236837
13.265443982841896,-0.003922086214790613
13.273887931907995,0.005544129388736609
13.282331880974095,0.012413092464932213
13.290775830040195,0.018062533497395804
13.299219779106293,0.022715390481114865
13.307663728172393,0.02419954712263747
13.316107677238492,0.019709521316525515
13.32455162630459,0.011020127169250202
13.33299557537069,0.003920828289810526
13.341439524436788,0.0016710555076522447
13.349883473502889,0.003563765595006153
13.358327422568989,0.006429290829215374
13.366771371635087,0.00583659453248103
13.375215320701187,0.0011514740873600992
13.383659269767286,-0.002881209597799096
13.392103218833384,-0.0025056861503996402
13.400547167899484,0.0010221656345460566
13.408991116965584,0.003955567554004306
13.417435066031683,0.0019076477645180061
13.425879015097783,-0.00788458132987976
13.434322964163881,-0.020278121308539003
13.44276691322998,-0.02459777855768716
13.45121086229608,-0.01680194432474758
13.459654811362178,-0.0022769530647227176
13.468098760428278,0.012533200345567498
13.476542709494378,0.024785954529739807
13.484986658560477,0.03215870421683833
13.493430607626575,0.03306056560005548
13.501874556692675,0.0326248947088492
13.510318505758773,0.039426685173208645
13.518762454824873,0.05242103021727848
13.527206403890972,0.059553292960375204
13.535650352957072,0.05277164256848908
13.544094302023172,0.036968975159850925
13.55253825108927,0.022877759581452682
13.560982200155369,0.01788521408458288
13.569426149221469,0.023691158610637204
13.577870098287567,0.037154663072708455
13.586314047353666,0.049072586357425056
13.594757996419768,0.04723779252044199
13.603201945485866,0.0295771682799755
13.611645894551964,0.008593240648851648
13.620089843618064,-0.0018339925458522135
13.628533792684163,0.0037455085510845567
13.636977741750263,0.022525942644544605
13.645421690816361,0.04380646717227606
13.653865639882461,0.05415726722130257
13.662309588948562,0.050121502559440936
13.67075353801466,0.039905274804020105
13.679197487080758,0.02954843844506125
13.687641436146858,0.01813434954633122
13.696085385212957,0.006270153945574427
13.704529334279055,-0.001290680883021104
13.712973283345157,-0.00020743418507176124
13.721417232411255,0.012319685114361136
13.729861181477354,0.036760487508185544
13.738305130543454,0.06393748568191067
13.746749079609552,0.0742897886845701
13.75519302867565,0.05245567743011192
13.76363697774175,-0.0028479232921871517
13.77208092680785,-0.08318380451664294
13.780524875873951,-0.16804195084669837
13.78896882494005,-0.2218669299823933
13.797412774006148,-0.22064089279076726
13.805856723072248,-0.17463848059455633
13.814300672138346,-0.11133250367771982
13.822744621204444,-0.05440541549890128
13.831188570270546,-0.016459074251980035
13.839632519336645,0.0037423533459107973
13.848076468402743,0.01419353765478282
13.856520417468843,0.019557116301242173
13.864964366534942,0.01953851257575754
13.87340831560104,0.014596982613150546
13.88185226466714,0.009374196082321134
13.89029621373324,0.00882712201164947
13.898740162799339,0.014002787215782514
13.907184111865439,0.02199175940196017
13.915628060931537,0.028061562535356965
13.924072009997637,0.028269409532030953
13.932515959063736,0.0218830545023181
13.940959908129834,0.013052744432633332
13.949403857195934,0.008458446144304762
13.957847806262034,0.010991710748523984
13.966291755328132,0.01737442347879834
13.974735704394233,0.022273787243126692
13.983179653460331,0.022131116399825717
13.99162360252643,0.016001120380107134
14.00006755159253,0.005454923868461917
14.008511500658628,-0.006427903690958969
14.016955449724728,-0.01540436759083381
14.025399398790828,-0.016944063728365294
14.033843347856926,-0.011145940852044556
14.042287296923027,-0.006408963210118549
14.050731245989125,-0.0118137242796225
14.059175195055223,-0.022981330374334554
14.067619144121323,-0.02607750111716415
14.076063093187424,-0.01720948623554833
14.084507042253522,-0.003723745139222573
14.092950991319622,0.007766066412176081
14.10139494038572,0.01375867619880415
14.109838889451819,0.013910635393419378
14.118282838517919,0.012556469373870883
14.126726787584017,0.01436847998830654
14.135170736650117,0.018588400889914664
14.143614685716217,0.01885305864247033
14.152058634782316,0.010155907816045796
14.160502583848414,-0.002894098420151762
14.168946532914514,-0.007978792585732065
14.177390481980613,0.0018234301013451296
14.185834431046713,0.019304839787044874
14.194278380112813,0.031130148792494056
14.202722329178911,0.03051925686716346
14.211166278245011,0.019177834971851593
14.21961022731111,0.0035575271218579955
14.228054176377208,-0.00918174390199456
14.236498125443308,-0.015578076047931901
14.244942074509407,-0.01500849074928406
14.253386023575507,-0.006409573276818735
14.261829972641607,0.008442893787808256
14.270273921707705,0.021797456131674546
14.278717870773804,0.025962687873513197
14.287161819839904,0.02113215461791913
14.295605768906002,0.015160426679285187
14.304049717972102,0.015267299016389669
14.312493667038202,0.021561968403260977
14.3209376161043,0.02892426700611876
14.3293815651704,0.029626080406464073
14.3378255142365,0.015393771845136591
14.346269463302598,-0.015251983648644746
14.354713412368698,-0.0503064337407851
14.363157361434796,-0.06919328266402426
14.371601310500896,-0.06143790392556124
14.380045259566996,-0.03726509966154082
14.388489208633095,-0.012460269121361455
14.396933157699193,0.005695274145669145
14.405377106765293,0.012315576896920612
14.413821055831392,0.0013466308171799003
14.42226500489749,-0.025803921109731554
14.43070895396359,-0.05607678862604642
14.43915290302969,-0.07258389306833271
14.44759685209579,-0.06802380650935562
14.456040801161889,-0.05033490073366442
14.464484750227987,-0.03272093726885676
14.472928699294087,-0.021882221272984424
14.481372648360185,-0.018129661607685144
14.489816597426284,-0.020230628334923513
14.498260546492386,-0.02533920553269111
14.506704495558484,-0.028085223198241138
14.515148444624582,-0.024966773632662746
14.523592393690683,-0.01767012498395452
14.532036342756781,-0.010014103739432985
14.54048029182288,-0.004903751170491889
14.54892424088898,-0.004425305968896767
14.55736818995508,-0.008304863230432074
14.565812139021178,-0.012227759195702384
14.574256088087278,-0.011290519371353053
14.582700037153376,-0.0035869744009710885
14.591143986219477,0.009678250324021991
14.599587935285575,0.024422119583673997
14.608031884351673,0.037065134008177285
14.616475833417775,0.04874142579466744
14.624919782483873,0.06090002507879098
14.633363731549972,0.06807800336464473
14.641807680616072,0.06170455616763945
14.65025162968217,0.041899627864285735
14.658695578748269,0.02007720267666788
14.667139527814369,0.0065136910452635996
14.675583476880469,0.00023115418289483178
14.684027425946567,-0.0047278486421059845
14.692471375012667,-0.009262323675257037
14.700915324078766,-0.010480273635503993
14.709359273144866,-0.00805858734951688
14.717803222210964,-0.005023170801176436
14.726247171277063,-0.003276095101417677
14.734691120343165,-0.0012433323162976961
14.743135069409263,0.001030957336678449
14.751579018475361,-0.0021237978819958225
14.760022967541461,-0.01442582589291478
14.76846691660756,-0.029879095052386215
14.776910865673658,-0.03866733950276886
14.785354814739758,-0.037051752428654904
14.793798763805858,-0.028635029634602762
14.802242712871957,-0.019797603826447838
14.810686661938057,-0.014888227005236194
14.819130611004155,-0.013295344604640318
14.827574560070254,-0.011280127479999342
14.836018509136354,-0.00677804213767222
14.844462458202452,-0.0007948448454570425
14.852906407268552,0.0048905934502875646
14.861350356334652,0.008818707408097134
14.86979430540075,0.009802273618025669
14.87823825446685,0.007934854298382175
14.88668220353295,0.004527010898939
14.895126152599047,0.0009477762946465467
14.903570101665148,-0.0007263304482208457
14.912014050731246,0.003219967582148895
14.920457999797346,0.015886712024019714
14.928901948863446,0.036502700706987655
14.937345897929545,0.05807851826356377
14.945789846995643,0.06768325612796389
14.954233796061743,0.056515543367582355
14.962677745127841,0.030352708790161442
14.971121694193942,0.004026402812636079
14.979565643260042,-0.011214678057892604
14.98800959232614,-0.013837902442987493
14.99645354139224,-0.0092474117937921
15.004897490458339,-0.0018105180715827073
15.013341439524437,0.008268000037347161
15.021785388590537,0.02069334033819561
15.030229337656635,0.032112557284410884
15.038673286722736,0.03728838688702923
15.047117235788836,0.031178764815443436
15.055561184854934,0.014354320143078313
15.064005133921032,-0.0038427459550722837
15.072449082987132,-0.014112002721045224
15.08089303205323,-0.014638276955607913
15.08933698111933,-0.008095972910211406
15.097780930185431,-0.00037239956764272865
15.10622487925153,0.00016813701665360043
15.11466882831763,-0.01092123000344103
15.123112777383728,-0.02933711079635434
15.131556726449826,-0.04326728924618172
15.140000675515926,-0.040997832823255614
15.148444624582025,-0.021544546491240477
15.156888573648125,0.0029400711861759625
15.165332522714225,0.017919579484545207
15.173776471780323,0.0188949322104787
15.182220420846422,0.011810119994619362
15.190664369912522,0.003999089732802975
15.19910831897862,-0.0010808643318392654
15.207552268044719,-0.00230109907756692
15.21599621711082,0.00014978531660688577
15.224440166176919,0.005690245347492467
15.232884115243019,0.015991060576385187
15.241328064309117,0.03024060540537252
15.249772013375216,0.03906769718968365
15.258215962441316,0.03438156092957678
15.266659911507414,0.02035286733278656
15.275103860573513,0.007176173240493838
15.283547809639614,0.0008707261520715969
15.291991758705713,0.000496262896011322
15.300435707771811,0.001388620298374677
15.308879656837911,3.4938004942294387e-05
15.31732360590401,-0.004631855751244247
15.325767554970108,-0.011996293774641707
15.334211504036208,-0.019577782521017044
15.342655453102308,-0.02338665879798609
15.351099402168407,-0.020941362850333205
15.359543351234507,-0.013499744203806674
15.367987300300605,-0.003632141006220312
15.376431249366705,0.006643739919262632
15.384875198432804,0.013818949541215951
15.393319147498902,0.013426219959089372
15.401763096565004,0.005261284714466627
15.410207045631102,-0.005248318297450283
15.4186509946972,-0.012944479957585167
15.4270949437633,-0.01739974191557151
15.435538892829399,-0.02142447875177757
15.443982841895497,-0.02890729957665446
15.452426790961598,-0.04373724365897528
15.460870740027698,-0.0641358292645992
15.469314689093796,-0.07735962745595933
15.477758638159896,-0.07144706119067228
15.486202587225995,-0.05172050959497358
15.494646536292093,-0.034029939608343295
15.503090485358193,-0.026074595400422167
15.511534434424291,-0.023364825079329642
15.519978383490393,-0.019233682269783274
15.528422332556492,-0.011650523227504064
15.53686628162259,-0.0003756108353541402
15.54531023068869,0.013728666398204971
15.553754179754788,0.02498393230554792
15.562198128820887,0.027906901667830646
15.570642077886987,0.02375063935625104
15.579086026953087,0.01500019330002139
15.587529976019185,0.0013185299306620536
15.595973925085286,-0.01477915694927157
15.604417874151384,-0.024475993877905246
15.612861823217482,-0.01769760210786198
15.621305772283582,0.005702997856098197
15.629749721349683,0.03226920236803536
15.638193670415781,0.04989612751332612
15.646637619481881,0.057181428802518315
15.655081568547981,0.05169266297685529
15.663525517614078,0.02910752577999808
15.671969466680178,-0.0039629774340430935
15.680413415746278,-0.03410853236973274
15.688857364812375,-0.05130091836174981
15.697301313878476,-0.0476113466055972
15.705745262944577,-0.01645227005058145
15.714189212010673,0.041007930005554104
15.722633161076773,0.10549930041875202
15.731077110142873,0.14034138467009433
15.73952105920897,0.12164936698468763
15.74796500827507,0.06499204596351332
15.75640895734117,0.006299879546118882
15.764852906407269,-0.030679888600073663
15.773296855473369,-0.04128401746035434
15.781740804539469,-0.03205729564471069
15.790184753605566,-0.013492130102244088
15.798628702671666,0.00431912374862257
15.807072651737766,0.014399746293141441
15.815516600803862,0.01393299817533211
15.823960549869964,0.004304091463797153
15.832404498936064,-0.008697511358311124
15.840848448002165,-0.018293996442010414
15.849292397068261,-0.022527782058892522
15.857736346134361,-0.024339235948879545
15.866180295200461,-0.026315387524340674
15.874624244266558,-0.02771983696390383
15.88306819333266,-0.02585483942648831
15.89151214239876,-0.018561484521996886
15.899956091464857,-0.0059744611174792454
15.908400040530957,0.008022236364002688
15.916843989597057,0.017432514180945966
15.925287938663153,0.020467311426492687
15.933731887729254,0.019996330295913634
15.942175836795355,0.016399217601692335
15.950619785861452,0.00881870555680047
15.959063734927552,0.0019720523634680987
15.967507683993652,0.0025541866837995803
15.975951633059749,0.01167520865764418
15.984395582125849,0.02469873511162383
15.99283953119195,0.03451754217867027
16.001283480258046,0.036203131404729146
16.009727429324148,0.030853201762104484
16.018171378390246,0.022217643391217082
16.026615327456344,0.01281528579852616
16.035059276522446,0.004886505533993233
16.043503225588545,0.0005562020957660366
16.051947174654643,-0.0001619942958804889
16.06039112372074,-0.0015283062167291668
16.068835072786843,-0.009129639192226296
16.077279021852938,-0.021596016706314777
16.08572297091904,-0.029782221708995537
16.094166919985142,-0.02773951157400503
16.10261086905124,-0.01992130209157847
16.11105481811734,-0.014218489344981038
16.119498767183437,-0.011789500460927234
16.12794271624954,-0.007982149552927769
16.136386665315634,-0.0024456755785902747
16.144830614381736,-0.001620569226964374
16.153274563447837,-0.007992023765084885
16.161718512513932,-0.013912785694042085
16.170162461580034,-0.010396257586637099
16.178606410646132,0.0019822120384619638
16.18705035971223,0.013711610557337573
16.19549430877833,0.017002505203627425
16.20393825784443,0.013120965734306628
16.21238220691053,0.007909542713924973
16.220826155976628,0.003997313352746596
16.22927010504273,-0.0012761214393199455
16.237714054108825,-0.011994644812286008
16.246158003174926,-0.026896686425012587
16.254601952241025,-0.03801630885775034
16.263045901307123,-0.03797267530244673
16.271489850373225,-0.027109636604094916
16.279933799439323,-0.01226940543500446
16.28837774850542,0.0002643972400261257
16.29682169757152,0.0076606521885032985
16.305265646637622,0.008386757828801784
16.313709595703717,0.0034344367980279037
16.32215354476982,-0.0019018492499344012
16.330597493835917,-0.0024709881822270853
16.339041442902015,0.002092012706900855
16.347485391968117,0.007877646188632048
16.355929341034216,0.008540953473643875
16.364373290100318,-0.0011653342473271868
16.372817239166412,-0.01882603366567159
16.381261188232514,-0.0345108690666176
16.389705137298613,-0.04096396456418399
16.39814908636471,-0.03998935762294421
16.406593035430813,-0.03735278447656746
16.41503698449691,-0.03542476612484544
16.42348093356301,-0.032116379477162324
16.431924882629108,-0.0250012397446554
16.44036883169521,-0.015705841274947507
16.448812780761305,-0.00893443573480962
16.457256729827407,-0.00688356048228387
16.46570067889351,-0.007188805611853306
16.474144627959603,-0.006774409671151223
16.482588577025705,-0.005692044056680935
16.491032526091804,-0.005727950745556171
16.499476475157902,-0.006478462886718868
16.507920424224,-0.006248715410507185
16.516364373290102,-0.004955147124399705
16.5248083223562,-0.0026901182320610145
16.5332522714223,0.00013488684956687152
16.5416962204884,0.00035565899013768697
16.550140169554496,-0.004389629986509589
16.558584118620598,-0.012014614606172277
16.567028067686696,-0.019684859417514754
16.575472016752794,-0.026511137056040142
16.583915965818896,-0.03139117376743499
16.592359914884995,-0.03165136955545662
16.600803863951093,-0.023298496912057185
16.60924781301719,-0.003536668311392307
16.617691762083293,0.02343666223474387
16.626135711149388,0.044379443292989484
16.63457966021549,0.045307084598180176
16.64302360928159,0.0240735959886752
16.65146755834769,-0.006723637117378914
16.65991150741379,-0.029520602990814274
16.668355456479887,-0.033978502625491645
16.67679940554599,-0.023950751482389947
16.685243354612084,-0.013073323074346443
16.693687303678185,-0.010479872768756867
16.702131252744287,-0.014725020926819168
16.710575201810382,-0.021158781414487387
16.719019150876484,-0.028066079421228237
16.727463099942582,-0.03680584372530468
16.73590704900868,-0.049383764233147484
16.74435099807478,-0.06194474366132547
16.75279494714088,-0.06250908301066571
16.76123889620698,-0.044984200121741896
16.769682845273078,-0.02074889107221599
16.77812679433918,-0.0061003163639683925
16.786570743405274,-0.004927623861149314
16.795014692471376,-0.009489708646337223
16.803458641537475,-0.012752209340927788
16.811902590603573,-0.015396437975247002
16.820346539669675,-0.02035454090244896
16.828790488735773,-0.025052047978463422
16.83723443780187,-0.024342352491967104
16.84567838686797,-0.017755995367679862
16.854122335934072,-0.007953105875661944
16.862566285000167,0.0031211433281560885
16.87101023406627,0.013014350859079843
16.87945418313237,0.01950863323870693
16.887898132198465,0.021401016404646145
16.896342081264567,0.01807677822207976
16.904786030330666,0.016753564581851323
16.913229979396768,0.035546891070686634
16.921673928462862,0.08517431289939795
16.930117877528964,0.14497648499485433
16.938561826595066,0.1704098571814656
16.94700577566116,0.13986438618170605
16.955449724727263,0.07917437362258813
16.96389367379336,0.026344796452254023
16.97233762285946,-0.0029657787569303583
16.980781571925558,-0.01203822358764294
16.98922552099166,-0.010028484759968363
16.997669470057758,-0.005030015615929133
17.006113419123857,-0.002814277037171839
17.01455736818996,-0.007415090304345946
17.023001317256053,-0.017458456470063752
17.031445266322155,-0.023409585866983048
17.039889215388254,-0.013712452033303532
17.048333164454352,0.015663859473445098
17.056777113520454,0.058519060409931864
17.065221062586552,0.0984259998345702
17.07366501165265,0.11087838421582892
17.08210896071875,0.08292511681663077
17.09055290978485,0.029844335257362863
17.098996858850946,-0.022331481330560517
17.107440807917047,-0.05801332793125972
17.11588475698315,-0.07125053546375099
17.124328706049244,-0.06379654345742367
17.132772655115346,-0.045811525195076835
17.141216604181444,-0.0288423537360635
17.149660553247543,-0.01889426806602884
17.15810450231364,-0.015626299608072623
17.166548451379743,-0.013014400098142075
17.174992400445845,-0.0010595155148967294
17.18343634951194,0.029784156196980056
17.19188029857804,0.08158726324262994
17.20032424764414,0.13637852360861832
17.20876819671024,0.1573421186088996
17.217212145776337,0.12788402246013955
17.22565609484244,0.07555844907938587
17.234100043908537,0.03474587824580747
17.242543992974635,0.013159783277578812
17.250987942040737,0.002957057878393677
17.259431891106832,-0.0019093027194871262
17.267875840172934,-0.002203460116840049
17.276319789239032,0.0021632291224189374
17.28476373830513,0.00912073625890542
17.29320768737123,0.016343737623842763
17.30165163643733,0.021355215563988984
17.31009558550343,0.021559609452054693
17.318539534569528,0.016803519259333894
17.32698348363563,0.00937308650982137
17.335427432701724,0.00306718824698878
17.343871381767826,0.002207842308598525
17.352315330833925,0.008079685568824529
17.360759279900023,0.01742825519101681
17.369203228966125,0.024444206663695227
17.377647178032223,0.023534206839902157
17.38609112709832,0.013402397821555286
17.39453507616442,-0.001398525894062657
17.402979025230522,-0.014850043814699001
17.411422974296617,-0.02425106749508457
17.41986692336272,-0.02998209040323421
17.42831087242882,-0.03183012459456529
17.43675482149492,-0.028175916882878353
17.445198770561017,-0.019916626765582222
17.453642719627116,-0.012487323639167214
17.462086668693217,-0.011542697871435937
17.470530617759312,-0.01626705819872746
17.478974566825414,-0.017557180242988718
17.487418515891516,-0.005036316103380107
17.49586246495761,0.018661927103369818
17.504306414023713,0.03341904834175504
17.51275036308981,0.02457121551573836
17.52119431215591,0.003836047214529143
17.529638261222008,-0.004921312606749366
17.53808221028811,0.011659476524122286
17.546526159354208,0.04921839405234573
17.554970108420306,0.08586308441826258
17.56341405748641,0.09664572011210247
17.571858006552503,0.0778702254558872
17.580301955618605,0.048344530890518586
17.588745904684703,0.02603887499186006
17.597189853750802,0.013376003482878141
17.605633802816904,0.0036042264058930686
17.614077751883002,-0.007392007165318639
17.6225217009491,-0.018252042467539847
17.6309656500152,-0.02650082061911792
17.6394095990813,-0.030499203986403017
17.647853548147395,-0.02832940019906233
17.656297497213497,-0.019703572864711034
17.6647414462796,-0.007659016130165884
17.673185395345694,0.005001614123832874
17.681629344411796,0.016998291136541263
17.690073293477894,0.024882070688382284
17.698517242543996,0.024510684094179194
17.70696119161009,0.016778901796122528
17.715405140676193,0.007221288106913113
17.723849089742295,0.001578942990328158
17.73229303880839,0.00325469790000722
17.74073698787449,0.0113156003598897
17.74918093694059,0.020108967975828097
17.75762488600669,0.023735336495756203
17.766068835072787,0.021460949026621302
17.77451278413889,0.017650764361293505
17.782956733204987,0.017332239216152377
17.791400682271085,0.022227840204150508
17.799844631337187,0.030122601825743354
17.808288580403282,0.03701235944937425
17.816732529469384,0.038464273982125124
17.825176478535482,0.03150656185759231
17.83362042760158,0.01801264911262152
17.842064376667683,0.0032520588671492243
17.85050832573378,-0.00883007109632284
17.85895227479988,-0.017102081056877792
17.867396223865978,-0.023156245383420076
17.87584017293208,-0.028954248266016457
17.884284121998174,-0.032545931512119534
17.892728071064276,-0.029235142538503806
17.901172020130378,-0.017523203329121488
17.909615969196473,-0.0015916476457090495
17.918059918262575,0.012447956782870223
17.926503867328673,0.021406129418270525
17.93494781639477,0.025570833690881582
17.94339176546087,0.02615143040041746
17.951835714526972,0.02369403511492936
17.960279663593074,0.018160859804310526
17.96872361265917,0.008850911582373944
17.97716756172527,-0.004227176355617388
17.98561151079137,-0.016805363442864863
17.994055459857467,-0.021848034561141275
18.002499408923565,-0.018265686664930246
18.010943357989667,-0.016509519109279207
18.019387307055766,-0.03297047040580416
18.027831256121864,-0.07539199030509676
18.036275205187966,-0.12489455386221317
18.04471915425406,-0.13728438005238322
18.053163103320163,-0.08928181829666988
18.06160705238626,-0.01434229949857524
18.07005100145236,0.036825937380609
18.07849495051846,0.0435408915466916
18.08693889958456,0.0063163371376034816
18.095382848650658,-0.06821029092148513
18.103826797716756,-0.15342204769504936
18.11227074678286,-0.19934813083375988
18.120714695848953,-0.17613781145484506
18.129158644915055,-0.10823728216929679
18.137602593981153,-0.03911043146508626
18.14604654304725,0.01119470735651111
18.154490492113354,0.04137614432285025
18.162934441179452,0.0538245978172072
18.17137839024555,0.052511152425603905
18.17982233931165,0.043130458085656756
18.18826628837775,0.030658668471267112
18.196710237443845,0.01730775804278993
18.205154186509947,0.004448562379068458
18.21359813557605,-0.00409657453541898
18.222042084642144,-0.005111219108795565
18.230486033708246,-0.0018651948861582767
18.238929982774344,-0.000830082859027434
18.247373931840446,-0.003439404856625192
18.25581788090654,-0.00570885834340631
18.264261829972643,-0.004430122496479759
18.272705779038745,-0.00015769380655601822
18.28114972810484,0.005201351335415649
18.28959367717094,0.009898618762610749
18.29803762623704,0.012573664582958884
18.30648157530314,0.014232334152498785
18.314925524369237,0.017700004401191103
18.32336947343534,0.024271814363937567
18.331813422501437,0.031577801734980496
18.340257371567535,0.03385555638305939
18.348701320633637,0.026728304789132035
18.357145269699732,0.012931648524239798
18.365589218765834,0.0010671204095627244
18.374033167831932,-0.0014670998000401658
18.38247711689803,0.0063209635529438805
18.390921065964132,0.01945288384885736
18.39936501503023,0.03095387115228355
18.40780896409633,0.035689265644799295
18.416252913162428,0.03282954706947652
18.42469686222853,0.025297429777022814
18.433140811294624,0.01668541937077451
18.441584760360726,0.010733100092442962
18.450028709426828,0.010821424619497717
18.458472658492923,0.01608833445161576
18.466916607559025,0.02163302225863904
18.475360556625123,0.022721615923508402
18.48380450569122,0.014502678585833697
18.49224845475732,-0.009147077332113394
18.50069240382342,-0.052571888428225404
18.509136352889524,-0.11561562786730926
18.51758030195562,-0.18539896885546214
18.52602425102172,-0.22990071250933752
18.53446820008782,-0.2243788111088308
18.542912149153917,-0.18054042454946811
18.551356098220015,-0.12691385868736918
18.559800047286117,-0.0787967732037583
18.568243996352216,-0.0416797060930902
18.576687945418314,-0.022386173641045077
18.585131894484416,-0.02505116255405387
18.59357584355051,-0.04627304079108293
18.602019792616613,-0.07802193951045233
18.61046374168271,-0.10558702262699458
18.61890769074881,-0.10758745124083925
18.62735163981491,-0.07755710712044811
18.63579558888101,-0.035402909007068425
18.644239537947108,-0.0020977391655738905
18.652683487013206,0.01848814062182694
18.66112743607931,0.030257502100556534
18.669571385145403,0.0353049679108936
18.678015334211505,0.03359251056454675
18.686459283277607,0.026368950686068943
18.6949032323437,0.01656155806566463
18.703347181409804,0.006699244520049346
18.711791130475902,-1.7646321360122175e-05
18.720235079542,2.0052314769097943e-05
18.7286790286081,0.007182516534241136
18.7371229776742,0.01887908615386958
18.7455669267403,0.034717256419496766
18.754010875806397,0.05881036588683731
18.7624548248725,0.09486506080689928
18.770898773938598,0.13360329611176194
18.779342723004696,0.1483937580838606
18.787786672070794,0.12219390118805751
18.796230621136896,0.07136369265025488
18.804674570202994,0.02400133937949278
18.813118519269093,-0.007481715375907221
18.821562468335195,-0.023625753228796224
18.83000641740129,-0.028225166387730424
18.83845036646739,-0.02654389897491166
18.84689431553349,-0.023631841431829927
18.855338264599588,-0.02137730141508189
18.86378221366569,-0.01846365445900874
18.87222616273179,-0.01206095883633442
18.880670111797887,-0.0005769654494932445
18.889114060863985,0.012457465548554248
18.897558009930087,0.018432211414114996
18.906001958996182,0.00987804219040445
18.914445908062284,-0.013422380236478012
18.922889857128386,-0.042016125773491904
18.93133380619448,-0.06016274303480273
18.939777755260582,-0.059657508796012754
18.94822170432668,-0.046614059057798016
18.95666565339278,-0.028308455995641094
18.965109602458877,-0.007308922394857808
18.97355355152498,0.010357807091246502
18.981997500591078,0.019013631770074844
18.990441449657176,0.023551916964664105
18.998885398723278,0.03375772064789791
19.007329347789373,0.04963251789846482
19.015773296855475,0.05908662370537679
19.024217245921573,0.05253099158401585
19.032661194987675,0.034774137081753094
19.041105144053773,0.017826814740206587
19.04954909311987,0.007065754805046015
19.057993042185974,-0.0002051268466912988
19.06643699125207,-0.00566458124993616
19.07488094031817,-0.005750173781958038
19.08332488938427,0.002584268497517612
19.091768838450367,0.0163672082179561
19.100212787516465,0.028601077362796597
19.108656736582567,0.03414073665632513
19.117100685648666,0.032589599046064954
19.125544634714764,0.02803458136113448
19.133988583780866,0.028609017382062046
19.14243253284696,0.04153809935891211
19.150876481913063,0.06549402773336435
19.15932043097916,0.08867215367462242
19.16776438004526,0.09403176011852578
19.17620832911136,0.07369176152385143
19.18465227817746,0.038936942690125695
19.193096227243558,0.007639484401029415
19.201540176309656,-0.011494523002169348
19.209984125375758,-0.018006642580529062
19.218428074441853,-0.013832956574108707
19.226872023507955,-0.002091542777406902
19.235315972574057,0.011951223700705938
19.24375992164015,0.02164608653763799
19.252203870706253,0.023060917162273164
19.260647819772352,0.017041286628676863
19.26909176883845,0.0064013141361427515
19.27753571790455,-0.005477444900301271
19.28597966697065,-0.013087867857167769
19.294423616036752,-0.010814857255660469
19.302867565102847,0.0004851817417222213
19.31131151416895,0.012724593243775902
19.319755463235047,0.018952950470338688
19.328199412301146,0.018678452894099095
19.336643361367244,0.015365546950313745
19.345087310433346,0.012864495005789824
19.353531259499444,0.013794258683368376
19.361975208565543,0.01672390805883436
19.370419157631645,0.014544768940610787
19.37886310669774,0.0017417939856981097
19.38730705576384,-0.018192889709667457
19.39575100482994,-0.03663018109061153
19.404194953896038,-0.046359646749017255
19.41263890296214,-0.04407270079799801
19.42108285202824,-0.0319234486593959
19.429526801094337,-0.018355291485476835
19.437970750160435,-0.015507742088757992
19.446414699226537,-0.032717081842740824
19.454858648292632,-0.07099788656745765
19.463302597358734,-0.11722152550050313
19.471746546424836,-0.14300864343650402
19.48019049549093,-0.1286561972458523
19.488634444557032,-0.0866462173281146
19.49707839362313,-0.043967389582031266
19.50552234268923,-0.014892938849958192
19.513966291755327,0.000635530250554151
19.52241024082143,0.008782222844039473
19.530854189887528,0.016083877849249247
19.539298138953626,0.02551486658838124
19.547742088019728,0.035398725330423216
19.556186037085826,0.0394206012050641
19.564629986151925,0.030797685667691144
19.573073935218023,0.011374365786260473
19.581517884284125,-0.008445411090945081
19.589961833350223,-0.020860412188075897
19.59840578241632,-0.02509262979256085
19.606849731482423,-0.022450990089870514
19.61529368054852,-0.013871809652267884
19.62373762961462,-2.5789377188442826e-05
19.63218157868072,0.01957531791321636
19.640625527746817,0.043010092898878485
19.64906947681292,0.05981591765704657
19.657513425879017,0.05845589615485401
19.665957374945116,0.043516737978292114
19.674401324011214,0.030330771816281753
19.682845273077316,0.02201090091247583
19.69128922214341,0.011348005083944067
19.699733171209513,-0.0005143855859243342
19.708177120275614,-0.004300314032870232
19.71662106934171,0.007311332760213797
19.72506501840781,0.03539935741128298
19.73350896747391,0.06610307541472908
19.741952916540008,0.06915300366338638
19.750396865606106,0.030253120972006206
19.758840814672208,-0.024098800651344843
19.767284763738306,-0.05901136651289181
19.775728712804405,-0.06798952069306545
19.784172661870507,-0.06404066916338987
19.7926166109366,-0.05883556923362211
19.801060560002703,-0.05704735772000283
19.809504509068802,-0.05695707059318459
19.8179484581349,-0.05364763265665626
19.826392407201002,-0.04389037701518458
19.8348363562671,-0.026031678537315812
19.843280305333202,0.0005966233208393621
19.851724254399297,0.028816161774587134
19.8601682034654,0.04219932168236355
19.868612152531497,0.03231885914609878
19.877056101597596,0.010665579144144378
19.885500050663694,-0.005589169019337726
19.893943999729796,-0.008329332931041815
19.902387948795894,0.002604936823145174
19.910831897861993,0.022451329906154265
19.919275846928095,0.04170781559737927
19.92771979599419,0.04854966655902891
19.93616374506029,0.037996728438386126
19.94460769412639,0.018580925549609342
19.953051643192488,0.0030896291616423887
19.96149559225859,-0.0028209798590416862
19.96993954132469,-0.0003904064204725704
19.978383490390787,0.0049945335972296535
19.986827439456885,0.0065058208912468565
19.995271388522987,0.002051841350523176
20.00371533758908,-0.003484097985393884
20.012159286655184,-0.0047683006287790744
20.020603235721286,-0.0022064997148688093
20.02904718478738,0.00023742126949373085
20.037491133853482,-0.000311425141874726
20.04593508291958,-0.004766401090797872
20.05437903198568,-0.011647098659496662
20.062822981051777,-0.016424801465954687
20.07126693011788,-0.014186960106695273
20.079710879183978,-0.004063944674835628
20.088154828250076,0.008795688039465894
20.096598777316178,0.016604676862627704
20.105042726382276,0.015794498005846785
20.113486675448375,0.009770573538802327
20.121930624514473,0.004404085919724684
20.130374573580575,0.0015167611708596658
20.138818522646673,-0.0017448998566493867
20.14726247171277,-0.005881485365081153
20.155706420778873,-0.004432128155160398
20.16415036984497,0.010147318560307735
20.17259431891107,0.035637426390204
20.18103826797717,0.0572813988533127
20.189482217043267,0.06062993947407164
20.19792616610937,0.04590928734902147
20.206370115175467,0.02575269860637162
20.214814064241565,0.013085192449755326
20.223258013307664,0.01237877674347951
20.231701962373766,0.017843301408310214
20.24014591143986,0.0199124451162796
20.248589860505962,0.014464038214216103
20.257033809572064,0.006538320364262299
20.26547775863816,0.004981333489829175
20.27392170770426,0.011626876749448258
20.28236565677036,0.019083501620578442
20.290809605836458,0.018902221929316634
20.299253554902556,0.0057432415011288455
20.307697503968658,-0.020801397058165312
20.316141453034756,-0.05025141052065971
20.324585402100855,-0.0647191875731398
20.333029351166957,-0.05568917241588476
20.34147330023305,-0.03123482895776441
20.349917249299153,-0.0055162981296891424
20.35836119836525,0.011197996798912153
20.366805147431354,0.015467523393464437
20.375249096497452,0.01088080361442119
20.38369304556355,0.0033602590401882126
20.392136994629652,-0.003988229268847694
20.400580943695747,-0.010926605007549198
20.40902489276185,-0.018285756129976717
20.417468841827947,-0.025273825176956307
20.425912790894046,-0.028996098858283463
20.434356739960148,-0.028608544260323103
20.442800689026246,-0.02557826776372217
20.451244638092344,-0.019941633392359458
20.459688587158443,-0.01236249797525309
20.468132536224545,-0.007113829976087678
20.47657648529064,-0.0066696759546571735
20.48502043435674,-0.007364843642754592
20.493464383422843,-0.00526615987186578
20.501908332488938,-0.0012442029212851168
20.51035228155504,0.0022983386994935087
20.518796230621138,0.004293026512496995
20.527240179687237,0.0037911559306395104
20.535684128753335,0.000544496190350699
20.544128077819437,-0.0027670605738230585
20.552572026885535,-0.003431058217695665
20.561015975951634,-0.0035472428363139963
20.569459925017735,-0.006465821202066395
20.57790387408383,-0.010768781901229561
20.586347823149932,-0.012187410031466783
20.59479177221603,-0.00804061803875533
20.60323572128213,0.0014718355352246622
20.61167967034823,0.01433814364575684
20.62012361941433,0.028397876433966827
20.62856756848043,0.04125312346471661
20.637011517546526,0.05053128618918359
20.645455466612628,0.053462459021326174
20.653899415678726,0.04568809722413823
20.662343364744824,0.02745456082911316
20.670787313810926,0.007173349922892712
20.679231262877025,-0.008121381629258783
20.687675211943123,-0.01795708729056723
20.69611916100922,-0.022967854857251068
20.704563110075323,-0.023002254749141197
20.713007059141418,-0.020986601575831165
20.72145100820752,-0.021767950527090747
20.729894957273622,-0.025409997416160048
20.738338906339717,-0.028037491099707115
20.74678285540582,-0.02880360981967408
20.755226804471917,-0.029411766945574066
20.763670753538015,-0.029423636254987028
20.772114702604114,-0.027302759299378566
20.780558651670216,-0.024351355948238763
20.789002600736314,-0.02368462629411318
20.797446549802412,-0.025145790941505354
20.805890498868514,-0.023262680961887175
20.81433444793461,-0.010413499858842505
20.82277839700071,0.016091300625080622
20.83122234606681,0.048749823739769736
20.839666295132908,0.0753298135854385
20.848110244199006,0.08771144913502019
20.856554193265108,0.08196621143028132
20.864998142331206,0.058151771407996884
20.873442091397305,0.024268113172105907
20.881886040463407,-0.006118159801045992
20.890329989529505,-0.02215174819957621
20.898773938595603,-0.022361408282872756
20.9072178876617,-0.014654137532535572
20.915661836727804,-0.007489697747066257
20.924105785793902,-0.0026357869748597617
20.93254973486,0.0011279446231732904
20.940993683926102,0.0037101935299292004
20.949437632992197,0.006893715371049901
20.9578815820583,0.014774358537108638
20.966325531124397,0.029022646690879176
20.974769480190496,0.04675149623147464
20.983213429256597,0.059663736217324376
20.991657378322696,0.05905152988890912
21.000101327388794,0.04723892751015511
21.008545276454893,0.03606483966210067
21.016989225520994,0.03222352432968832
21.02543317458709,0.031934267125688545
21.03387712365319,0.030219606746195764
21.042321072719293,0.02704467204552024
21.050765021785388,0.022145898619562784
21.05920897085149,0.013676601764282117
21.067652919917588,0.00427815669892688
21.076096868983687,0.0007881843712717915
21.084540818049785,0.005773329118853305
21.092984767115887,0.012427331141821568
21.101428716181985,0.011349067082812051
21.109872665248083,0.002019453611334713
21.118316614314185,-0.0066027053740995295
21.12676056338028,-0.006697175033507988
21.135204512446382,0.0009500237043151868
21.14364846151248,0.009170795936264298
21.152092410578582,0.011360414531281619
21.16053635964468,0.006857901426093395
21.16898030871078,0.0006126873164809367
21.17742425777688,-0.0013200684845596593
21.185868206842976,0.0037630027903372922
21.194312155909078,0.012580544563646882
21.202756104975176,0.01854812658950508
21.211200054041274,0.019661786655670744
21.219644003107376,0.021268907123324268
21.228087952173475,0.02794112493173209
21.236531901239573,0.03652296826091047
21.24497585030567,0.04048128547300196
21.253419799371773,0.03669314709629699
21.261863748437868,0.026587461914841314
21.27030769750397,0.013433901497232498
21.278751646570072,-0.0009669324872917185
21.287195595636167,-0.017550449044804944
21.29563954470227,-0.03845414244895719
21.304083493768367,-0.060327273851953835
21.312527442834465,-0.07040681486980468
21.320971391900564,-0.059184612005928096
21.329415340966666,-0.03242365386866663
21.337859290032764,-0.0025187852388742727
21.346303239098862,0.02246696075975691
21.354747188164964,0.036315685677341863
21.36319113723106,0.029804630324685073
21.37163508629716,-6.755383216684382e-05
21.38007903536326,-0.035553074697127374
21.388522984429358,-0.0515311047351105
21.39696693349546,-0.043013956233291954
21.405410882561558,-0.022909315395256376
21.413854831627656,-0.0041100735528657745
21.422298780693755,0.006498688735953637
21.430742729759857,0.00869504750268614
21.439186678825955,0.006543600804935893
21.447630627892053,0.0013311879058367116
21.456074576958155,-0.01100046478270864
21.464518526024253,-0.03150005194289696
21.472962475090352,-0.050024982567280295
21.48140642415645,-0.054654241622617866
21.489850373222552,-0.04671329469416957
21.498294322288647,-0.03769822810133475
21.50673827135475,-0.03542672003451707
21.51518222042085,-0.038278269169502735
21.523626169486946,-0.04008401684512786
21.532070118553047,-0.037205728190815156
21.540514067619146,-0.03067319670919698
21.548958016685244,-0.02316303808668758
21.557401965751342,-0.015500130008779617
21.565845914817444,-0.006406461080966474
21.574289863883543,0.005962297409279102
21.58273381294964,0.022524974507120793
21.591177762015743,0.04223186373514532
21.599621711081838,0.05978234698845141
21.60806566014794,0.064704429067618
21.616509609214038,0.051721455627352496
21.624953558280136,0.02992076508975059
21.63339750734624,0.013234733220779268
21.641841456412337,0.008620156807216683
21.650285405478435,0.013748577877929229
21.658729354544533,0.018756445070042548
21.667173303610635,0.014147875452193738
21.67561725267673,-0.0005604252713460405
21.684061201742832,-0.019505622681103153
21.69250515080893,-0.03884286489406864
21.700949099875032,-0.055344013098750255
21.70939304894113,-0.061524775914116224
21.71783699800723,-0.0540746450755991
21.72628094707333,-0.04157246174239217
21.734724896139426,-0.03355413230911565
21.743168845205528,-0.029469843875749902
21.751612794271626,-0.022942460959570886
21.760056743337724,-0.008253640635418627
21.768500692403826,0.01743947761951371
21.776944641469925,0.04804860205167935
21.785388590536023,0.06651812335563294
21.79383253960212,0.06089277233580173
21.802276488668223,0.03703990500375827
21.810720437734318,0.008465312240423082
21.81916438680042,-0.014548074759070549
21.827608335866522,-0.02631053796642726
21.836052284932617,-0.027439930191907932
21.84449623399872,-0.0229431868663289
21.852940183064817,-0.017296579929714513
21.861384132130915,-0.013581896163478435
21.869828081197014,-0.013462026100219668
21.878272030263116,-0.015930975560936405
21.886715979329214,-0.01761741332177978
21.895159928395312,-0.01458888151566894
21.903603877461414,-0.005808110351058368
21.91204782652751,0.004555472145649157
21.92049177559361,0.01084747457254846
21.92893572465971,0.010161263741390803
21.937379673725808,0.002439799977593778
21.94582362279191,-0.00843228989136434
21.954267571858008,-0.015166510676451563
21.96271152092411,-0.013473260257674063
21.971155469990205,-0.005871705017491088
21.979599419056306,0.0025881627218377725
21.988043368122405,0.008763279869553052
21.996487317188503,0.011068447193942343
22.004931266254605,0.009676513129270412
22.013375215320703,0.006695629233369297
22.0218191643868,0.003450284673964155
22.0302631134529,0.0005945507182763604
22.038707062519002,-0.0003108297340348805
22.047151011585097,5.173414792077107e-05
22.0555949606512,-0.002658613379813836
22.0640389097173,-0.01074840435736936
22.072482858783395,-0.020797936797629542
22.080926807849497,-0.027079962374901557
22.089370756915596,-0.025938965456939314
22.097814705981694,-0.018843504004073676
22.106258655047792,-0.012484522293283019
22.114702604113894,-0.014101442397061415
22.123146553179993,-0.026359929800194033
22.13159050224609,-0.04402428234478228
22.140034451312193,-0.05650318459401806
22.148478400378288,-0.05621820076381199
22.15692234944439,-0.04166282002587857
22.165366298510488,-0.01594498633419219
22.173810247576586,0.01149090242725216
22.18225419664269,0.026425779195840687
22.190698145708787,0.020998511053547577
22.199142094774885,0.0017129021604891138
22.207586043840983,-0.019038174038072495
22.216029992907085,-0.03585586228349092
22.224473941973184,-0.05056715381853286
22.232917891039282,-0.06317581479688357
22.241361840105384,-0.06809818876801818
22.249805789171482,-0.06137800500018841
22.25824973823758,-0.04556585833819898
22.26669368730368,-0.024385105603909014
22.27513763636978,0.0002980800982554646
22.283581585435876,0.02445827986268484
22.292025534501978,0.04092915870941527
22.30046948356808,0.04456805355883042
22.308913432634174,0.03577139363832303
22.317357381700276,0.019245639348881682
22.325801330766375,0.0029096449118651653
22.334245279832473,-0.0047489869384783594
22.34268922889857,-0.0022674062066058713
22.351133177964673,0.0024831380228906292
22.35957712703077,0.0015573249780324507
22.36802107609687,-0.005517756381052597
22.37646502516297,-0.013208246927242644
22.384908974229067,-0.012002900749041494
22.39335292329517,0.009180428952884893
22.401796872361267,0.049390670225565515
22.410240821427365,0.08351512712319369
22.418684770493467,0.08467820184022042
22.427128719559565,0.05592901561635985
22.435572668625664,0.01990964112209114
22.444016617691762,-0.006511607465480558
22.452460566757864,-0.01576674389533115
22.46090451582396,-0.007232805945616241
22.46934846489006,0.010945735077625633
22.477792413956163,0.025515381676479088
22.48623636302226,0.02930778118987812
22.49468031208836,0.025280542591319084
22.503124261154458,0.017474972388840757
22.51156821022056,0.006526539270389837
22.520012159286654,-0.005285308448211165
22.528456108352756,-0.012432413017868833
22.536900057418855,-0.010129653204435788
22.545344006484953,0.0014963641192668347
22.553787955551055,0.01608097625636835
22.562231904617153,0.024900979921195637
22.57067585368325,0.023279831214501535
22.57911980274935,0.012838731026794167
22.587563751815452,-0.0006138712454853211
22.59600770088155,-0.01053564766083514
22.60445164994765,-0.014006620970626837
22.61289559901375,-0.013078061320774645
22.621339548079845,-0.01122675845165833
22.629783497145947,-0.009699362460904432
22.638227446212046,-0.007178675864803699
22.646671395278144,-0.0023386623084948053
22.655115344344242,0.004759257526905399
22.663559293410344,0.012236712129950006
22.672003242476443,0.015497608925411726
22.68044719154254,0.012382267292586676
22.688891140608643,0.008268409124732538
22.697335089674738,0.010073167477213759
22.70577903874084,0.018699148879914956
22.714222987806938,0.028047108210793533
22.722666936873036,0.028899576938757495
22.731110885939138,0.018032772969619748
22.739554835005237,0.003022089849162862
22.74799878407134,-0.006210410379797167
22.756442733137433,-0.007089696364319149
22.764886682203535,-0.003963030312420349
22.773330631269634,-0.0014948046154166033
22.781774580335732,-0.0008291969774792635
22.790218529401834,-0.0026855604138777177
22.798662478467932,-0.009024891634523424
22.80710642753403,-0.018227231195113276
22.81555037660013,-0.023655762262018282
22.82399432566623,-0.01901520926650857
22.832438274732326,-0.0020448933426306707
22.840882223798427,0.023358947207231175
22.84932617286453,0.04541043915145411
22.857770121930624,0.053428161156351274
22.866214070996726,0.04794086616039941
22.874658020062824,0.03445690919016649
22.883101969128923,0.016457161862886517
22.89154591819502,-0.002245711229651788
22.899989867261123,-0.016894874360169697
22.90843381632722,-0.023489522318261406
22.91687776539332,-0.02001036355276794
22.92532171445942,-0.008520747744475803
22.933765663525516,0.0035260988513606444
22.94220961259162,0.007120147145960817
22.950653561657717,-0.0003657399981402959
22.959097510723815,-0.012054270546014781
22.967541459789917,-0.01651468696205375
22.975985408856015,-0.006074782318970634
22.984429357922114,0.01636922125792376
22.992873306988212,0.03966071344626332
23.001317256054314,0.055631946435580004
23.00976120512041,0.0629301364562889
23.01820515418651,0.06032430747194484
23.026649103252613,0.04477510451372003
23.03509305231871,0.01606619197283123
23.04353700138481,-0.01941164132421367
23.051980950450908,-0.04897254754533319
23.06042489951701,-0.061019464319408676
23.068868848583104,-0.053037181606812735
23.077312797649206,-0.031152930239050768
23.085756746715308,-0.0063622681417195
23.094200695781403,0.009827891007023415
23.102644644847505,0.014582372570246693
23.111088593913603,0.01678582549008691
23.1195325429797,0.023721488909699946
23.1279764920458,0.029620168038526375
23.136420441111902,0.025290482159591045
23.144864390178,0.013001390783290505
23.1533083392441,0.002197358400552995
23.1617522883102,-0.004345230072279649
23.170196237376295,-0.010661772054720374
23.178640186442397,-0.017524720164470133
23.187084135508496,-0.020784705907245144
23.195528084574594,-0.01823404615705773
23.203972033640696,-0.01156511902544044
23.212415982706794,-0.003050384935815082
23.220859931772893,0.005424486263994915
23.22930388083899,0.012065098741369448
23.237747829905093,0.01644055425266187
23.246191778971188,0.019986949833962413
23.25463572803729,0.0242170347626253
23.26307967710339,0.02807455970500313
23.271523626169486,0.026848094761553924
23.279967575235588,0.013758537051707095
23.288411524301686,-0.01658849159017314
23.29685547336779,-0.06331423024421119
23.305299422433883,-0.1119571217630072
23.313743371499985,-0.1356557098898978
23.322187320566087,-0.12038476767477954
23.330631269632182,-0.08427851401992044
23.339075218698284,-0.05567915776217822
23.347519167764382,-0.04581374085933585
23.35596311683048,-0.05031738673758216
23.36440706589658,-0.05760541176935234
23.37285101496268,-0.05272892305515212
23.38129496402878,-0.028811411106065186
23.389738913094877,0.0044361545855229
23.39818286216098,0.030988526878278952
23.406626811227074,0.04085305837347216
23.415070760293176,0.029870916611060346
23.423514709359274,-0.0005462502498182397
23.431958658425373,-0.03879431440592526
23.44040260749147,-0.06558573774182669
23.448846556557573,-0.06777643434677959
23.45729050562367,-0.04829350581087009
23.46573445468977,-0.01972432463221016
23.47417840375587,0.007368697441042546
23.482622352821966,0.026314163106109057
23.49106630188807,0.03108463885803555
23.499510250954167,0.021395592769581324
23.507954200020265,0.00711007793513496
23.516398149086367,-0.0020599847399730533
23.524842098152465,-0.004504531908799419
23.533286047218564,-0.0013210460383592444
23.541729996284662,0.006189852247949465
23.550173945350764,0.013193945443616264
23.558617894416862,0.013794768339061394
23.56706184348296,0.006746294406160119
23.575505792549063,-0.004846264518662478
23.58394974161516,-0.016879253811847524
23.59239369068126,-0.02557385360057984
23.600837639747358,-0.028137805654943202
23.60928158881346,-0.022988144622229367
23.617725537879554,-0.009459831023761488
23.626169486945656,0.011084021934049866
23.634613436011758,0.03393085580533827
23.643057385077853,0.051576331833468235
23.651501334143955,0.05561848002096282
23.659945283210053,0.04380665435610247
23.66838923227615,0.026446293079718387
23.67683318134225,0.017665716930286266
23.685277130408352,0.02092222069039407
23.69372107947445,0.02746704595546208
23.70216502854055,0.028693438881554758
23.71060897760665,0.027865677803348227
23.719052926672745,0.036827633573302924
23.727496875738847,0.060723581069733225
23.735940824804945,0.08666896780220464
23.744384773871044,0.09289917324339864
23.752828722937146,0.0707734957475803
23.761272672003244,0.0311349838494653
23.769716621069342,-0.006952604401354831
23.77816057013544,-0.02819850753429416
23.786604519201543,-0.028026318560482436
23.795048468267638,-0.010774614577302862
23.80349241733374,0.016897231359694464
23.81193636639984,0.046874459265819846
23.82038031546594,0.06766824804246203
23.828824264532038,0.0687066759891414
23.837268213598136,0.05097105623532843
23.84571216266424,0.029496174903797967
23.854156111730333,0.01959430970993855
23.862600060796435,0.02495949658306873
23.871044009862537,0.040090006867318444
23.87948795892863,0.06014063155455355
23.887931907994734,0.08614339348566259
23.896375857060832,0.11445785441976031
23.90481980612693,0.12809739065128167
23.91326375519303,0.11770016360183085
23.92170770425913,0.09759131234949389
23.93015165332523,0.08126110468554418
23.938595602391327,0.06543480232940606
23.94703955145743,0.0464206284081932
23.955483500523524,0.02730163318301651
23.963927449589626,0.011715980883457525
23.972371398655724,0.0026549458711331926
23.980815347721823,0.0031051023308569844
23.989259296787925,0.013579846331084397
23.997703245854023,0.02790162151879628
24.00614719492012,0.03519571346908033
24.01459114398622,0.03054815521325664
24.02303509305232,0.01917960752680792
24.031479042118416,0.008412742907157154
24.03992299118452,0.0011098120430689533
24.04836694025062,-0.00408390691540142
24.056810889316715,-0.009701663158615734
24.065254838382817,-0.01620386809475092
24.073698787448915,-0.02184076447663413
24.082142736515017,-0.024685472203499717
24.090586685581112,-0.023892269072417732
24.099030634647214,-0.021445260672361178
24.107474583713316,-0.023117291718775555
24.11591853277941,-0.034809309430356324
24.124362481845512,-0.05674671850421549
24.13280643091161,-0.07811568252150246
24.14125037997771,-0.07972887694681971
24.149694329043808,-0.055229652111346235
24.15813827810991,-0.0218616313337069
24.166582227176008,0.0005856085800873823
24.175026176242106,0.0030695659926610924
24.183470125308208,-0.019287813005305156
24.191914074374303,-0.06614709428940645
24.200358023440405,-0.12189579608273371
24.208801972506503,-0.1562550721171303
24.2172459215726,-0.15016313490209005
24.225689870638703,-0.11625775773597238
24.2341338197048,-0.07842696370300214
24.2425777687709,-0.045871182501544615
24.251021717837,-0.01699944867837523
24.2594656669031,0.007818969786417298
24.267909615969195,0.023810498227821632
24.276353565035297,0.026509176755300706
24.2847975141014,0.01731089557636391
24.293241463167494,0.003604264885978176
24.301685412233596,-0.005956402904522144
24.310129361299694,-0.005020865662225388
24.318573310365792,0.008509772825124353
24.32701725943189,0.03198356592955672
24.335461208497993,0.05780682629099232
24.34390515756409,0.07314141837879538
24.35234910663019,0.06942408744216175
24.36079305569629,0.05396998670035237
24.36923700476239,0.04140037442067398
24.377680953828488,0.0362633071964625
24.386124902894586,0.030830360615714706
24.39456885196069,0.015168941999453563
24.403012801026783,-0.016030179848634283
24.411456750092885,-0.06300582977016443
24.419900699158987,-0.11689026398893271
24.42834464822508,-0.15893112621336025
24.436788597291184,-0.17788883723663174
24.445232546357282,-0.17625715828263838
24.45367649542338,-0.15145664025422273
24.46212044448948,-0.1010873606888166
24.47056439355558,-0.04251177656546664
24.47900834262168,0.0017709686074734018
24.487452291687777,0.024531041004236483
24.49589624075388,0.03103239756529649
24.504340189819974,0.030188345585497066
24.512784138886076,0.02879262875927348
24.521228087952174,0.030144824765901156
24.529672037018273,0.036562585285036996
24.538115986084374,0.047458875364705
24.546559935150473,0.05566422904503844
24.55500388421657,0.0542103062103929
24.56344783328267,0.04339440845199742
24.57189178234877,0.023851876103061834
24.580335731414866,-0.008920953122807431
24.588779680480968,-0.05169774727460739
24.59722362954707,-0.08107422526311032
24.605667578613165,-0.07434216935383745
24.614111527679267,-0.03891636714850039
24.622555476745365,-0.0013964417010683648
24.630999425811467,0.0207761628653071
24.639443374877562,0.02670936334725647
24.647887323943664,0.024645055420104825
24.656331273009766,0.021077528041644047
24.66477522207586,0.015622868969252742
24.673219171141962,0.007344025399868375
24.68166312020806,3.606899528887106e-05
24.69010706927416,-0.0008010817322150034
24.698551018340257,0.00816459812278013
24.70699496740636,0.025630444792633544
24.715438916472458,0.04502794525774185
24.723882865538556,0.05761383504987899
24.732326814604658,0.056498164185578056
24.740770763670753,0.03673269824849296
24.749214712736855,-0.006086139515747579
24.757658661802953,-0.06958535297749012
24.76610261086905,-0.13367812025663908
24.774546559935153,-0.16447987198304537
24.78299050900125,-0.14437158801093744
24.79143445806735,-0.09165718005658025
24.79987840713345,-0.03665150586068123
24.80832235619955,0.004345035126571753
24.816766305265645,0.026486014712414917
24.825210254331747,0.03079260108359712
24.83365420339785,0.024514007458044898
24.842098152463944,0.017468674553513787
24.850542101530046,0.01583339391093432
24.858986050596144,0.018766310104256386
24.867429999662242,0.021673353045326645
24.87587394872834,0.0232634525413584
24.884317897794443,0.0254626757499111
24.892761846860544,0.026747389815512373
24.90120579592664,0.022018562966651094
24.90964974499274,0.009290860158776022
24.91809369405884,-0.006641081600248081
24.926537643124938,-0.016827923403180726
24.934981592191036,-0.016040214416549823
24.943425541257138,-0.008139928581386426
24.951869490323237,-0.0006867791082797304
24.960313439389335,0.0031703992452940827
24.968757388455437,0.005550908965976352
24.97720133752153,0.010113192872841464
24.985645286587634,0.017755990626255318
24.994089235653732,0.025271940589481554
25.00253318471983,0.03007597007529947
25.010977133785932,0.03482539380044991
25.01942108285203,0.04276184937656373
25.02786503191813,0.05135000037154588
25.036308980984227,0.06064442402626759
25.04475293005033,0.08386458018446434
25.053196879116424,0.13262462320314905
25.061640828182526,0.18929558308722189
25.070084777248628,0.2105242140732939
25.078528726314723,0.16795098397934297
25.086972675380824,0.0706920202179985
25.095416624446923,-0.05392810080274074
25.10386057351302,-0.16904154697508417
25.11230452257912,-0.22363761672755436
25.12074847164522,-0.19061057106847396
25.12919242071132,-0.10377222636473532
25.137636369777418,-0.021953155860656874
25.14608031884352,0.02360978703849329
25.15452426790962,0.03394460321587944
25.162968216975717,0.022691245893608783
25.171412166041815,0.003932752110283115
25.179856115107917,-0.010700098559884207
25.188300064174015,-0.01510063821619275
25.196744013240114,-0.011263600300224818
25.205187962306216,-0.0034055319954846546
25.21363191137231,0.008992470250692174
25.222075860438412,0.027764178909470666
25.23051980950451,0.05001245836258457
25.23896375857061,0.06850196535393327
25.247407707636707,0.07487219930921274
25.25585165670281,0.065887387268361
25.264295605768908,0.047900546677933316
25.272739554835006,0.029492352621926628
25.281183503901108,0.014529041946765494
25.289627452967203,0.005666339681366954
25.298071402033305,0.004761792008711305
25.306515351099403,0.007014391878684791
25.3149593001655,-0.00019425310905331838
25.323403249231603,-0.03067025304513292
25.3318471982977,-0.08774213993259722
25.3402911473638,-0.1499374705498173
25.3487350964299,-0.17481450150677935
25.357179045496,-0.14110844880751824
25.365622994562095,-0.07615756852290327
25.374066943628197,-0.020393671116694552
25.3825108926943,0.010733922104603902
25.390954841760394,0.022846347194621225
25.399398790826496,0.02701319592562979
25.407842739892594,0.029858373075708357
25.416286688958696,0.030485868637074396
25.42473063802479,0.025802206103260998
25.433174587090893,0.016936044866341725
25.441618536156994,0.009300397662022352
25.45006248522309,0.007779363362391845
25.45850643428919,0.014293582346187625
25.46695038335529,0.02751913856098893
25.475394332421388,0.04206406510485013
25.483838281487486,0.05259037692204483
25.492282230553588,0.05855261673647303
25.500726179619686,0.060318499893425526
25.509170128685785,0.05419897253860177
25.517614077751887,0.03263529332038467
