0
0.012490047800870494
-0.014423912284698883
0.0027954394833484574
-0.0034056994320200915
-0.00181080773739887
-0.020097382434000412
-0.09023243753694098
0.04857575097335531
-0.006031057584922808
0.03455187479991936
0.04745261118069451
0.019674438099626684
-0.012660887244543948
-0.018670265329873842
-0.01487651389871729
0.002637069246927803
-0.004878774967551012
-0.0047119567631845
-0.007395826533230692
-0.012390353121066651
-0.010620855477468653
-0.1084041738260214
-0.028209627983591605
0.06726930640664651
0.006205030991765833
-0.036173966145915476
0.017889878169419737
-0.07938185217208006
-0.027317800872125254
-0.0034521881546041282
-0.005704120024759131
0.020524356454833116
-0.04718587119602301
0.005873021601834643
0.03890201704181716
-0.021248301264253592
-0.009854382819762975
0.0562806475121549
-0.0191237505052467
-0.007186791853059723
-0.02941087904261318
0.07257326724865393
0.20190755548668665
-0.02244402630432297
-0.016733389449663384
0.0022078322951708707
0.018015983441881676
-0.0037947234913743885
0.036911356574096894
-0.012814862005985852
-0.022690088425959477
-0.024739399176491247
-0.000862101053960625
0.015040295830574984
-0.00021195904120653255
0.010583362589881098
-0.006389609892658238
0.004137191127422507
-0.02895029324681789
-0.0007784542476317164
0.023810648988018608
-0.0023960817973422187
0.0015724165670280045
0.008083690817796604
-0.010560428680220014
-0.0031070418306856275
-0.014217483578120403
0.009456300792891562
0.008304333803374385
-0.0595690541693665
0.08827588462148624
0.011866763933364739
0.01565783807097402
-0.15516765239745497
-0.10001550998144638
0.02397219314888903
0.013169762621527754
0.007244888510515804
-0.02276969988285778
0.005610271856572658
-0.044019961867650274
0.03544639186953286
0.08055479263526603
-0.05787307851867434
-0.0007691147740380519
0.046440228414636325
-0.0037267431141394577
0.003088651681241066
0.06219329054257425
0.011709808180202886
-0.011622516986611557
0.04150838014832609
-0.023686451101549374
0.023095241427994198
0.10711673841903031
0.04680626600188766
0.014173923902285905
0.004839106929435384
-0.001470014678094439
0.030519946576645612
0.00962799066879301
0.0007408962935161591
-0.0051112248215585115
0.028959499287841885
0.022174891277892284
-0.09097392796685184
-0.09473114555672746
0.004423158776557459
-0.030317795423730563
-0.016269909284572334
-0.011592722307011607
-0.01450798245818375
-0.0373897475216324
-0.08615564882388284
-0.03007592638789814
0.037646599513907676
-0.02899784934403089
-0.023440757356008295
-0.010980947825862581
-0.01803450283608032
-0.011323361101323821
6.171047964566225e-05
-0.08257015657957704
0.0017459558777712008
0.04982025752405552
0.031484206438058236
0.028925790876114178
-0.001720140107661893
-0.04857110798916875
0.030787531001482335
0.04542721609285452
0.006549761976246232
0.027791258505994763
0.0045833812488794146
-0.020918200476070025
0.03150738838040144
0.04893208471064167
0.001258664887607855
0.001160582293598547
0.013248902239393895
-0.009317430589009428
0.003498165328947697
0.015292317256059788
0.015212723247223815
0.03176711448561275
0.0050894751255486995
-0.0008605975434963397
-0.008979049987683322
-0.04709698754676854
-0.038160524249055465
0.08063190847656908
-0.014800494091239288
-0.04624433980968361
-0.012266189630540627
0.0115765555584829
-0.006524563756322995
-0.008664749709311494
0.0029203126434034074
0.017463289030068115
0.021328160496174153
-0.009520189055157922
-0.004559097785169725
0.016484050037494317
-0.0264266082044031
-0.032475607429206736
0.02654949805068257
-0.04282854808670503
0.010673190336317306
0.034930239266193173
0.05708130998909462
0.03734367197188518
-0.015837275514070152
-0.007795647670312456
0.0089629108592352
-0.030902122806982974
-0.051628826644600806
-0.006228577661337044
0.018140539665737435
0.035472631349739596
0.010147135757404049
0.0016510002032159585
-0.024050637080784924
-0.004467079217854261
0.07374186612046717
0.010488082874170654
-0.030752739741862687
0.0512256183099575
0.0170963062883568
-0.030361840678978864
-0.005596849666039165
-0.0033238412215019913
0.038169942071168944
-0.034510808716308204
-0.08801317356786865
-0.03489892360096342
-0.03846954307738738
0.0075787641992318515
-0.02785199148164196
-0.0032810314351801534
0.028366843659293185
0.007758155937596999
-0.004652844935798719
0.02545920040615843
0.012423117049215886
-0.0257208668245232
0.0006299066122704004
0.008771432395105415
-0.02525139328363041
-0.0015830113183477417
0.024062320471195057
0.02355245767482825
0.08170527020816534
0.03360351892709292
-0.015840159471377426
-0.041755461983838074
-0.027087728140015362
0.008084928920796748
-0.018863877421546667
-0.026199262155001186
0.03149862910818185
0.02933695513128985
-0.017542398380210645
-0.03357912098758134
0.014972336953474524
-0.0012532733025220017
0.011335793452749774
0.019047829746430548
-0.04188495803972053
0.00029257953231845234
-0.01922023592288355
-0.004278850982291895
-0.03554615096591339
-0.06280986553262699
0.04138894998379988
0.001741283921452974
0.034942511629152406
0.01807953912394973
-0.007162676217804058
0.007422147735572927
-0.005728644237681617
-0.010080022529270613
0.02523487501559288
-0.0021871608236387115
0.030558632531995318
-0.0115331261509018
-0.1091919296545724
0.05604441946427332
0.01846992865163247
-0.037683086884539085
0.026906611609460975
-0.020748992654795746
0.00612951797580095
-0.008005735073619463
-0.046267429396757306
-0.017359398376851874
0.07223243605344426
0.025855732427470166
-0.016967421898611265
0.0015069070444722421
0.00232991136646834
-0.03493878757914742
0.007332842368696241
-0.007221199555419897
-0.02936345520830976
-0.05335306802729236
0.07026023314719844
0.11740960444635312
-0.008961521349365417
-0.014273133805849155
-0.035711145242636744
0.0012954243917930605
0.0001014838110116586
-0.02772540952709341
0.024386357518242405
0.009499449133446858
0.01690535312991785
-0.03866268572018649
-0.016243883411315573
0.11581245250466723
0.029120765030375785
0.022698536849655625
-0.03614852983720539
-0.00042222642944296046
-0.04134792364343723
0.0036458939434314687
0.01491175441579436
-0.005337414009582075
-0.0034056470598344164
0.04273095504733864
0.037563900489677414
0.011971191138988336
0.008555768619297464
-0.016873850276108236
0.049589317641863216
0.057301447584559434
-0.0741078765292922
-0.026547797581700876
-0.027322456415428333
-0.0098906404885793
0.004615490747941432
0.037888712781465946
-0.027546734422260757
-0.013344503105018411
0.00903870823126441
-0.003692702085488288
0.0011525903896939835
-0.024592908854998607
0.022275923740180052
0.03266287597931515
-0.0059152527378874085
-0.060177206428493876
-0.08742525107596931
0.010047076108683379
-0.03165920479323896
-0.05208059866746798
0.00984563464295383
0.02161148922533663
-0.05124908446673091
0.0637076652485382
0.010085603843809406
-0.030543872749774797
-0.004797765152761012
0.0404408029195427
-0.021009930030538707
-0.047901774538356555
0.02693451772044591
0.04336179376295132
0.018820200107477154
0.015264533423726771
-0.039210427961546925
-0.01988459585402039
0.02060349348860282
0.012314656463588279
0.027208878350478947
-0.004352820440278448
0.039487983722712214
-0.022933780448804498
-0.13847183152863274
0.02991657686639057
0.045121645923559044
0.05129501548559043
-0.02103317380120602
0.029458339176128407
-0.03610046232247244
0.01137271673642093
0.003340189819591373
-0.016494431767804456
-0.03963033979065908
0.09700708347106721
0.038374766104222316
-0.011675161969544245
0.003316989110353244
0.004719768402336586
-0.0005128705910535855
0.034438433858321495
0.02561796210697304
0.01027447973531604
-0.11545559647287262
-0.055812214713324135
0.09030085662996994
0.00014344691705479574
-0.013978060431663854
0.026442480558271735
-0.0143652195366341
-0.01801251648394792
0.018040996899386146
0.005272880961289435
-0.049891704099184406
-0.033143301724361585
-0.00167051528780888
-0.03268002410804737
-0.006245690942622548
-0.0325762001209371
0.02428993737421495
0.03104565957124696
0.0009415298444047854
0.012195588673808858
0.0004560493989843663
-0.02085426110437526
0.017255490581649373
0.02844981296872786
-0.03326924651761382
-0.04473687196794822
-0.01843536934902968
0.009514075036197445
-0.01056009335344649
0.036408609271701795
0.01866987945853725
0.003763709123208946
0.025475390442140842
0.03418239564762605
0.055977724479913005
-0.0075160397437709974
-0.028491617008849873
0.002073723577091515
-0.022711769452235683
0.006300823003428663
0.006603418909922675
-0.024066506358103246
0.019833201822747167
0.0009586649195926305
-0.02544335142164464
0.021197870804084855
0.010987117225402875
-0.013233528523034607
-0.03380311200014588
0.013265997964555706
-0.018091020681227404
0.010218887204702284
-0.017864338166277832
0.004723424034032019
0.004634155635950688
0.02900944485808487
0.008566080488699437
0.006833267415168692
-0.05760264371745163
0.010864462125829843
0.012035032130482362
-0.02009435757980038
0.01661411792804228
-0.027137328946132296
0.032422086250218925
0.06585834330186902
0.03752120614990418
0.005710292888985919
-0.012964799282726978
0.003620259547363858
-0.037653736018515606
-0.009245560600887787
-0.007128433739007215
-0.013504356978520902
0.022048279819503552
-0.010488920735710701
0.06781396231814121
0.004256402172584952
-0.020189617252224422
-0.03742114606474961
-0.020107375663971312
0.0021959530966887387
0.007543369338202523
0.017419016464803604
0.007870926982189606
-0.01316575196107583
-0.0117886222604618
-0.005982597255526936
0.010396547353051842
-0.04461458923398495
0.05164526795486682
0.023071972943277338
-0.03382871390735812
-0.016489411514179684
-0.02119355827900804
-0.0029672441961539993
0.022666999424782276
0.032670904317663785
-0.01981240898695882
0.005578672499122088
-0.016853882801307875
0.001288074003925652
-0.007680435153532797
-0.06234537548040009
-0.008235218844922869
0.001229384252537274
-0.005045800653043318
0.015615849958940742
0.0027902806549621097
0.024043070975427818
0.041216061423071916
0.026840114409568537
-0.011490876345388616
0.027122496039886944
-0.05138107912050385
-0.03789166345590151
0.034307479659598517
0.010952035036099502
0.0009485647213648322
0.016980049922928012
0.046468482887274634
-0.0037539331028231845
0.02119894499545215
-0.013631060971119654
0.0035988719354112524
-0.1322617954636393
-0.12064385512580036
0.03147685733668975
-0.019325025533082567
-0.036830471398137984
-0.017626147669647107
-0.0027846739553172464
0.0716611478995793
-0.02223615518310493
0.03332634780329527
0.0246286688556094
0.006892158006155926
0.007742634841900931
0.01292724866044252
0.03409013301118106
0.02207608866513443
0.0025917945435382566
0.025342605588363223
-0.004954330328749132
0.013071026140854909
-0.015044269618649199
-0.04333509783128534
-0.03916747641319209
-0.010503157884567692
-0.03462091308892165
0.12535709139946985
0.18321229982199974
-0.04498131514341958
0.007095104021299215
-0.04312034935599208
-0.09218729677259178
-0.03848855508864237
0.025940295317471267
-0.020350911550398282
-0.0394749085096937
-0.02388455322078018
0.02473233429301015
0.064838581203984
0.022357035937250223
0.006227504983706859
0.0050667415847781136
0.012815849003377233
-0.014944763836666328
0.0009079014067636798
-0.008919154841801866
0.005123629517950229
0.002195177097094007
0.009505721214415992
-0.05397591907092077
-0.052839924447054015
-0.009908984954802316
0.06138586523796635
0.06915930565868464
0.00118321894020856
-0.00559960881498241
-0.01070183577024136
-0.01564361127948319
-0.027262120845247033
0.016874504593909902
0.04449331644950431
0.012258827349553124
-0.037666257096082206
0.01274556355608368
0.01841845253641011
-0.02407492142045333
-0.06291691247958023
-0.006369200160519779
-0.00928415391003828
-0.009771590376457789
0.01810267049553409
0.028984660389414055
-0.011685770521748524
-0.009314817251471546
-0.013107689559725492
0.01545510945752108
-0.0005179551776576149
-0.005938482452387687
-0.01533324839978584
-0.016893882383694072
-0.011643421553186914
0.029965002625234213
-0.0031098875449897816
-0.002539231987827204
-0.02546037791260233
-0.03960987464870559
0.09188631712275468
0.05276888197242709
-0.0026881503836974174
0.012091491434814316
0.011029518773829287
0.01488805350928526
0.007496131282344912
-0.00625622633323784
0.015399416431876676
0.04431140581661186
0.032531012670749385
0.0019637309049956387
-0.04263280443419296
0.0058883327437200955
-0.03470085672386431
-0.01568897497693971
-0.013003621006797273
-0.009891815011367358
0.017504406551247492
0.03807742244852057
0.0044324010366740465
-0.10912857929477628
-0.05831539752852266
0.018111182281515634
-0.01897476211696203
0.04478985114065287
-0.012311893119413832
0.020947618084131214
0.03159235209055893
-0.009755938592260562
0.0032587456931606287
0.033443167741700884
0.003161445758067478
0.04592564047482613
0.0052397711373646785
0.0089534488445451
-0.004554049765779188
0.01024016577510866
-0.1520198700212689
-0.182551026683851
-0.09741398367569251
-0.04262943924838615
0.1528037858686445
0.09612697898259862
-0.01811721841194945
-0.04808525061277226
-0.04002590114707684
0.0036237002284954588
0.0001832276681890137
-0.0065921156785903965
0.021276515823383347
0.04099247852050324
-3.34149501916739e-05
-0.03310474160071741
0.07763343224134081
0.1317973129144205
-0.04448782608418432
0.0153151177143202
-0.013653678822677635
0.029428778074088027
-0.015136459877625555
0.020315165312580468
-0.03916928787010907
0.02785492407103724
-0.0050762512424757655
-0.009731614559955531
-0.019499002034721602
0.06747217847820915
0.066329184114761
0.03353081453249627
-0.07223989802919775
-0.0420504439821943
-0.009977764334148946
-0.043259279136796655
-0.02256654115876164
0.007925566874629088
-0.05884296067067554
-0.05799274803398202
-0.03330016151838128
0.12903084264563733
0.0920073602499094
-0.011112261238064415
0.022227453225018658
0.021459037686658525
-0.015608318802281999
-0.006254596667268898
0.007754996272570211
-0.013617009873856611
-0.01153910897282804
0.038242336120726333
0.023110672990182223
0.009625548663690536
0.02395645456824694
0.004796344133870101
-0.1535880238955608
0.053957054507159485
0.03991363100768549
-0.022703398302634882
-0.020710927981902254
0.022831357283954464
0.026833573520469854
-0.06206996810006766
-0.03572904187893842
0.008085877219714809
0.0016151914541461566
0.0025295563999231476
-0.02637885372938595
-0.004058527801362298
0.011866138085791398
0.010701681426218653
-0.003595481962390608
-0.001278008744934975
-0.013277159532896671
-0.03809743797821123
0.0004183093674156695
0.002775057438815689
-0.018382465015616307
-0.031143607264366473
0.07327070110570069
0.019750269236114285
0.020769618439827463
0.0852801700369877
0.009048677426056155
-0.028779437875000025
-0.014454088265159974
0.014142959664751738
0.08442876699488056
0.040047988869851774
-0.029391966939418257
0.008869014911440879
0.02528599817311639
-0.04060274998002906
-0.04671768217993091
-0.022832432700350434
-0.009499400025959434
-0.08840498892264652
-0.069163099880332
-0.006725143294361919
0.045932648258030596
0.002997133823029132
0.0123335752721634
-0.014549057681794306
0.011469611683098867
-0.005764480446079037
-0.01567891920205483
0.03985272093856086
-0.08859210565376786
-0.031189331610200703
0.03303127777913881
-0.01143442068195448
0.003954095221010184
0.016062555499947683
-0.007452595716240406
-0.0373690085200347
-0.0039100000037487976
0.02767308719386474
0.006653915201985935
-0.02298805693358795
0.06690050228868409
0.12213021566056181
-0.04574579054593527
-0.017626794039013554
-0.011066303603078979
0.019232103622867917
0.04614160552285612
0.016545051318962643
0.022715407027229295
0.07917008412308703
0.005274753305358077
0.0094544821298497
0.014654193605008095
0.026148412361875917
-0.013094659944394496
-0.012838944726799882
-0.07365929348155995
-0.00823843576515008
0.002227404963451264
0.00990630179278213
-0.05758640784890321
-0.028095579023922856
0.01167826649483748
-0.0006559103896667047
0.032390548315011924
-0.02407041961290921
0.010269059222810876
-0.029415418839786062
-0.02986210803916959
-0.010421474860802337
-0.03326805985567765
-0.012135057118514104
0.0017961573100241086
-0.008155118171073169
-0.004549372072809111
-0.10728632065372466
-0.061130055194572944
0.053518429075848126
-0.010566968301309194
-0.0036595626057766622
-0.001606071793202487
-0.019360783987898176
-0.016214010558275996
-0.006552331439920815
0.012909854885017944
0.024238021389642515
0.000520388973515261
0.08745379748148886
0.016691954342939495
-0.007507589169081577
0.027431605335457295
-0.02906845913853362
-0.028628928911931258
0.1246382961286454
0.09022965358089258
-0.016357722650984407
-0.02140172330638216
-0.00202912769695758
0.026610805225737746
-0.02106994935658321
0.008830059370347343
0.012057053714217315
-0.04755949630704728
-0.010515752544501275
-0.007247426183069252
0.009039791520930955
-0.00473591441955249
-0.03692679634751999
0.01335382839033115
-0.0018270044673494483
-0.0018270531395290853
0.06210689139532562
-0.024206623477100418
-0.008275663446039855
-0.030519020144846195
-0.014765244138010307
-0.01111439757450909
-0.01212927375005774
-0.01484585316753712
0.03407875107796206
0.02276357094820082
0.0032203923604444138
-0.012817627025858994
0.025463271316804405
-0.04043656759385414
0.09724023287342835
0.1119888178506899
0.019244853822783185
-0.010365404860059902
-0.015017905323492092
0.0048696145350010725
-0.016556251901253927
0.022760159241509422
0.02000990416427288
-0.06117015297372925
-0.00875189055479429
-0.02690053281748104
-0.004233033069530317
-0.029179963581097066
-0.08837895682263165
0.003358403979029702
0.0405334781317929
-0.0008491715383386601
0.011578309540769759
0.04661787347138788
-0.0015956549863652577
-0.019986411121849724
0.006054391917337817
-0.018238696949224135
-0.009789043914860006
-0.024760640581437985
0.0002858574184281029
-0.05216820381993243
-0.024046512604620183
0.01748397006455407
-0.027901816802633733
-0.018796140953097503
0.0077759960388041885
0.00684039675674657
0.005585376393248339
0.01665297852928161
0.005064441142082928
-0.011508502797914736
0.003931014611870068
-0.013074001986926953
-0.010814700392257905
-0.004068345283531668
0.030620232362574183
0.023212109429943624
-0.004301064032498273
0.05017843773924156
0.02569876542092453
-0.003026595957633888
-0.05030512725049597
0.06686791142429149
-0.057510103851153474
-0.1404623813245035
0.07354620936078861
0.033916260148740315
0.01834681483819229
-0.02207105645828725
0.021425325031649345
-0.00581104663635628
0.008393568352673296
-0.012052502535433513
-0.031765661177418136
-0.017312186177409577
-0.016608429774360018
0.020247260748799626
0.004062235332535291
-0.004145720169795366
-0.00011797954827041295
-0.01149046409227589
0.0033033588996584534
-0.008046014933540093
0.026814536046179074
0.014670754639102335
-0.005788114026943695
0.022544128830215615
0.012798838326064998
-0.01052316103609409
-0.041115126671111994
-0.013053200996427861
0.03360013683424554
-0.03707320321401578
0.15608025244276225
0.039923460175050975
-0.004404458193785969
0.016877675058187706
-0.012367681305035851
-0.030962523438027443
0.034515855866711284
0.058665755700840407
-0.013223945941526623
-0.03681505229876579
0.013445954139550237
0.013066115750441464
0.0359905767689687
-0.0015654825535540917
0.00414039745820463
-0.004089108231375363
-0.06505830866545878
0.014684240646758611
0.009358074602646278
-0.00698099955778757
-0.06061306234959779
-0.036931156257387285
-0.12843883007650692
0.032555010057896315
0.003597199742364849
0.00585061210873663
-0.02548603581179612
-0.014713054712961715
0.011673759703553242
0.015917245823281585
0.008304545145773341
-0.011040128465407677
0.013685578384669418
-0.008879331244424363
0.0151383836523298
0.004267666916037012
-0.011141979183898853
0.012486026622241384
0.09619268562677069
0.007271682170699413
-0.18573760247854573
-0.005498736763325219
0.027596830960454795
-0.015680122848568588
0.02213867850148485
-0.006356213701906744
0.045338010143673405
0.002631723002690364
0.007918786100048283
0.023736520018645006
0.010440773081299207
-0.015986775313937267
0.03352552905404425
0.0361713055532328
0.03002367341592835
0.008290603714821428
0.005564351334314723
0.006279316291620761
0.01838441346853237
-0.0014658000428365622
-0.027732088320339916
-0.05972761795643085
0.01290882804327715
0.05084925058924628
0.0002369132567230974
-0.08249965689221966
-0.0009741530924671236
-0.10188631807318108
-0.12198675540199186
0.007627847037703009
0.07146272643419548
-0.022208867133335242
0.03877920419585406
0.1013282992325758
-0.0016582532882725531
0.022942774739450333
0.023856431666541722
-0.0011636085242270968
-0.011480938897186148
0.04060149877394783
0.010830502822228439
-0.03124458885047684
-0.012805582850597672
0.009622735734576787
0.008541760443286072
0.0011654977177793795
0.028997723489406612
-0.016415580922487294
-0.024024800446393088
-0.11711149088877103
-0.039432620914666
0.07971214505322213
-0.031466020517057186
-0.03082068432650353
0.017845311347591528
0.029583417094420063
0.008002214907234097
0.02648564679328945
-0.01557956690032739
-0.0018109899361168401
0.00022647494771446078
-0.0414917126471291
0.12302922798326187
0.04992733604295685
-0.046190890859448094
0.013395492861822853
-0.05252864848676776
0.015214245933907978
0.0061485809375286075
0.016163121487034224
0.011446759807624662
-0.01211421536450709
0.010954805976996057
-0.009150077952894749
-0.004093808542891301
0.009731460968925677
-0.031858741098706615
0.0005579788548000437
-0.009921085759296986
-0.004476477629660639
0.004015703777367983
0.003948568737973857
0.0019515653628280182
0.01600268381563372
0.056205337935759464
-0.0017215472606406078
-0.06496338521855063
0.005156542237628882
0.018825453500182453
-0.044289692787658666
-0.028800185409332067
0.029079790567869034
0.029423103801846096
0.02891793342698006
-0.018876156760694814
-0.019963493794232488
0.008291967457818267
0.11650659564000386
0.04813438813824657
0.018061633477393407
-0.007459380769501902
0.0036697467834684075
0.00033826451111929545
-0.012892117596412834
0.007490078089963812
-0.0627549746092201
-0.015110718439575229
0.01900202173359855
-0.011735175487242549
-0.03918990121989431
-0.0868268808213822
-0.004470577103986262
-0.023167899824778432
0.050136021624138966
0.04066320180692982
-0.04315741199529412
-0.013296958582833971
-0.12094550223488623
-0.03760685716711541
-0.02972888567672439
0.004381664962185074
-0.07172270820437882
-0.04037785585933046
-0.014813968413255675
0.11472072403701664
0.06469309812784463
-0.0238651741132596
-0.011765161108529598
-0.025753166385794998
0.031629203669476545
0.039529877013568436
-0.006200955555224255
-0.006948357706889587
0.021815379156094338
0.0036357680789040783
-0.039439603608202006
0.004823546906928832
-0.04353864009061696
-0.010360292442788249
-0.021248125101334683
0.013522372206750207
0.04723199783676445
0.11838381136599377
0.09858485961586229
-0.01886266710407479
-0.02806230745465365
-0.023481998907113673
-0.04624631732388198
-0.028551719400299623
0.023950652550439613
0.011759258210693324
-0.0027513703259910275
0.0409718789343989
0.008500018166997225
0.012943952224518033
-0.020326898211859276
-0.019379128283715248
-0.06462055572312912
0.06026798393138653
0.06967227050904226
-0.03978941584891064
0.0659284165512686
0.021763404534043598
-0.007507970963604721
0.0015404633378041305
-0.014105654361951242
0.027708861467227022
0.1334903572448912
0.020898159088543564
0.03064023779506133
-0.03514545964378531
0.0012519799695127458
-0.02192440166683792
-0.01993067431962867
-0.029331463789374984
-0.016159271829130212
0.017148186983284543
-0.013691469143916953
-0.012108345429646464
-0.028417109384829175
-0.09641056317250861
0.01850031534099777
-0.020601245982576268
-0.02133007815413981
0.017064116856831395
-0.0266820832064708
-0.017772728418558006
-0.009159306573119788
-0.029359220894856722
-0.01156814702734292
0.0027713420624005695
0.026241649614275837
-0.03648259078184456
0.05498594727778885
0.043811092267312814
-0.02990746394558176
0.008642302840020757
0.024546282538049916
-0.013116687155266071
0.03220881089071864
-0.02253008221160823
0.00752593611626382
0.053146907595193506
-0.010656201296384414
-0.004513433366025035
-0.02741780657313598
-0.05330394089069066
0.006437020989421112
0.0015406749176739133
0.006147531871843122
0.013327009834971081
0.014017138381961124
-0.030777863099773105
-0.020692539104939858
0.004775649675435795
-0.011576715273482151
0.005263027991635834
-0.02227000862864969
0.061226038904529496
0.09000334104208385
-0.013101065503155701
-0.20207241826564437
-0.0339746181166925
0.09695363761496897
-0.010401951709424439
0.007577074712031623
0.0433838169268335
-0.0029750836073129724
-0.0024586926639082137
0.004165438699840448
0.028760097735324848
0.0028785940862070545
0.02091717389708053
0.02626362342295221
0.027726115264049025
0.03780069409864106
-0.003933332403010676
0.013530564528949218
0.0007188365452686293
-0.024903929885664176
-0.0038363619243325106
-0.02350732733221505
0.008665104448551956
0.012358287200556269
0.020848957772240204
-0.041348071632593394
-0.1340393890913276
-0.04559218126942787
0.03744869862393273
0.02373620545108904
-0.006792115944715802
0.040217353172709434
0.014287367545287059
0.01101828483659544
-0.007400336974185168
0.007400765173615601
-0.022027370070754115
-0.0013914579210130547
0.0017148088965747038
0.04304920219738278
-0.08710423263400216
-0.07728569544581931
0.015652224003796827
-0.021126144860848784
0.09069340696346186
-0.034200641376217554
-0.0025606542873212335
-0.0029988752506060236
-0.13754279367220965
-0.03309708740980831
0.1016942057344429
0.0043776898924963855
-0.04595284232997929
-0.0028692664763952836
0.043284494023252004
0.01775998646952557
-0.007081315655525182
-0.0016410704902821518
0.03718781593852859
0.01525700430927063
-0.006968421040314732
0.03840265329679663
0.0658350969414997
-0.014468029756739144
-0.010801711706273295
0.01597572368012299
-0.0036689574505513215
-0.06813496232780387
-0.02537919702138742
-0.012259808704233602
-0.016992501352580573
0.1394416011780731
0.02940750583606421
-0.03131404093176419
-0.0009392471840224066
-0.009632023295622325
-0.0037947151427140074
0.028245226805166945
0.04030635637535409
-0.050201432078461644
-0.028382384830642475
-0.047916762280036544
0.10526216260743347
0.04818209076679532
-0.05636065345146936
0.007361813664590874
0.02336335065237901
-0.009780701548207284
-0.005966558485594867
-0.014244616599222739
-0.024154839435812356
0.0947465830801271
0.058826402467302655
-0.030736132250168535
-0.05308775712716215
-0.011519368775044331
-0.0038654226653747786
0.0027071993498451992
0.011168848660837612
0.0029902933316358926
-0.029186431395221344
-0.009554202829221089
-0.009304702176230736
-0.013755593686845898
0.025463459988809972
0.025457745525264985
-0.00824224838267426
-0.02140315808638583
0.007992814731827743
0.026907146333041684
-0.012159699512595922
-0.013148190956706982
0.010389709755627509
-0.007781540856843499
0.005564946399409168
-0.011753198846253653
-0.05288471854314487
-0.009037761382034841
-0.022850891525193377
0.014253623928906162
0.0015634869818490246
0.020952405047806263
0.010571848291091679
-0.008370980727519845
0.0006726342006747378
-0.014023085704360325
0.015847132578381974
-0.05138799779254007
-0.031832028821795144
0.04510743719090026
0.013809628533480374
-0.04379825445002812
-0.03595334576738868
-0.03919649417796065
-0.002848401067005639
0.01084298663041335
-0.003930975665817108
0.008671031210439757
0.03174829928605263
-0.0012791201818965114
-0.03602946933639332
-0.032666184322924126
0.0096586770277419
-0.07984488503269514
-0.032936192667643825
0.10747397966843278
0.044123433728234324
0.0011336046496857623
0.04928582834496433
0.060967314766687
0.003568433413483643
0.005320084034040331
0.0009068676410841886
-0.020469545220648103
0.05615335164814852
-0.011293968494842056
0.02372562271744591
0.019399684526841505
-0.029110653020615582
0.011311424454645235
0.00462081940504211
0.011770683913927035
-0.0008307880516256116
0.04422466502266056
0.020901732075679517
0.031180532083982488
-0.01378284303202464
-0.003693593122526425
0.030548656474564208
-0.005844539161478349
-0.004036413385314217
-0.050485407772478674
-0.03664301714501301
-0.0002521130975912952
-0.004749237749195356
-0.017839579137977606
-0.08925912483766502
-0.03625796942784012
-0.008153836751096816
-0.011900897285391253
-0.05400026522841519
0.011398590595942934
-0.0008198353549701722
0.014542184850227971
0.044893976609219975
-0.014726111635206148
-0.016898161792072288
0.014982168683093515
0.003276439235627258
-0.1181718129775383
-0.030617773928398477
0.05728746548656905
0.034483073550980674
0.030926537077748964
0.027701609046707765
0.043753993876023266
0.04169711546304211
0.015841094750739963
-0.018649157824357443
0.024556321947437246
-0.016478556462725856
0.06733481992967622
0.056570781963769017
0.010128604395950848
0.015332173605871358
0.06260022831423187
-0.03799514921235417
-0.06725766935781606
-0.02303855896593548
-0.031307689524559784
-0.0274188084215787
0.016014488598308146
0.037666177856291935
0.009312772374197049
0.03634521984883786
-0.013703663300340594
-0.07617542370587155
-0.045070779953013486
-0.015923681402804344
-0.035936479293138826
0.0007916247048341239
-0.001973176535878451
-0.056366168255036674
-0.008493257147563242
0.06727009136158313
-0.007291109235740857
-0.012869116494429452
-0.005033474429960518
0.010307289108431856
0.0005701290130846016
0.003944650328591095
0.0190029641435086
0.06071729718650167
-0.0034799690857306074
-0.024784700982363038
-0.013154958704668762
-0.028846800612938567
0.0201446227682037
0.05761806060465963
0.029932246030253424
0.011954399991917112
0.005372239307597165
-0.007763796794873531
0.055432033930827164
0.01171249249322073
-0.04104465293929394
0.02870187710813093
-0.05753094300920824
-0.17340484707378911
-0.0962465498885174
-0.002826037912185955
-0.06688414497716332
-0.014082421101517235
0.03531923515663829
-0.030398866173784688
0.039853671640166635
0.05264608111312104
0.03928446033583463
0.02865308504451471
-0.01484758341579619
-0.025848207607195018
0.0026573873514971996
-0.0065656456722293895
0.09507106071891713
0.06970015745923845
-0.030627109649630162
-0.019975240769653436
-0.0035212148843211553
0.03630653375269607
0.013213716971646397
0.020670857861849218
-0.01435514605819903
-0.024855464170374795
-0.037299483072770645
0.05276571373005911
0.0614579632811651
-0.02322008878962694
-0.0011336894587929247
0.013676533224095325
0.1841384283341689
0.0008445167294128283
-0.0025627666727543142
0.03596249367275339
0.011636916128754211
-0.018346430905231758
-0.005949025470306899
-0.01652882689026881
-0.028466516103361855
-0.022495913483179177
-0.0205957888853958
-0.08655388929210994
-0.0008052362150210994
-0.0069819884597407044
-0.026733841632499707
-0.01030138688273104
0.022974186143660418
-0.03174662262100556
-0.048928818393337736
-0.04676322233775543
-0.015457572678680196
-0.008490768287360104
-0.005530701985444004
-0.008400413145326096
-0.07428938346719821
0.040451658083664806
-0.034188689014356635
0.0041204016196479685
0.024732206716442558
-0.0241518474123467
-0.002105210773735352
-0.008748895068971654
-0.003580022832909053
0.017087160742803628
-0.002454264306716926
0.037801412024544456
-0.046291886279335004
0.018632977167627282
0.058530733302314765
0.06753032774329762
0.016424969469939807
0.037315754301163566
0.027425743373909524
-0.009782257790149152
0.069756604848083
0.0032240197993126103
-0.006741119328254032
-0.053571712828607135
0.004814705476438733
-0.015156396981167004
0.005652509509597131
-0.022861383000869092
0.01924450705813895
0.0064343033550243005
-0.015255130796689319
-0.02000931922616594
0.04239919435414321
-0.003920776398448407
0.0748110253809856
0.03459362704793716
0.01917211784906319
0.06270399820373918
-0.009370309665490524
0.014912211034317474
-0.03454786448313117
0.00483402653650334
-0.026626474612173427
0.019068015907931446
0.06850131198217722
-0.0016537678848456173
-0.035580781751953124
