0
-0.011738518636534252
-0.006153295596647531
0.03474807029907102
-0.03109690836012836
0.12603368746447247
0.07375575846633182
-0.06916185323942464
0.013594253633459875
0.006157574307071645
-0.020677809835925508
0.004220371792095739
0.049951300799283324
-0.07930032762688562
0.03947404911369121
0.21540152363946127
0.023865936431605256
0.06929715866518518
0.041077030645083557
-0.04876421648819359
0.0006213043350201066
-0.01006774535612818
0.004270385645295659
0.010871215336348172
0.027687335196663467
-0.18351262368697652
-0.05200850605306724
0.07416062691953076
-0.02021153639008211
-0.18317651262681586
-0.03424114333277569
-0.016207788411279775
0.14281691069066874
0.030331787795156558
-0.0619449898110122
-0.017985099235488782
-0.0220541634491432
-0.023805667420450538
-0.015190263178344366
0.011810535460641399
0.0073456864345016835
0.03660081661492489
-0.014795325588937746
-0.034333114425478234
-0.0013061977218731024
-0.012718263357611215
-0.02314012644674372
-0.024677239239865263
0.011520106016595387
0.026795969648321257
0.010359274691966878
-0.02975811418235483
-0.06022734693256987
0.011086255904179457
-0.014882384109830386
-0.029888938010831385
-0.012018014312909471
-0.021708267084060793
-0.031082551935772855
0.025612850877272726
0.003211018093536742
-0.034156794882018136
0.034815388709211345
0.17356390640960204
-0.024094740120867965
-0.043717753561068065
-0.013269510909349665
-0.035051567864271924
0.062036415536535036
-0.0037574426315430728
-0.04601474320252707
-0.006841864510939551
0.011435949540885884
-3.39089203717082e-05
0.05947824365835717
0.18554221141935853
-0.0018931905625230094
-0.016893566040859887
0.12504526748323988
0.03766993783302778
0.007483850352208066
-0.003366340137423583
-0.03530965297689849
0.004735471693215678
-0.013611470561177756
-0.0039685017623772275
-0.02116558848854795
-0.007003577601459462
-0.055170083643529946
0.045638605465179775
0.04189566220197471
-0.007391845479130988
0.013987084762793896
0.03545972295873117
0.00481835133082052
0.01344211792074235
-0.04137558836194221
0.002346272365763687
-0.0427610160575851
0.004760147825350664
-0.04488526798740985
-0.040547348303275894
0.0054704908208333645
-0.024833256307125375
-0.04541265432230413
0.00827392309096275
0.020605881951248167
0.012349142785349052
-0.017353410204779582
-0.04661356370079154
0.01027480420221074
0.026409972676470533
0.07591329742773655
-0.007293453878580308
-0.0376991939581087
0.0008028278877264661
0.011359568018717814
-0.003636626888477587
0.026523013938823163
0.060500898914414965
-0.07277014942201285
-0.06911690470141305
0.0019412459081496343
-0.003874007748499059
-0.057222556309540984
-0.04020351502312897
-0.008143393578523065
-0.021505274884205606
0.0010333177992821944
0.03077209224143719
-0.012463998482442418
-0.03498259824090106
-0.007136092236984666
-0.017439929454834448
0.005942361639938757
-0.016372853812522865
-0.03364572817934532
0.05642779017615955
0.0666029243973282
0.03249344544501497
0.012381815212351642
0.023531613217558957
-0.0013651874144638442
-0.03819408449579646
-0.0063371763862434365
-0.012947105222056238
0.022689170405080485
-0.036177103205512845
-0.015030235626663623
-0.0347631845199906
0.03395041381589431
0.186975090523681
-0.00908672283799565
0.01544101113889671
-0.0169233565920842
-0.000805989869133228
-0.0050316145388824745
-0.01266049421102556
-0.034021641277078775
0.0022820823036529716
0.0034612458819308356
-0.0006064603073135177
-0.019412644984492612
-0.0046813825158608675
-0.008283284219227046
-0.0429719559152446
-0.03291957727871863
0.007091021465831084
-0.0017486480823242433
0.0051922754344980275
0.07511804930477123
0.0035553866208227966
-0.015022304905160403
-0.006842409737087436
0.003118280533348367
-0.02811398047979414
0.08839315209162837
0.020335561901660283
-0.045684972757012075
-0.004107284563481443
-0.011571694844285775
-0.022987018662396354
-0.0011140776240665695
-0.013625095149650593
-0.007927283277879447
-0.031966780881772745
-0.013731755060330968
-0.013477971274451704
0.02315513030196577
0.047900489837042454
0.0027067294696571233
-0.0038040650445541626
0.03278833863870758
-0.009204817799331622
-0.018170205077875857
-0.002112697090621227
-0.011876071212333741
-0.015145984061398212
-0.007850424086073038
-0.023488708408990058
0.0043448700036057535
-0.003229328391981766
0.003815925086228292
-0.00831428043440542
-0.03554388428822581
-0.024151653166754685
0.019767512588665784
0.00812778890878094
-0.018179012087385746
0.04809822987881856
0.01682251661506551
0.02058511828972848
0.011517347253000281
-0.004646672203695616
0.03129725563003036
0.07365319089885444
-0.0276286504510713
0.020484670161895754
0.03659693568933208
-0.011563849599745088
0.10181028842980852
0.046168366093941794
-0.0197833151267891
0.025847386686131506
-0.013866061040649415
-0.003332174296200344
-0.019134561031722574
-0.05186115116186362
-0.019150477584149263
0.06898087694972879
0.08098093280208316
-0.14263998534555444
-0.08741410054414178
-0.03880173066523544
-0.00929951819397104
-0.018973201487713025
-0.0067075612036981485
0.019107331161363903
-0.016076803564399327
0.022821068388634153
-0.004509604136692335
2.599057115544418e-05
-0.02867587262676694
-0.021537769230058665
0.010513408450629251
0.021839976122612674
-0.02636969340499438
-0.0179725881773814
0.00915253123846128
0.047173349715486826
0.03355768046984308
0.023455912898467046
-0.002050686068435696
-0.01658910246286977
0.004113765593729165
0.017917015227603836
0.01982966003738021
-0.028424415067715484
-0.055848468381009535
-0.04926164339871171
0.007689313515317777
-0.026040082131197864
-0.054395722379303374
0.0010068281830990168
0.041123651616237246
0.010083835413853584
-0.014000538571763473
0.009786930937903364
0.029974257094351316
0.01650348924652292
-0.018022531459927674
-0.0400416781501441
0.0037708797543878994
-0.008537592601651624
0.06841732693975126
0.04279306496048811
-0.01223262797122268
-0.014223006445504538
0.010261990941584621
-0.0037636188870932043
0.02554275971876919
0.03454293355117859
0.026182570180991262
-0.015271074163544042
-0.025915942463923904
0.017953768875226723
0.01239628565077615
-0.001734212201595427
0.025591268008097606
0.01117202641625989
-0.017732190519154343
-0.014662950893858818
0.0011841220987759272
0.009037038983522892
0.020069983048870227
-0.024911169013306943
-0.018225371317005603
-0.0012324858143854913
0.026257509647524165
0.007688238112258761
-0.029837320338113045
-0.008241683650421416
-0.032821189427257785
-0.07707031370288372
-0.02162674038560741
0.03485619504565751
-0.006286628590429837
-0.015393417069144714
0.009914912017473526
0.0066228627049441866
-0.007671383848185221
-0.04288970244894628
0.008173736943468549
-0.010951770923032449
0.010356701984311958
0.024854492507973596
-0.004720486077118206
-0.0010105791393259945
-0.0070867275753498035
-0.030071045816057632
-0.051025335471140576
-0.02177002808283695
0.012758362256991401
0.014860812697022064
0.011635609447620694
0.012389688436329939
0.009970331840026521
0.02018058712576075
0.020358017300826745
0.053363366864916655
0.01978713211212407
0.03243420052520147
0.013896591414893867
-0.009216982201046643
0.026536147464706724
0.005379826258334616
0.02256538229017708
0.02570817923802121
0.04093162833585531
0.028281791002819336
-0.04450710256520537
-0.058901487861564926
0.020451736518505993
-0.01086514857976882
-0.01500786300175482
-0.01722622559523721
-0.02250816230738462
0.024209516341884264
0.02312537475982023
-0.04397021118203523
-0.02677328951776657
0.003771951381820909
-0.0058282057347461705
0.0038797659881218763
0.04688662262494774
-0.011027712426477088
0.009349640273208068
0.001744946568084553
0.01659937284455025
0.037846616144158796
0.04077407288511473
-0.0018509505010336814
-0.017010914767725975
0.011058290754039113
0.023948555887920983
-0.018050815510063416
-0.011285994220469574
-0.043684589384335476
-0.029211300122859038
-0.19670930555119268
-0.061559086164514935
0.022441850108650335
0.03369660533235094
0.020585966422405386
-0.007327913276886433
0.04166034216488736
0.01353940549808512
0.0484921809622489
0.04378960683697211
-0.0220601814152314
0.003117671457221601
-0.012580277516559555
0.030546782695474454
0.01372682067600117
0.02588555627059269
-0.045000667495950844
0.0014026386153397235
-0.018999751433791602
-0.02310302879285224
-0.006248928891308857
0.056789936801939
0.027287293904299622
0.00813961763932252
-0.11163609552959886
-0.056898296210790233
-0.003928607680038229
-0.02943973279342788
-0.003061630723272621
0.001298210269985635
-0.011579514743711857
0.027466395022519095
0.01165011743095889
-0.008043031471526105
0.033728332251530435
0.05790216144881086
0.015051327302149128
0.03860919546627715
0.05025365847057795
-0.002181556903251075
-0.004321688799612576
-0.018563230602153154
0.047340052197164466
-0.04390024801037947
-0.070305731892123
0.009300674819126904
-0.0023178036790216404
0.013880516254949038
0.0001257635595371919
-0.007702185226770541
-0.009278030436065472
-0.018129072684581395
0.01824872871320044
-0.018882091357729978
-0.062246595266587594
-0.027799484258470026
0.04835244115289244
-0.014035077364154793
0.06760446020083434
0.07792239655470051
-0.02183703174879818
0.010997753337696077
0.012512806670320484
0.03623617522357214
0.0036098399679815327
0.013372486492370474
0.055131089131267345
0.010481771177663862
-0.019567913760238743
-0.009045682283730016
0.04487935637880315
-0.02703024851869148
0.02605204230125719
0.0011271770837048558
0.04188282931182172
-0.14462726790511063
-0.0932312896613225
0.02695933316068937
-0.04819131222912804
-0.019200653709088425
-0.01263005221935641
0.02636656631998482
-0.013232777809465586
0.025549240826597517
-0.024977052608772445
-0.021981369126564933
-0.03476495100019403
-0.015169248888807406
0.06077933005213965
0.0014860626970589427
0.015976173417516778
-0.009652695114029303
-0.028885713910119445
5.911069987785158e-05
-0.0037745635537722237
0.01655704558914984
-0.006185381603582665
-0.010683024489332933
-0.02526662472823143
0.02856955777890624
0.00677345548634005
0.03302416899556216
0.026083485546774983
-0.015123841845427886
-0.02101813538604472
-0.0036200326458035214
0.02600654629360362
-0.026832776103106776
-0.01101267207560892
0.015166607301984164
0.008769822428944356
0.01833755012801466
-0.009106536901237968
-0.023108626185159107
0.023321265770244726
-0.0152329106104429
-0.010483268494463275
0.00922091130192683
-0.033884505139085995
-0.008768043262560794
0.006992385751294819
0.006884567056627257
0.04512748830732384
0.13767426252516507
0.007924515167336398
-0.029623871052355918
-0.05864506991587714
-0.021253102992797247
-0.009805003468117107
0.01850037276584809
0.012285412659498268
-0.007651441943163383
-0.0007369809362280817
0.0019570421151852845
-0.0997936884266765
0.06245393564921852
0.12988838252669466
0.01814364862844664
0.08198983403064448
0.050435443153958
-0.048116352243439214
-0.062111562584192405
0.02611437700632284
-0.05649871597792907
-0.05718114703675518
-0.022636355382668418
0.010935398993517753
0.00922183526840262
-0.003550181438632753
0.03482280201341533
0.0032488391378927097
-0.05234845792887917
-0.05450502158160683
-0.00508769626973261
-0.029980328636498303
0.012608048088326341
0.045968727228353
0.03253283316342544
0.009317614179638476
-0.02876806425795024
0.014505558440057348
0.014165034050871408
-0.009355042722096182
-0.004543879372024167
-0.016705698178644417
-0.022581311331859935
-0.012175483240002633
0.0013392054976848152
-0.03856499905423355
-0.016805048151546813
0.00799334088970487
-0.01083996628477551
-0.018120156331727526
-0.005917043686068765
0.0060072735538608596
0.0029572691019687475
0.008978141990682354
-0.033024567966857814
0.0005210900422786091
0.09742932925892323
-0.04189491480194213
-0.027585459971073846
0.0433572994821567
0.013729108386314182
-0.0072451782604899114
-0.04161337089718884
0.024014772368756536
0.005955043136615498
-0.0014278419661131218
0.017266389583420163
-0.005126944504549808
-0.030684709301011307
0.016042369066055655
0.01637076157962701
-0.019371920826150107
-0.03223397917988203
0.001701295263625811
0.018392874572106775
-0.026226350149899817
-0.03622079114965161
-0.025461071035492902
0.008075301838744848
0.00961108686360714
0.009264187197457271
0.037301212568408286
-0.02257978237337879
-0.00851380023059467
0.03913169858964589
0.007799371151950207
-0.003661258328683602
0.024417645322175933
0.031298388152460346
0.018948116521903542
-0.0043770508910197115
-0.01759711228658117
0.002258891425882843
0.008546878181554715
-0.008622994172607168
-0.014903479656430726
-0.03673506264662851
0.004461787799825511
0.09878091210711555
-0.01364661506691004
0.011136860645984157
0.00325943680047915
0.02811118372766542
0.09682913641267676
-0.018569767822140416
-0.010225960658694015
-0.013690974431110918
0.0028540302765776428
-0.0077095237089273285
-0.009491412949050374
-0.012322849133427093
-0.003094516253743346
0.007753314690460853
0.05014674288091104
0.01379289766354646
0.012403336693103248
0.030816666418068503
0.009137968685806883
-0.0013464759191561696
-0.0015750845517228784
0.01618679571036355
0.02916188220316466
-0.025519385781754743
-0.006047432158909868
-0.03781750696202677
-0.1814708402668159
-0.05556709529733981
0.007382217701889055
0.028163990501293798
-0.014738393768260845
-0.011684661026433956
-0.031161103106136193
-0.06138156510042838
0.022607970898367403
0.007042161376592158
0.025237017250905065
0.01658854260438025
0.021953678169044956
-0.003915203193371338
0.023579853964134524
-0.008469193348258486
0.005565103861774425
-0.010563467317414385
-0.021328001565805582
0.010347072070099203
0.03435706417764533
-0.02937345714965788
0.028450603384223835
0.03861731201907059
0.008472892882906369
0.0326639221221137
0.019621008800253067
0.007085872533895752
-0.041907816023335334
0.0034883049372173053
-0.10292111067206462
-0.11449836665135632
0.007964903278962304
-0.006132740501842769
0.0023282654848619786
0.020215077777408056
0.025532052512382435
-0.03367491784301741
-0.0009171611122001191
0.0392161909637143
0.01395510761714919
0.03653003617645353
0.04739134504257715
0.00277060839651742
0.012641302734190361
-0.0016862547454165057
-0.017456636861482033
0.051307796328841256
-0.023738006213607107
-0.023244351766823025
-0.022139130541760917
0.008144423175977727
-0.016120764436515046
-0.018473426325000746
0.01228542843487027
0.03351988045466783
0.04080161530175658
-0.006177670953190932
-0.006702057295469511
-0.0033668906840841205
0.011784363345031081
-0.018471606393186766
0.08209606441128389
-0.0638534364772979
-0.042561745309502755
-0.05406882656539997
0.13830461758487483
0.07625136967115101
-0.013143201036806905
0.00218843655215717
-0.001968918356344552
0.05101347117646749
-0.025311649587525093
-0.008179629513185942
-0.02414447753287391
-0.023843732603391926
-0.02677561117794031
-0.007286343526223168
0.009926130594639995
-0.009260090057087748
-0.008421097667511635
-0.0013835190591222765
-0.005256339499533227
0.0010203547224236845
-0.04873100755380155
-0.11061807845217478
0.0007454782141297703
0.016581201377617826
0.00290785314884623
-0.04018578875188081
-0.03762676815497155
-0.002685480895272303
-0.011271627255746632
-0.02274857385896069
0.008341286235618346
-0.0517134032129439
0.006538836089711026
-0.02823099645615242
0.001980042566735503
0.09790744961454358
0.012385060406803662
-0.019597660609529215
-0.01646168824509668
-0.048080218982234316
0.04317108914560536
0.011280419662136644
0.10070969900470415
0.06815450883541625
-0.040105929060427745
-0.002335976924517825
-0.005467016752486494
-0.018154029222097776
0.001764542736464676
0.11887284579428528
0.03130841209706334
0.009652868019439716
0.016639025991403163
0.02329788963841772
-0.13157152737010433
-0.02923172120184875
0.027325349151281736
-0.015189028498256594
0.09932942441810637
0.03684867364191958
-0.03804313741216133
0.07374932693365227
0.11327660019702644
-0.06884111161087508
0.03572541497254303
0.028195612606515617
-0.035058616954055107
-0.03900363948232646
0.005723309563111037
0.018025002757698815
-0.05700010320371374
-0.009219698971697686
-0.005496606706510016
0.010986828772757933
-0.02182802507465502
-0.011228597533967603
-0.0833792863275623
-0.04668438367673691
-0.03743284698141194
-0.020373084542004576
0.018708859492028246
-0.0484569675064525
-0.03210875551072673
0.009779490112055127
-0.027735015055755312
0.13610896527638064
0.06531799472831364
-0.01291511865778229
-0.019803878836158226
0.021593591300257658
0.0006922451140113003
-0.018958839191996778
0.019727951621687834
-0.046938656570440676
-0.009275304139775401
-0.01260293723452201
0.0018256911101557245
0.047749090844641455
-0.014593980334998475
0.006999375447437199
-0.020249883675653592
-0.016770805396537743
-0.016987822514409952
0.004541505599206877
0.012496006200175202
0.010136166632502469
0.0016032714797977192
-0.07479631766910079
0.040825511182017
0.02009846260155587
-0.036954412507560805
0.10143553752906768
0.0426303455281986
-0.04266506166378966
-0.0052449076739825
-0.017861033583638865
0.012588290700263858
-0.0035592784606354524
-0.00018850440912133074
-0.03797927548820442
-0.006403248400877849
0.003199892622125353
0.014674588826901109
0.017377182325592676
-0.024108516066585397
-0.006235760522791224
0.07691792822197917
-0.001810956328240782
-0.00812451458610034
0.005842444972446203
0.011161171119376827
0.030832812894485452
0.007388162073121452
-0.03876313878295897
0.03984598237684957
0.01735307721866103
-0.03549517373295473
-0.03583966149273005
-0.02641274139384301
0.008866311017315952
0.006487817190660899
0.006869796928295718
0.010692307976663465
0.011942423255958868
-0.008816286107835558
-0.09776636685967309
0.035235951461645036
0.014228440571706944
-0.03395619743211386
-0.04253979004620774
-0.013347809563941482
0.06272520070903269
0.015474348072608066
-0.08208629091677068
-0.006108883286244186
-0.008456770679976402
0.1308581542887326
0.046155531608480856
0.03246337220934673
-0.11264553010713715
-0.07324483971273678
0.00830050362826223
-0.01001335203662257
0.009229089683938898
-0.021479738713046256
0.004956518808322875
0.09171433387655467
0.004259047358878171
-0.07698044146557426
0.012748247381731906
-0.0013554126773772544
-0.004140696961906275
0.002530029779545462
-0.019264805774510393
0.01441505523770829
0.00571059369772921
0.006690671939632024
0.01784934539618796
-0.01970483884046963
0.0067387751991234085
0.024319586409394252
-0.028647778448728234
0.08045633186965465
-0.014105021958868107
-0.09794376086810283
0.018175812737930026
-0.018458903545178984
0.036996222673834574
-0.020755023021964376
-0.018452813977080283
-0.03806538512295174
0.04757229327807592
-0.018619230365194257
0.04067121339443879
0.0294771442151859
-0.0034566665341910553
0.0023565919228616477
-0.001808785071710314
0.013579701534992657
0.05061166483529179
0.07675850226491314
0.012959235262074686
0.022979557487766943
-0.018135869112530307
-0.01151527308332059
-0.018066281771920066
-0.009139020635984683
-0.031898430168515124
-0.05118167783189296
0.0054563417091861854
0.006189340969896818
0.014457892330059511
0.024119491066598144
0.02021690367526336
0.02143577651394312
0.02461926134577902
0.013134241255041977
0.02420038714154341
-0.0349737861760263
0.010894785858056423
0.026558268141249265
-0.0138038800398576
0.0030914688165239695
-0.007736549361679087
-0.00614194058991293
-0.02963359876260376
0.017581143525510653
0.02955311837081637
-0.15175239990763978
-0.0366590521995248
-0.0393647174806785
-0.025483495876040756
-0.003583969930204804
0.03763793048745131
-0.031099067364235983
-0.02030602430753097
-0.00402580669123311
0.023649692520309244
0.03008484829021806
-0.13031708711199755
-0.08615673055386817
0.02566771248028236
0.029442047270369646
0.00809888949960926
0.09650088991447277
0.04692032267759592
0.0486253511771221
0.03207803404307022
-0.030207223385035457
-0.00823873067203418
0.018948499667526795
-0.013255316546360215
0.03828111826665424
0.02809627918631324
-0.006022605197686023
-0.01577797916509726
-0.026041306091561304
-0.029205296874355628
-0.016822147437562874
-0.024752346945847607
0.03769477771090698
-0.018384012951469148
0.01750487134567727
0.015930481341919336
-0.0012622109490438248
0.011227846230560393
-0.04609268226157726
-0.007752262041019527
0.018600477144858327
0.02965537466993922
-0.02076502767755655
-0.017979676811257467
-0.00764513145594343
0.024092145806842723
-0.009587758193424903
-0.018884777075133113
-0.012920920231552491
-0.007402533058536021
-0.007488056977367777
0.06630940012632436
0.05357313815805412
-0.050814924336406206
-0.008106559074512467
0.12892784120137418
0.06319774864315886
-0.034226766033917604
-0.05740441453533151
-0.08457381630063761
0.00982074919049369
-0.01771865115978553
-0.0061944951920287
-0.03828523058431467
-0.011950202357073385
-0.04659775813067813
0.0011628535184315281
-0.008249627482857414
0.0453624794108718
0.06162420198423284
-0.0021859238330731406
0.026673095155493917
0.009252825637625023
-0.01865888190505854
-0.015473903861742397
0.030609349101935447
0.078892022990954
0.035713212206559
-0.004307812644778803
0.03132027531432993
0.03591333091965493
-0.004185837607374271
-0.02255901021604717
-0.012758324528861177
0.0049038678137944625
-0.017754608957868376
0.01645721230132692
0.04541681169782219
-0.007046733824268211
-0.006929269230425073
0.02170977659095079
-0.03919654151723099
-0.05034787703244491
0.020361300986420815
-0.025459431225019813
-0.021309795347296996
-0.009079833693681547
-0.0067896257765756775
0.017899400970821745
0.009738766979821211
0.028905058167498318
0.051173454832352264
-0.10557046874939037
-0.051228674638349604
-0.10186786998522454
-0.05576639743293122
0.018463367743302744
-0.017995678721715196
0.00776012314890639
0.017030076626130902
0.07196479482950283
-0.03701145613249037
-0.024875978395744826
-0.02126535869181818
0.003363111730475644
-0.011079130344158482
-0.010908954553669139
0.017628838766830822
-0.002783823363871351
-0.0024645007561305957
0.018788780267498622
0.014356132868949706
0.04337790280359629
0.02937094829656021
-0.0014953156197045321
0.03925856906905292
0.03619333736212525
0.018160490576092446
0.018633070051100747
-0.009651579033143913
-0.028284647953008994
0.011701978301005115
0.012053562643029335
0.011450501039872987
0.0028199977483402473
0.02396587064627089
-0.0055523435396476134
-0.010158889590842544
0.008278506172430486
0.015046011239640136
-0.09576370644490137
0.0005115606203333632
0.012192786052880681
-0.006651406736731978
-0.01411473822872916
-0.05505806367191667
0.022308530287004563
0.06307574604944903
-0.017334460290424764
0.03447087918063441
-0.08210302080013358
-0.1159656338318838
-0.02291219592912099
0.012208153379996402
0.045342239582767285
-0.0294420851988436
0.06975374157131932
0.006751938017323572
-0.02114288996404124
-0.02091564837777922
-0.0426001124250827
-0.03620639923926165
0.007268020087669363
-0.024726648695026637
0.07231295173528993
0.06398885842106826
0.04400730641184616
0.00763440768273561
-0.013556666898157259
-0.00382261322370281
-0.004525327215094757
0.013614938843672438
0.011866980162087626
-0.016182805927947692
0.04729959344248017
-0.008502417472449862
-0.025296309336794713
0.015810128508798895
0.03694028328062793
-0.0015463294454320477
-0.029802304396578695
0.0016109945873835371
0.047750723196590565
0.029932516570231094
0.04832505191484809
0.019215131453592754
0.022960778468520265
0.004183203294696997
-0.013106594018380806
-0.006436878849171602
0.0032010063600036672
-0.009959977250051493
0.06326249341306639
0.00958029691444924
-0.06167152695068924
0.00937133394704373
-0.02529987846167884
-0.15185627790013315
-0.004425917688228348
0.020531482922443705
0.007467058138033381
-0.009590171104836096
-0.04201647448204763
-0.03537343785311466
0.007438221413813577
0.003302090688190134
-0.012263143946084553
-0.026566044111772477
0.025425155463297263
0.029494337386868488
0.05589544947043864
-0.04158989399567124
-0.13779999836666454
-0.04737354919470808
-0.03987528507699396
0.029872169006871344
0.018793931145115815
0.019397660906345256
0.03616223943558305
-0.016511004762943548
-0.02016354028241775
-0.007329995217598753
0.018579246338720268
-0.005100174919769198
0.14167092927897237
0.11793060543273788
-0.04781907083675392
-0.0743584967599424
-0.023201127790263863
0.016117235012003538
0.04538308004776873
0.07172670891154206
-0.049496567680947075
0.01577842288355455
-0.012984117669356112
-0.025805204578429417
0.009861227709398254
0.025627326012867296
-0.0131611040282547
-0.008750562943832259
0.00423337977770722
0.048095998864120006
0.014803823094993576
-0.02281068167568063
-0.06972777277460895
-0.02326815520925089
-0.005448039007292094
-0.036665162606830067
-0.05897229087666412
0.030551552575897385
0.007260224161209646
-0.026030833177901676
-0.017481513838174194
-0.012213105763045611
-0.027502949861634447
0.013526337205783952
0.18237267678844474
0.03459756216991803
-0.06083144979720669
0.14490006270442707
0.08251327456267692
0.02585579834053486
-0.0019551834107240395
-0.07414488409744087
-0.03274517607902993
-0.01615006285068432
0.006444900464214519
-0.03378841032913323
0.01961200513981247
-0.03061867914352052
-0.0005287308970855898
-0.031202783611411693
-0.0484414281108936
0.015031612922485548
-0.01637942405808885
-0.022398416610840754
-0.0022169896062643733
-0.005545587774706144
0.013402144879485538
0.007390917201011083
-0.0011772315782660446
-0.004975826240823378
-0.018846755764309137
0.02538601530671376
0.03341820455184375
-0.013782487760451483
-0.02311392698528385
0.03565305381759967
-0.0047141356684784076
0.02265920072751397
0.024657153281802745
-0.005929114897473031
-0.06891947987957407
-0.026240268311261968
-0.0037127286355634827
0.033782154814296195
0.0023341433404704725
-0.03678679534863285
0.0025479149963524646
-0.0006391612016083099
0.02746360944892865
-0.006777924676603549
-0.01165152645937711
-0.01808113481161737
-0.000684180736687554
-0.012002781549721885
-0.028418815091928774
-0.007573213208959961
-0.010879558300846028
0.031016539165423615
0.08717687599221857
0.05482392461269992
-0.006310704199135697
-0.016043094896304688
-0.01100729950054509
-0.006183773848035437
-0.017531543216312985
-0.013940291319520124
0.056382508628889376
0.025485738264242296
-0.03497927239816916
-0.05484030929256626
-0.06251171365561226
0.0253165926897853
0.0034143764913407673
-0.012746779714108543
0.0015239296186083144
-0.005767381797570851
-0.0012109822977006094
0.020487646361837676
-0.02025949493565419
-0.009783427721041252
-0.00326820496150904
0.027837689756281193
0.01255515379857405
0.03376092216674566
0.07238106687975487
0.03359491511458832
-0.008891549239771084
0.0026055952040785727
-0.015336909563832277
0.02485643010673467
-0.015257395468607738
-0.008486678129064363
0.0171988337088983
0.00908402358539955
-0.01894382045735291
-0.03452989780653187
-0.0038032666415521734
-0.007271641386924536
-0.08151437316657854
0.005385462918154241
-0.014287971744977843
0.006507111937920364
0.002650919510135708
0.023902342825129607
0.017213274300950685
0.01580322145813407
0.020652212820019424
-0.024721272027488663
0.01864607884479721
-0.020293494641824512
-0.03509641626219315
0.01023352679187205
0.05653580123369597
0.041287873273799174
-0.008881999001807271
0.010239230484888007
-0.000249305537810811
0.03269348736547413
-0.012953615709184216
-0.0461979290773146
-0.006831163361830179
0.018562551434479067
-0.06587911461444085
-0.12458886502970701
0.028323489912161173
0.02766552941178478
0.030279277162413357
-0.0766059902636114
0.0033499575168066146
0.009412315079723812
-0.01964277156597948
0.006130368260287823
0.002701034739663169
-0.02359948423693876
0.021227309330606133
0.015031308923690763
0.0005796711999817935
-0.00032746003606831767
0.03525924486849135
-0.010870068258775852
0.018982896565538553
0.0483389411112206
0.05771610480029019
-0.028898470027041396
-0.0033796979754023054
0.042325822394448716
-0.0005871716065125707
-0.025579380517901196
-0.01174075998721988
-0.01338817415702291
-0.01665538179351675
0.03169069178868614
0.01260140414907158
-0.011026022710604632
-0.01710481161031269
0.0066662043088916295
0.008171540297526463
0.00024297918516961615
-0.01904179002809408
-0.019330295778509456
-0.001731561264948552
0.004602878448000968
-0.006767356027772053
0.015517283035707001
-0.026284380589644246
-0.039232044038888164
0.1401485902149165
-0.03305642365193284
-0.043161223080099204
0.011954702173516431
-0.005272983523970266
-0.007978349537321487
0.005210956452769183
-0.02916737199623201
-0.0011287453857723308
0.00276657718783431
-0.04051850364550508
-0.02599498630830835
0.002044451767008047
0.01974211090826375
0.01912473481533479
0.022812359113163726
-0.007145098809530707
0.0477207357226673
-0.022866396904748853
-0.007732922272011318
-0.02161659436831909
0.004653726111939461
-0.05379241849624733
-0.0136941101096348
0.030189152192436588
0.036848065011911964
-0.008673617688357768
0.03665521788522525
-0.12820388405360994
-0.12156273204618809
0.050691862911405615
-0.0057735539200271776
0.040581529868470086
0.1984943569559265
-0.10919757019124585
-0.02725452263706391
0.0508064105815316
-0.019321546969342265
-0.001754392336873042
0.037147872819935764
0.0823678207265972
0.03952614932550613
-0.023485200000692326
0.01883891477399177
-0.03245151100519712
0.0040270223926791
0.028044897311803842
0.03487049798549643
-0.0070097524531413154
-0.0156375497514907
-0.01626350417872541
-0.025751677718438327
-0.07034361134351559
-0.005472147481550098
-0.0019117809623678567
-0.011703450214874678
0.004278683161429132
-0.029727783440786727
-0.019593579495602916
0.027241825834261952
0.16886235844540282
0.07899894869108837
-0.021913685375979534
-0.028442392864328994
0.0017830035089098544
0.011397409343871227
-0.02771694245883829
0.0007622889992054088
-0.05972871849818094
-0.01667658957855228
-0.005410783192048659
0.015342095068226824
-0.021567059803371896
0.09759091797400277
0.059141945814486556
-0.05368877484273445
-0.023649202196532805
-0.021638333387953
-0.041010883568918924
-0.0446671145265608
-0.004659883389982262
0.004151139991903704
0.009649973916230613
0.006990223173342759
-0.004809305699870964
-0.0002647429325302945
0.0024401673028573907
0.025750525321937872
0.014985065169246312
0.018421763663561783
-0.06972649686417953
-0.08185243028775646
0.014994870830358937
-0.02176325552354096
0.008600411069190862
0.004460710719177055
0.0064139951287096085
-0.0073565953928892355
-0.01237032853770126
0.040222299790211066
0.14189367481416484
-0.0063650386462177485
-0.08108377869810127
-0.11192396392163366
-0.04134014273243934
-0.0240773488550514
-0.01002874451477386
-0.0035425197850155383
0.0013368458155665643
0.017002947064245117
-0.05046924809559731
-0.04348883415915921
0.041009668632151136
0.012466868431709943
-0.001189460722600091
0.0010977547761561687
0.05820082152509893
-0.039240529242435034
-0.010998579661635876
0.005906466817423104
0.13708003620874068
0.11661562651679017
-0.071314523764072
0.06340033382210292
0.04119255760647003
-0.012391039332958305
0.04584592689234854
-0.003315205911253992
0.0025802024752752156
0.02762871478127851
0.0001955068827683762
-0.009920431873282636
-0.005357138809863289
-0.0695907178774298
-0.017285446401979536
0.014106489728181511
0.006568155803081533
0.03305367529568966
0.020684702379876765
-0.00670104466870643
-0.000595547135740356
0.029671590849204742
-0.023179814806927098
-0.04087081995001984
-0.020548746849365262
-0.024511794610264172
0.0002697969697452327
-0.014457412524619545
0.018993759991280657
-0.013633633716700165
-0.0014599479272511928
0.014935522060954031
0.011548201316171501
-0.027457082903439435
-0.01673922971660225
-0.015591683167507656
-0.011305553009178869
0.05363489784300016
0.02152718941891793
-0.02306020870568582
-0.006532198616616307
-0.01130792165522936
0.021550967210193426
-0.04658976240206457
-0.04081892670890865
-0.0067041772066710635
-0.012217066661118369
0.011741076964506283
-0.03134664468125719
-0.026790331916132986
-0.01686998724761874
-0.007261389914977622
0.006288683952646876
0.04362004184747393
