0
0.0007620475207872077
0.0044702679767865735
-0.004147527373417203
0.021335676879918282
-0.009409948867408037
-0.017297797273814874
-0.0199680019278919
-0.05369533768609802
-0.007054731705926968
-0.04417051013953768
-0.0026674825120010332
-0.020179561897034886
-0.0035593045333993717
0.07081393306320075
0.014481889463004775
0.014632588294635361
-0.03227774531963563
0.03743632262984972
0.038824649721802725
-0.009074952968370702
0.015589472263283288
0.027240968247508192
0.03459870717794959
-0.023978560002904752
-0.012227430368995904
-0.033171647687103796
-0.017634520996674823
-0.0035057235139205048
-0.010562178752779382
-0.014378334846096037
-0.01487726866980509
0.01385892496170551
0.0019236241094115602
0.018995509426006855
0.04274776831053141
-0.02371380618383888
0.006689255703104759
-0.020084180305976963
-0.028622434917362567
-0.02694964576728188
0.0008178067648591525
0.015191724919849013
0.012548339579514753
-0.025077545706455002
0.012498594702217909
0.01506354853087698
0.021018728966430103
-0.015276756324257457
-0.029812101991259148
0.01273207698806918
0.067507407620199
-0.01708475111367637
-0.024852839423802262
0.007326497829168205
-0.014857503989031457
-0.010179678142809824
-0.02072242713438516
7.92216162708391e-05
-0.0011323316791587278
0.004383228951056773
0.013203228516620341
-0.0012217632775310106
0.000880796391713318
0.009052096859242579
-0.02991341151421846
0.04432009107211631
0.0369809142287913
0.0030130798226947714
-0.010677674214280532
-0.012793621365567076
-0.010825434060112491
-0.016150219107198865
-0.03683716822817926
0.006740678943943748
0.045300488675119925
0.020275964380827384
-0.0031198672617326964
0.0014891098686327085
0.011315216111118093
-0.011867405659884147
-0.01008781447316522
-0.01821084688126741
-0.012220038261790269
0.04652621775396261
-0.06294312411762332
-0.11082798604972101
-0.009715088539685357
-0.030283409747344323
-0.015703008471155296
0.035111048279786665
0.09925063287670226
0.02125367357747836
0.025334633853873873
0.0243522002448055
-0.02092245084051114
-0.025203922148550918
0.004393182240597961
-0.05192595445776401
0.016234610843601182
0.06575721363298767
0.025849309753883335
-0.014839184769532086
-0.03286259996283709
0.02674926185754645
0.18174809461635455
0.042744211864844575
-0.014613716633710066
-0.004712468080498244
0.015829213171565538
-0.03632267552024345
-0.01933404721589734
-0.024479377584268804
-0.01899020273304934
0.0014059718494794612
0.033074495230196045
0.015521428619459526
-0.018490811635630933
-0.019619227706438796
-0.015495695343484389
0.0037740347186804336
-0.002302145997417613
0.0023916555099729227
-0.1453493156041733
-0.04576583927071077
0.0997917011839339
0.07626955798352272
0.023457198232726677
-0.09004685014414894
-0.032716316581122194
-0.027409388913802964
-0.0806907466404414
0.0006795767920511792
0.028984710726464975
-0.002072497325723271
-0.024476960575710867
0.017536857743905964
0.01788972175051072
-0.004745123957135841
-0.022987188023339485
0.010193173807891849
-0.04037974342880688
-0.04472853336044101
0.016364933635120846
-0.014326485218469513
0.06136002850114734
0.025770817546444728
0.06832720342292771
0.04423393717378882
0.04051598667481306
-0.0030489241929830563
-0.010399511455493208
-0.0033289850433017533
-0.0151896392546174
0.001392347939849057
0.03343009029724458
-0.02692785191181008
0.005934386420087493
-0.020490677553532337
-0.025558280490625626
0.020214586118513164
-0.020432843431384313
0.01151147087252613
0.005945590352606976
0.004962980636324849
0.022447076161364935
0.0396429244090861
-0.004523781510251173
-0.03829447448658279
-0.0004196332915091208
0.05201850924751323
0.0942625465868762
-0.10297312918403145
-0.020084671982673018
-0.0260843816970855
0.02460012522095628
-0.09342021774373557
-0.09123970297152571
0.014205387428158066
-0.008543893908084091
-0.015134979602542271
-0.030638814192103982
0.027892472627410306
0.00011733510600619282
0.008860283266830464
0.058355357010980366
0.008802979265418403
-0.019014131271556933
0.039480091186747564
-0.004537047156461938
-0.05342351811733943
-0.0018526603195352935
0.03661768397933998
0.03008802894496489
0.05385906555102527
-0.02195211974907901
-0.002095769483047377
-0.026581683587612686
-0.02474791134215161
0.015990437371793745
0.015755570936157204
-0.014636270271691893
0.009443352131486216
-0.019655715423355525
0.006537911102218156
0.0424566719339684
-1.901145746310772e-05
-0.08035498740591869
-0.0020983499702396805
0.10532999129159487
0.010290941488942018
-0.010570638636096879
-0.003555130397639466
-0.00967889083767099
0.026347944522854532
0.0025996688178144467
-0.013169343673275732
0.009706720003632555
0.03739851192762995
0.14168730095650006
0.00408989008032029
-0.026173662071600445
-0.01710340131280348
-0.014184413376649862
0.0005224378662209413
0.038662913224781194
-0.042336216524794405
0.03482712538447601
-0.0258744195136763
-0.0953838786197345
-0.012878796841232602
0.015017790968427364
-0.0012280392972215263
0.025169200387250942
-0.02632059677187106
-0.03092989524195985
0.022867996773517026
-0.04254875901307064
-0.024675736528024555
0.030074621269000453
0.042635093839773056
-0.009730151272202017
-0.061423522031953344
-0.07123793686723529
-0.19151427652915154
-0.0512890940297053
-0.029945026108697488
0.034953461847928344
0.12996628372270153
-0.07584498108685533
0.024219785882567398
0.005756380476184173
0.006459852408441626
-0.015994861419469375
0.026149242531033262
-0.024194208208724404
0.0329787135067522
-0.0076410285103066964
0.03609731286035853
0.06808065642781416
0.05550567019927903
-0.02009667225222221
0.006683770512244951
0.03746950596653425
-0.0214569464617855
-0.015570926894432466
0.03232031589636081
0.024636037128527383
-0.0318487030495067
-0.054189920288174015
-0.021591817790752896
-0.00942788326854469
0.0283867455991427
0.10053621178766593
-0.004753155518833769
-0.04115945284677911
0.10913393412174464
0.07188583831588441
-0.07393355395359442
0.01856563159036313
-0.14316809915147544
-0.039234462872237225
0.0014513884290394531
-0.02813471204429314
-0.018620023964689352
-0.006240000584891113
-0.013343887076628603
0.02534296411602789
0.06001354637940753
0.038121050099600796
0.21460493637258093
0.0055862263866354
-0.006046322940367217
0.041977859128890745
-0.05451622462955457
-0.058582110565608074
0.012514623455958012
0.031367470797361276
-0.026393031968390174
0.010653632262756636
-0.037902955100765155
-0.02057092698915301
-0.004054495026801014
-0.012580714478887589
0.01654037660176341
-0.03761858171936461
-0.021538841977869566
0.06188768356396673
0.1761147428687201
0.04846582540713372
-0.006882650192770519
-0.013538250166190589
-0.0700285597218178
-0.09626401517968067
-0.002521375649012526
0.019759871085189715
-0.013914059302168892
0.008257664292215146
0.02185105538155245
-0.018789052074650255
-0.0087318783488618
-0.021248876765526312
-0.1256392018269681
-0.0436996919080478
-0.07613490048815809
0.018278523927589684
0.044752945334400045
-0.06971805004257749
-0.011755854704411713
-0.010179740041558534
-0.00539773929873236
0.014914938710122486
-0.0035599112174169566
0.041226537641714585
0.004830423722620199
0.006208058703121144
0.013783475833012582
0.028132056107841974
0.025395807632229837
0.01883107478795894
-0.04681192432289742
-0.06069883031436879
0.01784844619692615
-0.007561195663488312
0.04183882551687591
0.04283878358631096
-0.004359680965435487
-0.014956030698800107
0.013386124648535348
0.025216689092956917
0.023955969796330957
-0.0012251264760277552
0.0003985240218684522
0.014483269886633147
0.020722419158187993
0.019428737425650933
0.004254664264112635
0.05921023533838761
0.06769508633860719
0.015160259487608362
-0.09995277888118136
-0.06343656743215055
0.011194866369419116
0.020826438128484597
-0.06108305422611648
-0.0424541076146015
0.03388861115972673
-0.0173350778505228
-6.905352055830292e-05
-0.010563456859466304
-0.01674570757866053
0.01767977341475967
0.021189378717242788
0.020407503923470082
0.021144772253385315
-0.0016920452788005387
0.06733121998047854
-0.0004159167635398073
-0.02538858432550638
-0.025640012076511978
-0.029873118380838802
-0.03978569975156617
-0.017632253759493337
0.031249478513695268
0.03682934421842568
-0.021507760150689306
-0.015801509921519786
-0.0015116336412137523
0.024101541899636324
0.0069153783777010985
-0.022337028300453008
0.012129648310012855
-0.039482811755060285
-0.11899853621411816
0.002194726624536346
-0.020259405080819203
0.032081594760509057
0.0199396813037697
-0.018435384062469338
-0.019821651521748893
-0.01531147942229275
0.008271911105322929
-0.009383326520779835
-0.007938153697253793
0.010932004702671316
-0.011779102915023315
0.012032601031447132
-0.01181058704583187
0.025710803307230128
0.028312690304302984
-0.032817369668177554
-0.02158110792629089
0.07953157597976873
-0.02703996354018896
0.012171986812373012
0.024726325677743438
-0.012161750456387753
-0.02184126486369276
-0.015144396456183979
-0.03552066209586985
0.05263605070364027
0.09860138670278963
-0.06086240864957371
0.029644039560325693
0.00426798729745781
-0.03081783785968035
-0.005691837636070719
0.10335485369123328
0.044833410613097556
0.006589069142520356
0.018245491967486437
0.08042042887985569
0.05008288374392846
1.2621456848882743e-05
-0.013823564645642456
0.015892454191515647
0.06311929186873894
-0.021458103776835623
-0.02374979621040941
0.04145460380033755
-0.033055829921184506
-0.0033997373059413303
-0.06516265591483963
-0.05918861613811827
-0.009762949457221797
0.019285677149919387
-0.09191970943431348
-0.0995127534525801
0.03749186612978835
0.008971200569121639
0.003009647405276747
0.0020917232741328048
-0.0015883440013324775
0.013165831323534563
-0.03388143471451917
0.000524428210650102
0.10237854782090267
0.0007663751859951061
0.009512660899977661
0.012470062417163535
0.03604933151356555
-0.07929666162741131
-0.04490763908763393
0.021496394887763018
-0.010075385746980333
0.043348973278413944
0.04083688912362137
0.02144928556168423
-0.05491150589626584
-0.11341187723418746
0.013848794589865035
-0.006009454821868499
-0.018887836884710636
-0.006964469514509259
0.03225277400810131
-0.016355265244303367
0.07605926055948622
0.02470604151532161
-0.08754534958291804
-0.052159133265465805
0.019020240547992673
-0.02121358081746358
-0.010010835249315363
-0.03945791737252688
0.031059453774667192
0.0029537803023662003
-0.007292103778483563
0.025724708860314936
-0.0021452119109024773
-0.024898642845424836
0.004317459476172324
-4.8609941411572315e-05
0.008611676973990392
-0.002811324141109157
-0.013725857866834562
-0.012736736177420082
0.023268629973439175
-0.04020475322706666
0.014481679003581096
0.019396501856651618
-0.013915034425643928
0.007596030759906278
0.022141495264194403
-0.0011896109154571994
0.038753577670576474
0.030646424646399013
0.00016023907118242005
-0.029232813641672076
0.0017539876607984145
-0.04505919877817177
0.021274240904702986
0.003338022542972421
0.08640902622353927
0.03775850780577477
-0.003444856421180512
0.02720946485256482
-0.0165418114638891
0.030076486212303546
-0.01577535927614638
-0.0015167628823823482
-0.007158391906569295
-0.04867876377787975
0.029117503694244068
0.024001678489633277
0.024790730803276463
0.006780844842366214
-0.011248815031990347
-0.025381448784092004
-0.026884157352883863
-0.014212011643715954
0.06904465794453236
0.00929550021614841
-0.016999226626460157
-0.028795012818860315
-0.03074296156931126
0.1774061896946301
0.018160375618612338
-0.03872900836482542
0.01488873877676078
-0.02945833837834689
-0.003010236936318353
-0.07671931934786673
-0.040638041030176764
-0.04499185977139237
-0.11329779487552409
0.005889379753642953
0.015586185742505703
-0.018930087264525896
-0.0024239848041671345
0.028307074752342346
-0.009586400094837258
-0.013330654833486793
-0.03469726054446894
0.05660677006131596
0.037049854744871456
0.003113948160532949
-0.02414922683654056
0.0035943654463092257
-0.0047860733443542925
-0.017672139169114223
-0.02907855241645247
0.017773158072781202
0.015263899249568705
0.01456855635599491
0.015114748428623658
0.07895918950106333
-0.030083054538204042
-0.059806077661729344
-0.03529081678482309
-0.031243138374206787
0.03355176526760556
0.013132588067777168
-0.025184105109010514
0.039700526489036485
0.12013722082211102
-0.02151559715987394
-0.04359078096099303
-0.030309074511678726
0.01148995459897916
-0.018410455684011853
0.0033671094645942447
-0.035914812420267485
-0.009860995400084843
-0.005869298743861496
-0.03075884475151297
-0.01123323210681407
-0.04696094123973438
-0.03324736382781054
0.060468083175914275
0.12356725379846936
0.10010174653085352
-0.014058519028870939
-0.050275739931868436
0.015569527829200605
0.08382181601384023
0.022475875306700088
-0.06296881373393312
-0.003958946403857814
0.0007837533160478309
-0.01391514655988376
0.07721537353844506
-0.0004664285107865144
-0.0372957021425024
-0.03241392210080547
0.04610610311368014
0.015585580269802701
-0.0014764438235457308
-0.008853377884201555
-0.020597984359667205
-0.011376627861408651
-0.008880151327664608
0.02687615217645426
0.0026080870341542942
-0.04535495919537071
-0.012456802667389516
0.02774082189027882
-0.02612156097435069
-0.01034002313941403
0.02891304004787821
0.041915460737038286
0.0074555153202573035
0.003234151162235707
0.03434683264729691
0.00845460521388661
-0.05078821089738657
-0.029730810896972205
-0.007731921041984951
0.009137844027755937
-0.024122543464057206
0.023090474507589012
0.030097802948262548
-0.009037620992674737
-0.0382035216185494
0.025057293605204648
-0.03885198411564293
-0.030522598288870714
-0.014142048558548021
-0.031832046798135616
-0.027139719788793048
-0.049454237966753016
-0.040095430733629304
0.0042550768550325396
0.056753999324578655
0.003041453243746399
-0.010575948380490122
0.027610588791205096
0.027477597148513788
-0.02739657899649582
-0.0037295553744734595
-0.030572019686919975
-0.019721388768372775
0.026847307824483753
-0.01456031273957087
0.02340528214406043
0.015704041691210414
0.04445247203192842
0.04892471000655112
-7.489463392364716e-05
-0.0013184720943976989
-0.0003411936640169009
-0.010849783040717433
0.028993675186724112
-0.00047689587840522054
-0.032875617348593796
-0.0210152474548935
0.01639019994807807
0.01921530194187965
0.002638830969553903
-0.006137654709832415
-0.017889521164814237
0.058072331294977686
-0.0031999546513742957
-0.006354090001363951
-0.004548844446276568
-0.014447802153442551
-0.025573619774900674
0.01774137894799075
-0.011781337315304822
0.013270249150601043
-0.010223824866199807
0.040957289227197935
0.007952214523692698
-0.0036789441506492253
0.0525606360012007
0.01421760937453631
-0.012983975633565225
-0.02106650980763974
-0.022415162223275904
-0.018025000257268924
-0.02751161539127972
-0.0013583996540362164
-0.015120242348498979
0.023395552164170733
0.018710540838634847
-0.012662411003585465
-0.0035249253808778075
0.043188799702320646
-0.05580150764109546
-0.03300973350628582
-0.04121714692800211
-0.01407724222433538
0.005076237756584389
-0.024287931899265695
-0.0009126953198409374
-0.020150143122977165
-0.00803557236466512
0.005089030985252458
-0.008452170126360934
-0.014329380252605753
-0.0059773274714062935
0.0275128702059754
-0.012077784942959994
-0.034556686919223846
0.01766842074210889
-0.0015797523805223992
0.007347958509680532
0.028625169079297828
0.01286981473138997
0.017374069174112376
0.021515889735606256
0.03164038062226037
0.026958875946839028
0.02650399766944148
0.03505166019400584
-0.020494530176118235
-0.046116437188354294
0.004966955650922696
0.023785517654758594
-0.014297938116202735
0.003767339920697976
-0.030231677969557745
-0.020010912788747292
0.0028275244457189436
0.019013189827395874
0.005064653996524851
0.013317114264693676
0.007188946691571833
-0.027148713904864303
-0.011690031549422915
0.03474799401240549
0.08792724885196529
0.05417221331995284
0.008232614279832587
-0.01044593073066531
-0.017179442996208237
0.014976753101250873
0.030245029887282938
0.035379645426130035
0.032619318881999
-0.037581674105757405
0.016500424350633057
-0.01013577881787108
-0.03842945533629133
-0.02285413069380032
0.031854852376523905
0.0213839604103574
0.0008082540989118556
-0.009029238052752835
-0.022091936223900228
0.06715777902822383
-0.022420327640695764
-0.16123987868958506
-0.042669809634317164
-0.01884660405399354
-0.029393510528653757
-0.030135912390726206
0.04186821993822829
-0.11726354302616392
-0.1041679191585781
0.0328540479628012
0.006223589468378339
0.015811703544599688
-0.033991148954753185
-0.052047473391692994
0.15492026623705402
0.07772288493991586
-0.03813943075834069
0.006795721967150474
0.04246834690758188
0.029807218921867204
-0.0029908412931938604
-0.018555462596186616
0.014314168498903317
0.0007828841800102207
-0.005935555576088809
0.02899965708272964
-0.008789690149484716
-0.01803249304744413
-0.018631828003667663
0.011160766235148204
0.0037764199808258056
0.011411821491075651
-0.04185331008302636
0.006512642246764639
0.01217426422095194
0.03531355230564808
0.02772103016199229
-0.04495292203579704
-0.006936147941198287
-0.008764297327153406
-0.018949396666287446
0.014261669339186663
0.005674658479353049
0.006277248904842826
0.0040978282795894405
0.018286051115763917
-0.01046569829793762
-0.017768606310021643
-0.005159542444745485
-0.015986887082429263
-0.023542468735667715
0.014814198786865108
-0.019757979364891095
-0.00919143530057573
0.015048186778314205
0.05522410293147326
-0.004203435720808525
-0.020402511375216096
0.00728242782394894
0.028214862453973345
-0.0268743511619329
0.033686689264288715
0.01579666412138885
-0.017846352221086312
-0.028587719093122327
-0.019753989810415214
-0.014195716707909943
0.01644834014901813
0.02355902371136711
-0.036247968705711515
-0.011552832003988897
-0.03350897646333264
0.006070801895097664
0.008162828330559736
-0.0240295179642678
0.0707888947551408
0.03522333303450776
-0.010889767391441672
0.1808679433009295
0.031238534307312237
-0.07421585866104359
0.05014794000475085
-0.026753415582593466
-0.028162947167125085
-0.07774523066739941
0.05278834787464945
0.11019416053455403
-0.051042005057439666
-0.1018427726277192
-0.014146821484616674
-0.00818426763173991
0.09885347385014302
0.04165749092018371
-0.03060483186589259
-0.018939142840092897
-0.02386061636973405
-0.02191313576721956
-0.02676810081922312
0.010003475684419956
-0.005607528059869171
-0.0036406104625700737
-0.0006344814138495646
-0.026278664799556678
0.0061487182355584235
-0.0027460494404231393
-0.016999327052207035
-0.0004421294822478221
-0.014095171743248862
0.0015270458375914128
-0.05240971505596023
-0.018066840055083605
0.050508902124894395
-0.021721293456915865
0.0148109591124959
-0.02223647978523311
0.07666744363079232
0.07034572905065183
-0.0088120466826188
-0.015442221307409989
-0.01600253526201447
-0.03842401919796348
-0.028412111372125994
0.029208582904277157
-0.03824229745650738
-0.10480306185938036
-0.018580338145916777
-0.017109127822782098
0.015081691563792483
0.08350385781590562
0.06793552170261344
0.016256552810115708
-0.007559991288555909
-0.0034450268306933504
-0.05643877940848337
-0.04059353132445966
-0.00788239686737884
0.03630457288713093
-0.030659354482598357
-0.016960982905081273
0.01714946772803866
-0.012793874808670955
-0.0008350873017430194
0.06819544263296289
0.041567788306443476
-0.02594841351363137
0.0009661075917484447
-0.004260629548433932
-0.0021077039251945094
0.00702031390659789
0.057447390060803474
0.02741912482088873
0.014439034510030242
0.058465650560229954
0.0011988624496757601
-0.012757872353049263
0.001815745146207672
0.0033989232533914774
-0.01448600234853092
-0.03823010720987735
-0.005531200237136845
-0.04868216131952498
-0.0332041378133949
-0.011316908038497716
-0.011289979400460537
-0.006210889638565157
-0.031621207327499005
-0.000582828069513797
-0.004664456684373948
-0.004877037881280076
-0.013979325465461935
-0.0192562736383011
0.029705823369687214
0.08148987144788977
0.02333347018490902
-0.01593613642211688
-0.026627644054336666
-0.0024364491583785293
0.022737664229522326
-0.03396679104457012
0.009306696827657498
0.1357234230959739
-0.019266890475086514
0.01566410508446342
-0.02919640358702428
-0.0144322788149985
-0.022497187893497472
-0.028513565825327852
-0.014153059947785304
0.015236506123430707
0.01649324732016368
0.010358953202736464
-0.021442780981434626
0.047469291802064564
-0.0537631611296667
-0.0598723451249808
-0.0290243650065601
0.03711691560077843
0.08230858113832543
-0.007874357462727816
0.0007450101890971912
-0.009474766730153256
-0.016006717287687225
-0.012080612465254822
-0.01769986647403508
0.042557567136824764
0.07758530568145856
-0.03457305892777102
-0.004909511546774984
0.016176650966869655
0.01461242070608324
-0.020939723146993883
-0.007636949021317296
-0.02417174359532776
0.03428811069496238
-0.0040491810577550896
-0.013602296266016091
-0.01912265548266374
0.023013582630510503
-0.006690425538631126
0.002568830474976719
0.011146440764087122
-0.017958658548689367
-0.02162797836316112
0.0070831648349883375
0.009574130302489542
0.02035112129562959
-0.00488876323747843
0.004262583098450842
-0.05909324164990257
-0.04129683744157235
0.006176950208960146
0.016775504800625427
-0.017044617844729753
-0.036034314246545844
-0.02456817361023751
0.021531632562034466
-0.004423312803488135
-0.0039016257060240133
0.014651021110665702
0.041297183873846975
0.019333341777852495
-0.04429544725286979
-0.03859692512228334
-0.0024467965597701085
-0.00833980853951513
-0.05049681544661261
-0.03302020695212413
-0.0027957757606871998
0.0008429244306558724
0.09387887213683731
0.0514737572696981
0.0027566643769029414
0.010439291583331164
-0.01833069019763592
0.0036831690840061467
-0.004532454403403338
0.007783275138815496
0.037089066221968066
-0.03321589194925942
0.05803591439164609
0.056932630736518455
-0.013348103009772896
0.030026841358103188
0.049257599040109894
-0.010923508723863218
-0.03023265596475095
0.05083004487971362
-0.018772984222503637
-0.08107771358547908
0.05937317315899927
-0.10094335936990545
-0.02232420590846723
0.027225338720276656
-0.06449354488159131
-0.036575849392645084
-0.01390675178764352
-0.02654761676167589
0.00774339477561118
-0.018066195158025652
-0.019715458813615777
0.00868868564395041
0.018292531262125294
-0.039871427697404205
0.010239791655509513
-0.03775351915203889
0.02396964579792026
0.11641594073935332
0.19304178960811152
0.05038808776990651
-0.06486928107958269
0.0003201624943434725
-0.032924753424842246
0.014236586254196762
-0.019861902292122428
0.0010925908990964525
-0.04014490062690988
-0.02963222418252893
0.01933928706966752
-0.003290518902305328
-0.04310818431445956
-0.0653894992316625
-0.019319229192976656
0.008271841896148335
0.0098482515462187
0.0471390753119262
0.0156709216035219
0.045052680187804145
0.15267159722011955
-0.05923956866290094
-0.0653932721676564
-0.009874825968002722
-0.02913607040484944
-0.004755534906104841
-0.01683152074962999
-0.005368381624481728
-0.000832164437514212
0.07359242214970158
0.005256065566535329
-0.005572001199412731
0.02310933166661963
0.03363750072287842
-0.014743106654940302
-0.01076053602245207
-0.029915030678975583
0.00807271860340598
0.025694874440445888
-0.0020281837793628757
-0.021925948157753974
0.017300441612320593
-0.01210019489945626
-0.019035422715902993
-0.03783491623437815
0.0231464562704501
0.0004696833236407844
-0.0027649874000327036
-0.021348515968788062
-0.004198213658088753
-0.015535380759045187
-0.028697769225025455
0.01819037843251475
0.07883631670180559
-0.011812100831084565
0.004211904796703787
-0.021767375343993204
0.044089062668454526
0.054490852866116664
0.010486127882898143
-0.097151269143198
-0.004710332786048566
-0.01728812201719955
0.02376792522394097
-0.03944567261569326
-0.07034338232085924
-0.027942306221029105
0.0047670422950578635
-0.07652964700000928
-0.006808228458321023
0.051381807811578584
0.030118060575282622
-0.011718204140329121
0.016282964433652743
0.010867256539260746
0.01813992875135812
0.024874774646614823
-0.11483058962687999
-0.11679748050743033
0.006728036986886467
-0.009677508361814061
0.0456157088210443
0.02508656541981168
-0.007397745424859268
0.003591218917776973
-0.005130021794136585
-0.03236803337252804
0.033576656997919965
0.05675473499530567
-0.003692218464176916
0.013390221429604237
0.002253628963523512
-0.010323860876807374
-0.014201525592954458
-0.019362116881246755
0.1556001587955094
0.0027027612058987916
-0.015629631262805956
0.032122396851508556
0.01919647076632317
-0.016996869388711082
0.0006012515870685847
0.0029362813199063703
0.031565637999356994
0.020239178841750926
-0.05042667311413371
0.0788489337213813
0.09042368392573225
-0.023439072747439258
0.0037190627460076775
-0.05586617905400361
-0.05229100607957207
-0.007671948601548471
0.014398477067950154
-0.0035265303636148695
-0.01326014359760903
0.01042343657439372
0.04688973798925312
-0.0006870772076188145
-0.006269775905921162
-0.0102034926302873
0.006952903577377292
-0.011790014491202903
-0.04982547145254092
-0.010124862297347619
0.006311485356941204
-0.012384618461057468
-0.017326584055696984
0.03565736113270161
0.049190677992127035
-0.038445900061640385
0.019455481318390127
0.0012909996597711578
-0.00042538178147698497
-0.022861272144327607
-0.036845392324138776
0.03552886205549998
-0.03784585570949507
-0.012588268025786256
0.006752834681747173
-0.011902795870926006
-0.017479273139048488
-0.004800251407142296
0.00028287699620964125
0.029901074102358705
-0.017958066796922606
-0.013203656493356308
-0.0007027835913008971
0.002841519109327796
0.007935329914793683
0.01744019502134241
-0.0460628778296081
-0.045430178119104825
0.0141789117645325
0.034859188249835485
0.005715348607838405
-0.018342989681914786
-0.016133024555833445
-0.012507505139701187
0.00257741538123368
-0.014283990178082021
0.048158340112626076
0.03736691308499446
0.044813798583131524
0.025653182142852036
0.01602552642118433
0.028376125184856115
0.026525750290878055
-0.010697939406437472
-0.022518964166345724
0.01915199350184741
-0.009260219832774698
-0.04260001556372997
-0.01483121153387216
0.00021454555530002573
-0.021493504506825745
-0.026766495669860866
-0.02753709546597271
0.02430301142827072
0.008614112888203143
-0.020784423445634758
-0.015863436636364765
-0.011480111589981643
-0.005668427408986082
0.026492956367854134
-0.0023642447689605304
-0.005399248459249049
-0.07373761914816493
-0.024075115323729458
0.047109200276560834
0.046056195779569604
0.05719875032781521
0.014727389461228625
-0.002687762762967101
-0.004579382147646041
-0.00024406328116824343
0.002057814529341727
-0.01496635562834397
-0.010991936654600971
0.003688400281719975
-0.01753434744229269
0.007144849606143727
0.008319333417722358
0.0380777920739032
-0.023083015820456604
0.06751131150533791
0.011963135067493556
0.0037059074411791605
-0.02290294062908348
0.021267087809176844
-0.01923941102091956
0.020574146829623857
0.04703840969816044
0.019113953693502363
0.022057280014330532
0.01075156457743781
0.0005622871470234163
-0.015873937545401347
0.0014139201122495987
0.028741631108840697
-0.047561054975787304
-0.33160914767425137
0.010510541250772202
0.0036485845579504834
-0.020080918309718403
0.020313399482723125
-0.016465056667345258
0.02708846127739092
0.0635065880269395
0.03837579657444778
-0.0345078262186816
0.001679231641064058
-0.0025291604782037478
-0.011723627100187877
0.004195374754424499
0.04505193300879309
0.02059206834606573
-0.005429610237264774
0.005639156694588063
0.03953145865524206
0.07107101436258133
-0.0011193258201245982
0.012965060232482718
0.006606413465745623
-0.01152416249770255
0.029193566574573292
0.03893987253890034
0.026451500654711545
0.006958644191522304
-0.1030959897768783
-0.19848163055122314
-0.08113044734026163
0.00018912134661257463
-0.020313431340430888
-0.0017082823096066446
0.008813705227374711
0.019428996934691137
-0.010491587541658786
-0.0038661571396957873
-0.001268766220805278
-0.00218539346548008
-0.010630889158519702
0.008298197628881891
-0.004829253079895484
-0.033108464925158135
0.05923524755562488
0.07103810573624574
0.06431305012418465
0.023965655577323025
-0.05171498085264497
-0.022894468379040987
0.0227428086141369
0.007094633994201978
-0.03583799553753292
0.010038579239889645
0.02100505151481931
-0.050638500363878285
0.009090235849630268
0.2168912930880304
0.02271373992799742
0.018188775346494466
-0.021231116698430377
0.003069650819480179
0.03012380818507568
0.035325867674226394
-0.009703300221219497
-0.011418890213191563
-0.022094647182406488
-0.0025859627306088866
0.004498769713613023
-0.049239198476901835
-0.16062535425017185
-0.051949017070630474
0.03732679057215975
0.03252928375425875
0.04858253496852594
-0.001214439012696585
0.04872819165148877
0.04774252281409008
0.033261229127373663
-0.024830036499954904
-0.016674374811475143
-0.031897238496451825
-0.018995288100084277
0.004072174448233944
-0.0677985786603518
-0.05552846118124981
-0.04825255382054171
0.0538924187035935
0.06291444528030816
-0.012474810711521777
0.041057006863966225
0.02913436413406891
0.03988265046200315
-0.0199357273922029
-0.0060124107995863955
-0.022696740438908472
-0.0010839019189098698
-0.011370841539020361
-0.006239510529426488
-0.018010719678831864
0.0235576538269892
-0.04985076755259845
-0.01744642528102144
-0.0340244981079391
-0.0005604313978152188
0.00019153402494190722
-0.03527156743542745
-0.023027145883934824
0.03915815910612211
-0.05057602658427632
-0.02794122592952472
-0.01956745438766396
-0.0032264931922431263
-0.05209294188489316
0.12871276698088802
0.05780238974259042
0.016656373976713636
0.058260788333238056
-0.042072262707955194
-0.02428663337022509
0.03809765495072046
-0.033406122946800405
-0.06368743588041975
-0.008158994321445437
0.003983346873857497
0.04802008617910967
0.00708525198101558
-0.023071937018809236
-0.02224424181092537
-0.001742152653453871
-0.02102830347794836
0.01134265651176714
0.06912243673073548
-0.0031151786980695892
-0.06556325648438346
0.1926623550081114
0.026902953359208805
0.01912548764326664
0.03677974345371622
-0.010851397087252839
-0.0722585955697925
0.02401529645972926
0.030667829674100876
0.014625329189554597
-0.00845074335925556
-0.0011438163483090678
-0.022502153414622795
-0.12826589373815955
-0.03021379040280897
0.10000529280332467
0.13028054044013757
-0.051771166532995565
0.0015651331553932742
-0.12757979044177778
-0.06879768396415509
0.01128828805494867
-0.05527249472065698
0.1539936234599548
0.05772171812588275
-0.053422245962614204
-0.006785011641381258
-0.03234367422742669
0.04148673407098848
0.0025826803221583186
-0.03245316184662609
-0.009243452111994708
0.00699058509252524
0.008679450159280375
-0.026263492409198636
-0.016260838244409232
-0.005908059343241888
0.04503503824881423
-0.009175626934544419
-0.06747800575809901
-0.006916453025980573
0.003908575075192091
0.0065340141310791765
0.004288783502113834
0.01885695309056054
0.023799249258389873
0.018300570201111126
-0.038504209850232826
0.008748365083061023
0.008661156510068558
-0.03138124218472276
-0.007221271961066267
-0.0006575462169753101
0.016037415792917366
0.04464292632678253
0.012511790298148955
-0.007624465276075148
0.04368826644238222
0.06540736262936188
-0.01776868572658328
-0.13097492761867194
-0.05700175896773522
0.0304855977768213
-0.010361734442999652
0.014967431470838937
0.004246876479204988
-0.01951185109459129
-0.03987791695656149
-0.013610603433715885
0.027017451546676195
0.022700841034703358
-0.005754525608260193
0.010799671294793126
0.03837863158275208
0.05313872914921238
-0.011494393731735062
0.0066668472368313
0.005248778746226157
-0.003780492733483448
0.007535432953473942
0.026608318637908104
-0.05987647421025796
-0.09660779617158707
-0.008389953337915373
0.018823838476101962
0.02068746460165407
-0.03200679398080515
-0.01833882858437749
-0.035277615690559906
-0.008528366293664873
0.03999949782769062
0.03308405132252244
-0.006699483485222083
0.008933899880756449
0.07424020647286221
-0.0019517455237630628
-0.04596238790218185
-0.01871729312614622
-0.005211393036746996
