0
-0.004587907169328957
0.002030963999503952
-0.026096409961616898
0.04066518217777604
-0.017801141684719888
0.003901926466596116
0.0011406589559703
-0.001983902045027279
-0.024059877604336012
-0.0011697701470890917
-0.0015168423398222496
0.05561193026955526
-0.1650009843243549
-0.025988262254337677
0.04732450182549635
0.002472869900021215
-0.00857997280123835
-0.007395876696247963
0.06177280398411646
0.017655374473490044
0.02857198980275172
-0.005094020626028355
0.03487568833096699
0.004569786777627622
0.013219205490590726
-0.0018860018873896743
-0.01629013770250925
0.030653965502265172
-0.018727142015226298
-0.0007934164537243538
-0.01135326384292898
0.01741266605210354
-0.0653269541851323
-0.036324225321221856
0.021063599903591915
0.02760141515845445
0.028280063775484143
0.02944073903048755
0.05493826557027687
0.07537693673141126
-0.015401937201618301
0.007666720323952029
0.010158870767619545
0.0003251814539623319
-0.0015850652758364052
0.06197775052131131
0.003617495066933466
0.012291484324014083
-0.05011910897642406
-0.0760494846611603
-0.004869989052853842
-0.014968865149652509
-0.015115373210585774
-0.07241342266955311
-0.03538660666147438
0.02414394612791365
-0.09926242977268689
-0.039703016524977076
0.03450891520279015
0.009101618068014598
-0.0316268878269583
-0.05731283756937796
0.024325325086320845
0.010960755660524011
-0.009150338426630548
0.013335813951632709
0.08050414380335587
-0.026177423868150355
-0.03895980601603878
0.012416650514117574
-0.014578852177267034
-0.0646770824969297
-0.04049659134599922
-0.026598385550335227
0.09183897342055168
0.03167240538832295
0.1374131979296249
0.025299826160893147
-0.006116088312884752
-0.025172608982938535
-0.0035381858730394707
0.004428031222999205
0.0021077023039306635
0.006845519209729653
0.04272108234031141
0.012071226258194612
-0.017565773182552712
-0.12112427733629529
-0.10218496348676345
0.022297893429748986
0.052747426160382666
0.011805096411765668
0.08082654421530089
0.09142691992037938
-0.034333488037955856
-0.009531745994171857
-0.013999385142380449
0.015163203256395986
0.006436938959695471
1.3494719376352585e-05
-0.010741548504458596
0.060877442862877586
-0.04113116795448047
-0.05253345646030327
0.002840049322447439
0.000247887983037655
0.003830024539422431
-0.01495853197775373
0.0008389465815551809
0.025634717221317972
-0.04439297568885583
0.0077144029697264645
0.00825445456300629
0.008540936471907594
0.010761045528326341
-0.018964744675950995
-0.025269217520735052
0.009210100952584708
-0.023665437513238286
-0.032637323052226185
0.024825883011089515
0.011729529908776046
-0.006771872133662707
-0.008398580171388198
-0.010845880558633565
0.06973317357470217
0.14665250477531364
0.0025558176946151204
0.0073805183991510525
-0.002912072378228993
-0.046471376960281356
0.0013220611497607089
0.03873501967136205
-0.06347913617855992
-0.011796843098410175
-0.014049737795346722
-0.015370858474182307
0.015951635274803817
0.03606758256204423
-0.002777944694908014
0.013381526661775644
-0.004565872553002875
0.016556685757773016
-0.04140284168447248
-0.02634028583379085
-0.030381357118709984
0.0013573917877862283
-0.002958478679236638
-0.013217873056332317
-0.024528881538291438
-0.006937686435038241
-0.011622763801951893
-0.04866817928444238
0.013736450148308509
0.0008943031466744545
0.02725675177733744
0.0178773080126733
-0.0301163029276117
0.009777302677519696
0.034049135655899704
-0.006713492578200288
-0.0257240437296101
-0.005792946078288189
0.010165372761443383
0.04823239468541009
0.01791428241569969
-0.009009623268830263
0.0189289099710009
-0.0003057162680382353
-0.06237343877388865
-0.04781381042307625
-0.005513942150244822
-0.0311908706393945
0.04598079678280449
0.027789214707470433
0.006484112543184061
0.017400415794419144
0.0037653425582280745
0.027443839033156406
-0.022800595608519672
-0.005657960830451914
-0.0023280664656168673
0.002162058711176808
0.005947858133768884
0.019821303182016334
-0.008388499956395824
0.021530989293134788
-0.017794126482603163
0.006066072620714225
-0.013147920877049994
-0.02871639289892745
0.020797600180794133
-0.007899303119179664
-0.03410440493845039
-0.006737906928077609
0.02238165444905785
0.034380677825822735
0.02421465428912966
0.021121117467066432
-0.04978487925444856
-0.05089280105769718
-0.014044990764330934
-0.04598163696819756
-0.02452875525157457
-0.022912350103041407
0.013995322929093413
0.02984963501154843
-0.024666242212606267
0.012488552759124926
0.006178136455103228
-0.0162388857018132
-0.003806208276701535
0.05167852824104588
0.026201570140625813
-0.010193822075507272
-5.887528393549374e-05
-0.03904431547903939
0.17464587731319445
0.14981643596962071
-0.042355512482328925
0.026869918598504593
0.019144132920045596
-0.031081316661621207
0.014060452207055525
0.04287245863277459
-0.048042820294497295
-0.014627550430738556
-0.07177865360069319
-0.013208200614144006
0.007292676629456757
-0.018208403915571766
-0.004020568208137243
0.0012365915025034455
0.012677230587073107
-0.0024757240518721085
-0.031185528486319343
0.009954040837385844
0.03363840748713447
-0.023819066078399457
-0.013976326188618701
-0.02316401742274977
-0.015295029052465759
-0.027146957467544745
-0.012943223993710432
-0.01321593260276596
-0.004206181339743399
-0.03821696711515958
-0.0253690104490452
-0.025538676097432718
0.018636335197361215
0.0001001969235387891
-0.04050995222546674
0.008413182350437087
-0.009163507545934346
0.07598414482412982
0.0981830937035611
-0.019329121437185775
0.04984000688862953
-0.012212982964762498
-0.017147842799517404
0.005219244648652661
0.027925321136838595
-0.018202177991067298
-0.0020169189559357
-0.01771657789992444
-0.025340489843081414
0.011175897409116533
0.01655322815665621
-0.0074857449527602135
-0.029989729971958947
0.052082280861539355
0.12425544789341669
-0.024008045950042755
-0.08053183631524864
-0.06552061444554103
-0.010162585878361852
-0.06562548243698346
-0.017353506921184876
0.041292918538371234
0.022100025811913712
-0.027696900963054605
0.019060205551336164
0.010911361871223345
0.07580231155942228
-0.08750797796374296
-0.09880975596387229
0.03262177432274321
-0.012206611919409612
-0.004305665698335963
0.03437359449574255
0.04846268087371171
-0.03851206045976487
-0.05202771755130473
0.008660121949450757
0.03967888221014845
0.03869973933237263
-0.04764313743020426
0.005656418298377588
-0.0342057784580142
0.11481658688128225
0.01258339063309861
-0.06068746501105282
-0.02492367295039943
-0.0494308279287178
0.048076447122004595
-0.0075605167673328455
-0.007183094610177689
-0.0068198930593641426
-0.037287818727276024
0.014976992695396665
-0.02903237342562659
0.007722625462422755
-0.05404350206286854
0.08471960670896331
0.12411105580024687
-0.025961741814013405
0.07410021610570508
-0.03419524596289449
-0.04947956540139117
0.09004748695380085
0.10237152621161617
-0.026277495614236732
0.03550351638764823
-0.029244166156147902
0.012102021836109741
0.06003956832486964
0.03740104681580757
-0.1008467707880988
0.0022186363016297272
0.016539021579848247
-0.014995048863749107
0.02780134622953104
0.008086893022072777
-0.06672677679363018
-0.02058733443009978
0.022619124249964546
-0.015544702533547007
-0.007400949998916317
0.011633122402215347
-0.06246204411770016
-0.007232488730484724
0.0030402448757718818
0.011948583276406993
0.0346288592266324
-0.03217368403500149
-0.034111161578669606
-0.05602039170039474
-0.008440784518865945
0.04011631940327178
0.024466570712135833
-0.052119274120676636
0.009701370897100601
0.008988803344805943
0.04241994649205647
-0.038993367699856646
0.005498149402123552
-0.06252873417721734
0.018703840385115567
0.11438192884559972
0.022061489783248362
-0.02731046342789792
-0.05732420284132808
0.0157001469378308
0.009664972654294003
-0.04977579906465328
-0.05137269670896847
0.06665025206272578
0.04560024803039346
0.05198871057134357
-0.038890971993728825
-0.08825980028660549
0.06318170218301442
0.015011486388756386
-0.020583622928512648
0.019523083227264926
-0.004948052341938929
-0.009137074916852787
0.0188003819389831
0.02419996185341496
-0.004477881072432783
-0.12226292065638789
-0.04385529905852328
0.009979745382875719
0.02176477051157089
-0.002100451948530532
-0.016655409680206654
-0.0252129739385619
0.03238745193058822
-0.09518710665932414
-0.14389897414058095
0.006109151517533236
-0.06502984166651624
-0.001312846894631725
0.04709895875800837
0.08148986024608679
-0.02585960641860973
0.012208754541865935
0.0023741231631341283
0.021216050486920615
-0.01694562886197077
-0.011966198547594467
-0.024356896226231474
0.13560193174927015
0.2089213549802072
0.04174515995367354
0.010012345458731874
0.02721922568567193
0.013790329427484942
-0.003661172033894766
0.031088012591606515
0.010154883761516258
-0.05124154376550379
-0.003955773406346885
0.011143618635827659
0.030158511613387815
0.0479448665000972
-0.03657960709555553
-0.016304529881727852
0.0457332004323828
0.05498175233449292
-0.03451079897067576
-0.07353442323272401
-0.12714287253119097
-0.010442046773812969
-0.00013519354158977227
-0.0112261043762277
-0.030561338525768457
-0.0017031094704761055
-0.002052667210557341
0.010850552251714003
-0.00020280181233617019
-0.037133241544947
-0.017008812644060185
-0.03602979291068929
-0.011822935407362518
0.07863493568287654
0.018213373777226823
-0.018537452831653055
-0.024452444860420308
0.01955267856947002
0.03688621869464916
-0.028662373757964488
0.007597849061655868
-0.002133040783551374
0.03483530717322735
0.04249024971627933
0.0005044594049285615
0.03218344115540399
0.01878568248687283
-0.0055228909462192634
-0.03249492105012842
-0.030942586369134762
-0.0004983175036999794
-0.013239520114118702
0.004044256589756475
0.00919955276279573
0.008146059673660432
-0.022778856773977417
0.017999389288132824
-0.000996662151371902
0.013401086736592724
-0.05434642058994267
-0.04838254107467952
0.07653668351872461
0.023225355886672655
-0.019629399995438345
-0.033080161649587415
-0.03812776193045835
-0.005114682799501422
-0.00529743421600642
0.03129402469796193
0.026987588131765924
-0.009302907220510383
0.014132826781856667
-0.06041841843142597
-0.13924817966956213
0.047754249609323014
0.016398381702586215
0.02384516079433097
0.020458745890247588
0.057914735721499994
-0.0291360605860217
-0.014352102944169293
-0.03362101807190696
-0.016850905808705522
0.027774862862920704
0.08069064034672076
-0.025853291375955687
-0.0038234085721740967
-0.0155482848218018
0.06616951535110373
0.10176924310854447
-0.07956814859949633
4.830353151444549e-05
0.018207335140001547
-0.022099612249908418
-0.027541643549571438
0.0033566443212236126
0.011964654702971023
-0.03153842900347337
0.01619945559814151
-0.02788409349965932
-0.05079191090116962
0.019640005210330054
0.04770069321972198
-0.059221515157690766
0.01612147971709883
-0.02818302581064244
0.019373409929690808
0.04663153469246366
-0.04395990669688096
-0.0013156815530833673
-0.021326095903542425
0.04243646148949473
0.00818554475316712
-0.01993892706109172
-0.017688423083554193
0.013457555537066714
0.056317983447414746
0.04113427209664773
0.010549534429539025
0.012431557267764968
-0.03572101766347623
-0.004464090546483269
-0.015544753970099674
0.011080684608229743
0.035126377328189115
0.07172912653258764
0.05464853224032586
-0.02827166844945852
-0.030890501881313107
0.027648590266880487
0.04723794637356571
0.05598386886671064
-0.06926490975627121
-0.1630291072602644
0.040902530827542444
0.03168093947775854
0.0010134365246484808
0.0011485916537946645
0.008371918661401164
-0.026566398359770933
0.03435920427417861
-0.051886400354368284
-0.09285694987138668
-0.018169416891192242
-0.029453545499985762
0.0008609238987339686
-0.01782076218410486
-0.05047071993406193
-0.04469510040613925
0.004490670315698373
0.019999598615834936
0.017946032850141944
-0.005973843968510083
-0.06321977600591255
0.06320630622356431
0.17626309466497436
0.061765411490032555
0.01826842586187977
0.04042824507252637
0.008153458840211694
-0.028767743162583553
-0.11380132227575263
-0.01898440052545683
0.04980990745575068
0.03596264044936118
-0.020439253369310295
-0.10777857649311531
-0.007596050175524897
0.015039109055986355
-0.016781935482893882
0.043457457538005326
-0.04564421639282288
0.0025530932778157138
-0.08231689289816871
-0.05012412412818319
0.038856745432061426
-0.0032183973354566356
-0.01519482705186407
0.03442709605460662
0.005768518764847168
-0.0037853616401072603
0.02889064287920853
0.04792167546059297
0.07566971959182134
-0.03598010649199481
0.014105430830535906
-0.010498504449990427
0.061207824615867004
-0.006328451874183369
-0.01857806212905584
0.042325117017839024
0.03202922607399426
-0.027671534158839533
-0.019905447503965557
-0.009017301500191843
0.04508567694062042
0.01606919445088457
-0.04704325832919407
0.025344689770607713
-0.018476768278762958
-0.02976510327260312
-0.021833535988709386
0.015746609147489734
0.013002939064118793
-0.06357384292717867
-0.04218308789240724
0.030587790968657522
-0.010439358364896921
0.0415845522322186
0.01707820898243143
0.012317243372641751
0.03588579585561693
-0.015493911991628253
-0.014043785157716747
0.006737688157832836
0.0017756262335374424
-0.006121960187026443
0.01157866259505537
-0.01578727301135489
0.014046649362271575
0.011042090116840365
-0.07126123517273923
0.00034825342727978466
0.01574709293722077
-0.004679769217836674
-0.0486183791551114
-0.023630601878592183
0.0025867739102363937
0.03214029215021142
0.013232095830476378
-0.014421917136137845
0.013289866424379718
0.012558641267483937
-0.049432877816298064
0.0678798756502079
0.07671306680268156
0.011792158457682791
-0.01399229825669555
-0.009021075560000381
0.008049736460040657
-0.01714447822121049
-0.03166981156094905
-0.02958830782463767
-0.0034399164195308748
0.02050242445426042
0.04322711362094897
0.0070078042780805615
-0.01425492667306064
-0.011310666502088033
0.060029054539761255
0.01313935979346902
-0.027746460595594106
-0.011567499806774297
-0.003816954690721088
0.0026119226456625877
-0.038874550299569266
-0.023058207278378772
0.007260466838332015
-0.009494305466457985
-0.009824160451411093
-0.021820982574985832
0.03442053755999001
0.0016052762966588712
-0.015397590870788484
0.001218968847740471
0.0033243051388262192
-0.019271268111486564
0.013427497166223505
0.07699447960755226
0.008886945904335692
-0.004831931778516225
0.0281365425936013
-0.015906517149811214
-0.10891924762368069
0.019930375835272837
-0.018090348850294855
-0.00042291508691799797
-5.658515840117707e-05
0.010786656124893762
0.02723222586556004
0.037147422271658216
-0.10546724312041962
-0.16880405814460975
0.08647686046122266
0.013427829773776254
0.01282800928860984
-0.049184308379028416
-0.000637034927691203
-0.016288523638923504
-0.002726835234685769
-0.019322567126345166
0.016780938895491086
-0.019621594837131145
0.01866947850049173
-0.008077663847084205
0.06638821359625716
0.155994813801742
0.023186486234521984
-0.14588629315562027
-0.0037403943720604807
0.1322582382559969
-0.02922943156961725
0.012507139046210107
0.028032464547335687
0.08182020140701098
-0.006050294560538538
0.009104812996288023
-0.018239096610088962
-0.005418696380670677
-0.04127594279815078
-0.011914771432292347
-0.006249080368586519
0.019716537736399378
0.010120635120454314
-0.010377614290675413
-0.04310143308983859
-0.027028642488169732
0.0038874802107467733
0.03171705287911866
0.010919234173882941
0.02532243425146796
-0.0029496711191193147
-0.007382314373359807
0.02053339696666861
-0.04246265427946962
-0.04736469233461244
0.010520800321571901
0.00503486084588996
0.011231445073098945
0.03791640682584502
0.01357720445225373
-0.0266942353939791
0.00022341874671030404
0.002157408586310819
-0.013908597252849667
0.008176355039841078
0.008092105604595765
-0.02922426328702656
-0.010681675166131195
-0.0009654389903092757
0.012730530944444353
0.005814831333043988
0.07743089095166643
-0.009282052606971798
-0.025077887118045514
-0.007580917381644412
-0.005094912930234907
-0.015911703838288386
0.05425940783506837
-0.08358206066078346
-0.13015463544452585
-0.01757380991035773
-0.026516811304860145
-0.022834155197930275
0.07195159307688216
0.003968232063247247
-0.0036804922004511865
0.010718369099852264
-0.030132788162174823
-0.009700928868018288
-0.0798333186052917
0.12267275371325048
0.10871593482167892
-0.03942589650899183
0.017679660656202193
0.018100960373376544
-0.022170119161172435
-0.01076983036830101
0.027432701721706285
0.011604232297567268
0.0017331976971282238
0.01957900017807827
0.004830383153483132
-0.02352526608599092
0.017280274654163052
0.02915967796960712
0.00038161319965554524
-0.001977255011820204
-0.01308062231391964
0.0329509776656345
0.0032959257181028314
0.016902916762645714
0.018959807413759685
-0.008125024127867862
0.007040259254455317
-0.0007401718737530793
-0.020053036611427266
0.012078564737987163
-0.07601501355254467
-0.029354345431736133
-0.0033115615276043484
-0.0028955112176113932
0.021008946262952542
0.02431723122229796
-0.031644720171415196
0.010934121401404
-0.005660595466279651
-0.008277417518262786
-0.020543593234162705
-0.00413435620792666
0.005015396920361936
0.010403585174075277
0.010419184386936042
-0.02321111940701799
0.006312491131769782
-0.020013781404667197
-0.02463344516813289
-0.00048603927530112176
-0.025788310826464583
-0.016062748560127373
-0.009494698505061686
0.022279800756366982
0.029096128317033558
0.0004004372321312833
-0.008272628265596932
-0.01858837334904841
-0.01165989893315417
-0.04010254613365924
-0.002146875410934133
-0.01354905947884102
0.018807589574036852
-0.0098007990701576
0.02828578725104045
0.027314477323175643
0.0958210644921443
0.032804526419819825
0.03890390208185854
0.06398908448049741
-0.019289322225197178
-0.0046050309547715305
0.010573402067057975
-0.039296105817769635
-0.03204879919865218
-0.009833321796416116
-0.01974948409589764
0.020297210223623026
-0.03379983914925727
-0.022322563283847786
0.01607569856291071
-0.017034584226809615
0.008537932224100537
-0.008355868531828618
-0.0016176434620007601
0.00409821829008648
0.006343286093327448
-0.0478691179166728
0.021955283138517297
0.01838963543491471
-0.0032414254555149
-0.023280007257155576
0.020868396019600145
0.06427419827584759
-0.01625742967269143
-0.016304954053201533
-0.004601163877113503
0.008279627329986983
-0.018796121596962576
0.02317025730753427
0.012939267071351169
-0.01624700166331087
-0.020866623547643924
0.018290217210293704
-0.045817697516213826
0.0016344747702485567
-0.05922787655355115
0.0033747354026730765
0.11941186811502202
-0.029136161574267305
-0.012761210371388549
0.021840833929604522
0.010112899389224717
0.017002648471828263
-0.037488525208985775
-0.05215555290578425
-0.0031157012925127816
-0.02000237078793681
-0.022564591102205756
0.037172527620247274
0.025884302396885616
-0.04106532627389258
-0.016595570387355582
0.009709608294872106
-0.05651604140620191
0.05478149541198851
0.13269594232036938
-0.07158571815038932
0.024536291406274988
-0.004186976407365296
-0.017088164579945393
0.0003430718430050059
0.03995156979497419
0.022831667732177624
-0.009941895676778867
0.0024675739161422626
0.0029319624243037577
-0.018653799860511355
-0.0013380279475789987
-0.020523168906919673
0.021582259718067286
-0.00870289735039381
0.008535077092750646
-0.01799580944534572
-0.015431631461625697
-0.022468434575229918
0.008360762535412453
0.003515858746169964
-0.04012417158153681
-0.004616728018513978
0.01680093643332114
0.04486070597412553
0.02750345931292654
-0.007044975341007161
-0.04295740458328144
-0.06670466078476163
-0.020736691888819034
0.03187351312670962
-0.003655124221389425
0.07155194660904116
0.046749425149253614
-0.020072337170924714
-0.04335185571784637
-0.006415840992186752
0.020088856575498252
0.002464874540155948
0.010557335154355694
-0.022801180379583997
-0.008984591763195566
0.01154643843520714
-0.03589986056935924
-0.0703052968138253
-0.008169193309086312
0.03025966461592394
-0.0017713321773105662
-0.0173412721970351
0.0344484748559704
0.0061481903971860275
0.052897348014711305
-0.04765285774629004
0.06146787492211771
0.1205305887159997
-0.021867527776421525
-0.008164101462589002
0.02036355134398494
0.02071398691451516
-0.016913158841348
0.009249424991177483
-0.016937185929992354
-0.026929148013244794
-0.00575104063659017
0.0016857870352952552
-0.028614794378004998
-0.007729773795591719
-0.040211714516132445
-0.03625471131602774
0.01473568130893649
0.04276416290869435
0.020066857711755686
0.008122482533598816
0.0005963546360290818
-0.03167268556314963
-0.008715167572794889
0.03492698409271437
-0.025760181431116348
-0.03183971749755467
0.0786763483275724
-0.030272981020045116
-0.030572489788765835
0.004485352243449971
-0.013465328454616635
-0.016672642195659695
-0.0030190580893549295
0.0299242255798921
-0.013505781833136533
-0.030109003314893586
0.1930339915708155
0.17237256794847028
-0.023641676672376793
-0.027812940815154178
-0.028336241707120922
-0.007237032986693723
-0.07312004465529451
-0.06017021308948503
-0.06971748916449695
-0.02122312720440461
-0.02483259467143513
0.0001616588447225603
-0.000785972816321033
-0.00976373768861244
0.013682320346782224
0.009163557386854981
-0.00792085414643113
-0.03783794325136013
0.011877915489579912
0.033141070694080295
-0.048352248975069054
-0.09736171359058823
0.045944473722714055
-0.0203854501142972
-0.008700620070604867
0.004193985779176026
0.065519129641046
-0.02328378115641768
-0.017493663631323694
-0.03726495948678742
-0.01063640935457117
0.006891702371063463
0.04722398670039525
0.015446865827576586
-0.025370207949259274
-0.02567768443690648
-0.0019876706823212043
0.04046033320366314
-0.027397124959532605
-0.02036044632603316
0.011844862121352972
0.012299804635692647
-0.01930462864602621
0.01538312099141563
0.03148460431394808
-0.020577106237677705
0.00036073983335120673
-0.010583640909068685
-0.0019607787075876034
-0.015990921074028885
0.005199738787072126
0.06556852904067252
0.1555127464987492
-0.021467670973000865
-0.0538831626456971
-0.005491240006015842
0.015643512659815745
-0.013229526038075368
0.02542938872729505
-0.0622788098130296
-0.05558202989390057
0.012337846686894001
-0.009102488319017707
0.04344832192538675
0.0294782399500316
-0.0256713152761531
0.09692149048524405
0.1047912584700855
0.07256996683114923
0.007848391590614975
-0.01752740836567158
-0.018888696610244594
-0.024829460636124033
0.04904509219367778
-0.047508439771793844
-0.011381299690971342
0.03462646176827977
-0.013697585318111875
-0.013166105373478905
0.02561431528809517
0.031136991711887146
-0.08347676236339224
-0.10922225948646846
0.01437169383673379
-0.029618160110957883
-0.023360983422266383
0.05546287950417639
0.0004602215943108115
-0.026883119162972247
0.0031774817347097126
-0.00399982704091916
0.01852023719786684
0.013154750484720347
-0.0024114758119371314
-0.03795025426644755
0.01202521884999254
-0.0392128301249478
-0.1539976181000368
-0.010968775174389609
0.06661639771649823
0.036758135394635606
0.012099439590981042
0.0023347008586719034
-0.015413375975120956
0.03126142133326535
0.018329215280234144
-0.011210595287168524
0.013814836541747795
-0.04763468558537204
-0.10188235078393511
0.07138908412985263
-0.02080900191464832
0.051512815457559896
0.05603218334721403
-0.03914746939803931
0.004884441192627363
0.009444656094320486
-0.03352313001648702
-0.02970572916257492
0.018439670171656833
0.024735506645171344
-0.0010485333958855166
-0.0002491981065811161
-0.003528102932239863
0.043496173008578776
0.07497923926534217
-0.026530005123699695
-0.02728519131059235
-0.02349817117644415
0.006535177670392044
0.019229806689111954
0.028173542282963805
0.0030668984331513305
-0.005523658239568639
-0.012290994027497738
0.020429166783558713
-0.003798596750766259
0.034488801060986764
-0.0979009174334984
-0.002307494513919135
0.0538702555982249
-0.0043225285075836695
0.007711575844181289
-0.06085594950077038
-0.020608438431061634
0.004349958904796104
-0.03462864857945514
-0.023612853743227517
-0.027959875726577803
-0.0006549954952950334
-0.007167851927408984
0.004022132959576981
0.02332752632791207
0.010038530188738182
0.005584761626605391
-0.04253933942609831
-0.014155268667558523
0.07551515829260425
0.15850587428372812
-0.018259195788728887
-0.0528488181485353
0.024965032904887097
0.0013879388487272335
0.04455742836265903
0.10989847166870831
-0.029915077752093445
0.03027696066462211
-0.016650604184215923
-0.16387431688229756
-0.10584708720201169
0.022818817811694064
-0.021531727459922222
-0.07414788609212411
-0.012904916405592945
-0.0047140823433740415
-0.03152206027329268
0.006512401390369893
-0.026773148791808556
0.07129223672782349
0.08622629425867427
-0.010792564692983909
0.011557939415262395
-0.014362915104144613
0.04313846389995475
0.04521152419536555
0.017543699423999654
0.034395806760960754
-0.01383013775307437
-0.018101284186124243
-0.0010030768536446481
0.023094305248609906
0.017235668791989376
-0.006580372007491855
0.09571541846664092
0.09770126261321631
0.0004481900228048751
-0.003478038101206707
-0.021826480127599968
-0.012422741848906568
0.02533405217849338
-0.020199191648226006
-0.002819681469869543
0.003738408944507526
0.07628048724652595
-0.11032992276781964
-0.2010438515924264
0.0010273784525590653
0.003539114727449934
0.005424035509661462
0.005979522677990127
0.003817316494870704
0.005576652915680577
-0.04787301564256438
-0.060530225281713194
-0.004257933671286465
0.028471661785658763
0.02913928598828781
0.02269630283391928
-0.02347185068923696
0.05375690969326262
0.10914881201990889
-0.04638437505188356
0.01780501960888135
-0.02072147829464383
-0.037129508730349634
-0.02995115444691181
-0.03533959573039247
0.024139345047373167
0.1778663301917053
-0.028292643113519516
0.020514122783213982
0.008920327053670914
-0.0015991442215430047
-0.04324187515955393
0.021546157657748657
-0.12513257516564677
0.0025518383895244932
0.007019122863739476
-0.024263805321261364
-0.017512776970593343
0.009818592852573268
-0.08077073234705927
-0.14369028963407338
0.0029265936476427254
-0.024457615768491862
-0.007493551337530754
-0.0004139456616496279
-0.007171750488049492
0.01038591843865008
0.024148401908037773
0.02361828140697972
-0.011684338480229968
0.00377716896184101
0.006590128860361138
0.005106255858308317
-0.013145060927467866
0.04004724988470228
-0.021659772253061312
0.06801386376305613
0.14779466522697057
-0.022244941675668057
-0.04731160387658093
-0.0001761873713297754
0.02129324432854762
-0.05715565379465008
-0.008323786628698844
0.20293795867534448
0.03123738624756179
-0.027098377003620822
-0.008384234949683515
-0.019360578070378515
-0.011744060707162683
0.02597576030111693
-0.06382186996890388
-0.020826599500946643
0.13057789953724358
0.0561749920743803
-0.0068822829149669485
0.015969501316292163
-0.007528958361495296
-0.012959666878648076
-0.05112271658337718
-0.047214329840516045
0.015028115737617413
0.008764535219776357
-0.00041346528565349165
-0.0019610329566641027
0.02627876881831841
-0.08723757892936812
-0.02296134262372418
0.008910841312608867
-0.02529371119525975
-0.025092106058406508
-0.06399235880246566
0.02095386281201457
-0.008118611549802028
-0.0468386286930678
-0.018489954160344983
0.005621965842886456
-0.010045268168990895
-0.04855617120842875
0.050433999366465684
0.1286469277103416
-0.03209448079388458
-0.018952822123091993
-0.008020319376307731
-0.0044761934501717565
-0.009956585126284284
-0.0500948406554744
0.004988999404014302
0.07661163302833908
-0.017964494492154374
-0.009270220103467097
0.06163940048619705
-0.025003283642954396
-0.016930865902217984
0.05664966635273504
-0.06045087357264426
-0.0005903132813807299
-0.0022513672370933027
0.017908371869209745
0.11394254034783258
0.06654474687585604
-0.0345709686663815
0.08824080251082962
0.08643678109423533
-0.16939537539777905
-0.03879220490138875
-0.017659014775090076
0.030928127832257447
0.029006864712656566
0.012392290592974038
-0.011269025931664416
0.017258170716538453
-0.012974013329790736
-0.003462445078116771
0.014572161898778547
0.01555758319467612
-0.03492869566058027
-0.01418546385942179
-0.04088272049948637
-0.028962632442075656
-0.038090216997731796
-0.0007867677482001926
0.0033525925021245305
0.00722868883313063
-0.037097780409214236
0.01712335167688954
0.008561333272917976
0.010770432810256607
0.021425443139960088
-0.11482730793033419
-0.06603732535154254
0.03201362952923582
-0.01715507516411556
0.04212992897957781
0.02511107799197085
0.042460446202704324
-0.011224678431538525
-0.01773807217476
-0.008802520568370564
0.003182154613481907
0.010053779205774972
0.017576726849660263
0.011321403472245955
-0.006057869764380713
0.024226166797874517
0.035132749753331825
0.03171754630005931
0.009894728536318906
0.020452575151267832
0.01832726684166488
-0.018653357389405874
-0.004762959561047079
0.009926868475042495
-0.00866359368172834
-0.027197143665899357
0.005203803398715784
0.019549111995048142
-0.01131433209102487
-0.035016743377179256
-0.0280743148999474
-0.017695286804448145
0.005491976630392463
-0.04476179113874072
0.06499934051838818
0.03014040509742845
-0.004927668392399871
0.0032496019562804532
-0.0010002948764279128
-0.052743978182273714
-0.20683044657147467
0.01942064636699583
0.1939989523121193
-0.010861622124774756
0.00021155316580427955
0.03942263053735197
-0.020751361997528753
-0.021437095211033264
-0.001134255187706371
-0.02500561994647309
-0.008662921900333078
0.13404450464047682
-0.012119847431096235
0.1342882863657774
-0.039482420960618395
-0.06324827163055934
-0.13053522530099115
-0.03947906819799054
-0.003870046732066345
-0.05484675029401859
-0.06606393900304178
0.027039760472715793
0.13423877016491856
0.01563557340808254
0.014586324881125552
-0.030399924892821045
-0.026921141157807627
-0.03840184120107283
-0.002688695155829843
0.04969887986157725
0.014214579097731625
0.029348415258129607
-0.01913684757983613
-0.002483509774107713
-0.021110812479138832
-0.01996948375222061
-0.009387490058072599
0.002890253527067736
0.011921665496293754
-0.024399778186862668
0.010585659216469987
0.027763964466408282
0.07640400747107753
0.040094256568987276
-0.008642885711784
0.02732067753580872
0.020310767953902714
-0.018048140365530714
0.01469130536818452
-0.0007899154207783685
-0.022070687829715264
-0.026662153293199296
-0.0019919944763560574
0.0269328264580625
-0.04347655465386754
0.025315048639240136
-0.010022038207939461
-0.006793881632862204
0.0059912216850337595
-0.0028810080882097806
0.02231801747446961
-0.02946841771933727
-0.03149978766496549
0.008952784182877215
-0.01865913627768804
-0.03371512762053241
-0.03814139239694909
-0.009595168307926533
0.01095235229218075
-0.013732368301199312
0.008300908560736668
0.14228860801534507
0.028592894679565245
-0.013277444609668464
-0.017429477795932815
0.031002217355798275
0.003124897215351446
-0.02795528682335921
0.022890752359200493
-0.024242940773199717
-0.044673654490613945
-0.007480172992349292
-0.026343900713132154
-0.03379656359971492
-0.013794853754819082
0.05873596567930564
0.00783608604848238
-0.0051113690981799765
0.04603116995106669
-0.01527730084960729
-0.02795272560165472
0.08729766031704914
0.02021679631162914
-0.029426840067411295
0.010584957408739533
0.0020638547655836815
-0.001988842202454149
-0.03205040203333574
-0.03419581639379562
0.013192460814370796
0.023515212912224543
-0.03559737863676241
-0.03417682221859714
-0.037494621319889614
-0.002766340559892621
0.011640036325216123
0.00916035508231642
-0.021221188457121842
-0.00790897250441959
0.010737427309366995
0.05878485726453423
0.06539324193836694
0.03374133021797993
-0.02225865128677755
-0.020901469555554126
-0.03308339652642986
-0.016328725008600532
-0.04268936095565926
-0.031180300653932753
-0.03187711492726379
-0.015820038986369862
0.047249828478363703
0.011941875835206313
0.09171665873790927
0.05767727046587509
-0.02463460842381515
0.019613324094014183
0.02147016954274303
-0.006659200089683149
-0.02903633105264077
0.011097399120415878
-0.05145952172063973
-0.035107897273026704
