0
-0.010206156300551494
-0.02968321635920131
0.023999594701573736
-0.005582567449861559
-0.00640984297471862
0.018033308971749786
-0.005560737160445042
0.00442235067064589
-0.030051138791057728
-0.02965874437563254
0.006201471101158137
-0.012945663805839135
-0.020654315849847643
0.015167397978037372
-0.007052191230831985
0.004400388690584873
-0.020296470990551388
-0.00318286115002307
-0.004966169105787927
-0.02942132226276694
-0.02207728366058612
-0.012122332420787642
0.025509458395153825
-0.013635410897753228
-0.0023101959490830657
-0.06625939302986776
-0.04340595851543619
0.04725950614395349
-0.003725734880438868
-0.021008732582738266
-0.01288528515222092
0.0076915227383395745
-0.013840615268299675
0.018597170215559802
-0.005810686439726355
-0.02424860091306087
0.012344664448036858
0.010840317445250493
0.04329049898783871
0.029955120914063656
-0.0380699959903829
-0.056771116697678405
-0.057163644955553115
0.0651096990427967
0.20298836106717183
0.05910384133337384
-0.009034769096225633
-0.0008702415154037749
-0.013609526364642566
0.01717415500676978
0.007355687981297955
-0.010095436362603438
-0.0012305939940311973
0.021095712007826572
-0.006879872468032712
0.032866185419589425
-0.01893586838852162
0.012555823360238957
0.0322398936258429
-0.008752373445577988
-0.018550577797071997
0.0237884028496408
-0.0201079994871939
-0.02334111012586094
0.01930439323943071
-0.009283664955712494
0.10493345387528037
0.03197609616081521
-0.023993649005686325
0.025925826446133355
0.012267420310644681
-0.15168410467633325
-0.05353013410458177
0.03090917888235505
-0.028316901726764834
-0.004446238507055519
-0.04021194085324118
-0.013832784856082926
-0.010732957953481616
0.0515997360706064
-0.07969864851103636
-0.07270731489208254
0.055034192052612216
0.025951588473002506
0.007641736303526743
-0.05139628935153196
0.05015847297171852
0.03239550386543802
-0.08931536794000589
-0.058176825516233044
-0.08197310279656154
0.007327428691320534
0.030370244662810183
0.00978500348927038
0.034618192055133626
-0.04083546057452981
-0.010831203867537182
0.0023870704263859468
-0.002234285076959626
-0.010406942183422037
0.017484137066132333
0.010624261607166728
0.03269837581584728
0.05071558841623937
0.02746926851002173
0.061250109905373384
0.034096161728368185
0.0120826656075532
0.019180114999282023
0.0010189776742120453
-0.003576926759081536
-0.020282967558286853
0.012257884671101124
0.041518709880207005
0.018675244649552114
-0.03796933086532667
-0.029420886175877594
0.006699899779907505
0.007335183290968895
-0.006873964678436007
0.015918861286696995
0.003356172630570546
-0.013074168907295272
-0.010734939900330615
-0.019560732548522784
-0.005514071810475042
0.07603512472807247
0.02065827003423222
-0.000595627063090394
0.006107107719838779
-0.09538024259913724
0.030805786734281485
-0.002841662495608983
0.0018454129290994233
0.008088134913412344
-0.11534164192017422
-0.04462114553335907
-0.020260680346991657
0.014094874658068744
0.03157477783883508
0.015669763350940363
-0.05975049700813943
-0.04680955062447997
0.0524656441354137
0.04549853860978828
0.007579657693759387
-0.02876844302527874
0.00485869339730013
-0.00923897960899333
-0.0103574440457874
-0.020992097125780047
0.019919929619564507
0.007691981683839668
0.019209842645763416
-0.011015833318925727
-0.037077502259038414
0.03202986745765164
0.04999893110779203
-0.04725349243224637
0.10849468516347759
0.08595958607012112
-0.035036909515614834
-0.03402282286271663
-0.03379913334809743
0.005702183587877907
0.06920116370958769
0.09648944023953912
0.008193206653088049
0.0003049890188852779
-0.005261152532583397
0.009736643412054671
-0.004851947722526189
-0.018979268494218625
0.01906834205270294
-0.15891571085590359
-0.05074793165266827
-0.012858838039114808
0.08137735488892042
-0.008539800963790773
-0.0338540322001475
0.02960693798781283
-0.0099563012668011
-0.013244726053108846
-0.036583728010316084
-0.035671658113577503
0.05509757143111549
0.022966536919187812
-0.01612220095555182
0.015181057431452984
0.01035913445370509
-0.01577780535740098
0.035327434359950526
-0.03006811988101698
-0.05180075457386553
-0.07493351735058425
-0.08774030126133849
-0.002514448157670976
-0.027650320245431407
0.03964953190756262
0.0020263812791478345
0.029127161575252282
0.14559673011593555
0.012199461703676381
0.028586325775740995
0.041902339895464026
-0.04353979927842164
-0.005459028158540069
0.01636756298602495
0.050745534685122384
0.006461758900524686
-0.07676695716908395
-0.010297265678809338
-0.019432080417687948
0.002464171991415651
-0.1250974320631913
-0.04453942268105847
0.025596542233053507
0.006794537251473422
0.06705784946551886
-0.0028000839518450803
-0.030114109200257692
0.010775090804440345
0.03247090425119941
0.007637475573937168
0.0068882878679872505
0.012593760863913528
-0.016372580666735272
0.020402566479257495
0.026477506843375118
0.04316183749110809
0.0034370370218459374
-0.048325445789438586
-0.0021282840934410616
0.0063266829353738315
-0.03985124017526809
-0.09327217948479487
0.06912023800022493
0.032372061014827286
-0.026007362851453747
0.020827509130640433
-0.03555812150962004
0.09149931724256458
0.1787422522363084
-0.0009528482592507402
0.00047495592623007554
-0.019907007367481945
0.007285536622861048
0.02152809128885674
0.015170427928317924
-0.0017564163484847187
-0.004826621873961862
0.0031113475816120437
-0.021329150536886755
-0.008834589006382365
-0.06622918017155145
-0.12342789934949905
0.04379756404016548
-0.030473232424849193
0.024675160257034878
-0.01550622046334356
0.0033325442334918467
-0.010334232419519493
0.0018213445954779648
0.01528580821042368
0.017078487947716194
0.039441598376535075
0.026910367662524044
-0.009461025102213954
0.0006295573689206473
0.008684217683998307
-0.004332108454581616
-0.01570927584927895
0.03959795128805398
-0.05823886688449854
-0.019694629197221678
-0.006861784648116809
-0.0005545598122511063
-0.011288972821885184
-0.02470748623521994
0.003329757337451139
0.016668148471451066
-0.03263992876376461
0.01019073814059531
-0.09433449671766285
-0.03149232617356683
0.05510384164219056
0.0008272868248740189
-0.02729714271736752
0.020608606632113273
0.002889329112609961
-0.027687200266621997
0.009303971419235774
-0.005659818928103214
-0.021251571222922767
-0.006244019047035107
-0.0451863478169217
-0.005618041909719941
0.02282848750748967
-0.03729231133682321
-0.002913935757835301
0.0033315789175506053
-0.017915954895436646
0.0031963090936554957
0.013879850945307927
0.013332318214275737
-0.06356578878088562
0.02208408135204456
0.08090693343867363
0.029933034879414604
-0.021831267718410728
0.057338144471743256
-0.0038714536254504123
0.021539886006306578
-0.007952132653711934
0.027168599615341373
0.01895078371055777
-0.015690250348105086
-0.01434263260508903
-0.004384434610989002
-0.016870748986064738
0.10369265478957694
0.02600429562020361
-0.0013309411712240035
-0.030207237626144558
0.09826157804015209
0.1047090977194528
-0.05188532849761408
0.005625967672615353
-0.020959229334134622
-0.015926039331274122
-0.0021522018489586207
-0.014875263227248694
-0.01400170619015277
0.04007326636538119
-0.02155066713813981
0.017775907194690094
0.02734790973349218
-0.005254156594158263
-0.010318365238145355
-0.11495170915084493
-0.06759187927148527
-0.010534611570980389
-0.009595211458693936
0.018855867097445203
-0.036054231286977705
0.01903892735364259
-0.045217679408241084
0.0021763511915444144
-0.030052317128565122
-0.0065074241555272425
-0.0349667528104377
0.09928965304358757
0.09553659303265086
-0.05700798487615743
-0.014070871175058359
-0.01988015768724303
-0.0022672108826206107
-0.05202540123427335
-0.027462956780888878
-0.03967274244261455
-0.003205193228421048
0.032850795300934196
0.005328833385172069
0.02611639654534116
0.055977331997747556
0.00577796693514455
0.006829979267207773
-0.006347704557321844
-0.024118761993199386
0.03283601744037059
0.0853022643299534
0.0796215418983211
-0.0211950828387655
-0.005320229599604821
-0.0463238523983672
0.05882605725810674
0.01799210516971913
-0.02238935384320508
-0.013993999515338017
0.03531574779998735
-0.017451296864654634
0.01432094797314638
-0.023723222542808568
-0.017893591057267618
-0.0036471465948672136
-0.0464220886006742
-0.0352428596833183
0.028736605405454283
-0.03691289536353094
-0.05115179932235124
-0.025675825223009936
0.04509088704879503
0.08234743887847326
-0.008569655200183005
0.04751417909026015
-0.05395537022063911
-0.05420364825878063
0.020940762484844274
0.01903200028589754
-0.002014481132147678
-0.0357003604478315
-0.022266070747027876
-0.053236784301309785
-0.06638501857877364
0.020765101021770052
0.014145974696728757
0.08371578985003479
0.024952892727864377
-0.019412303033188038
-0.028346085573648004
0.01666339729892832
-0.0324735860436474
-0.011146937934085076
0.025046263475293776
-0.019885364672375012
-0.002818090087235505
0.07074388590344802
0.005829603695635809
-0.031027686809907282
0.006701560150386754
0.02191863793693025
-0.02418827915242493
0.02715473976448788
0.07677745461693819
0.031071104459166644
0.020807302836009345
-0.01882962024680176
-0.02192605588407154
-0.023254227637661648
-0.018355201308089496
-0.010962465176639685
0.03555277181054163
0.022278810192893683
-0.024407861708386568
-0.018639851526253786
-0.03343433467457526
-0.01627422426496026
-0.022960077611941562
-0.010501299826323834
0.005014368427951396
-0.0084153673347505
-0.03461064664573385
-0.010017606658830369
0.012788834766401153
0.015838819981428155
0.06427855556010094
0.07765772710427464
0.011912459321252088
0.02279332059521649
-0.013266063900507075
0.008408689981651531
-0.015137171623687119
-0.004249160736084042
0.008933588248469338
-0.006161925080786347
-0.03373110441683932
-0.037807702203577466
0.01625370747024135
0.02768804974376848
-0.01941994530424256
-0.016934378619664583
0.02353785121540596
0.08042952307011365
-0.033060062569457774
-0.0003684466174822935
-0.0616498393491216
-0.09748343472317123
0.013325222788023533
-0.0030217562339593354
0.011647731043269442
-0.05180530113966779
0.030505646525094583
-0.02867052320975173
-0.013174213257193073
0.020715673056785486
-0.04054301386116386
0.027993922484211023
0.010903890431677676
0.0004477269664567137
-0.007977286840173512
0.008742459379366421
0.035086625847376485
0.051912143719721054
0.031442630162414276
-0.025036014040495227
0.008201060957880193
0.02963058911701556
0.009690429060595083
-0.005944310856564179
-0.024225782591631047
-0.015742321695007864
-0.003549607478238243
0.02207558908129811
0.032660789499609925
-0.0007169757107234555
0.018330606701256927
0.0139231109408578
0.029255494248252033
-0.04853959658827916
0.003114710122393715
-0.02040275000634169
-0.01522733271465854
-0.008998135975213624
-0.018500275208748477
0.01744259482434171
-0.07289646197220091
-0.02381833163096107
0.016476193191029123
0.010524162923081221
0.0019053615494117853
-0.029792101083229893
-0.007568821537525345
0.022270088501773734
0.020021324970879807
0.015812238694291266
-0.19640737635393526
-0.1102412068692845
0.12703667964594534
0.041092233776363674
0.01821610384830523
0.0027949944546011006
0.039742676348143886
0.141782617477508
0.02109848251353109
-0.03639248532964061
-0.07884191279409704
0.04059989893330051
0.01976301496148446
0.050717943271232975
-0.021599329770719013
0.007316229648132054
0.021316589104523852
0.019894526349836076
-0.011680133116631434
-0.015979486259175956
-0.136237571290525
0.03786147269128334
0.028173699312330033
-0.03592343705729412
-0.026997068374716496
0.08419897638153623
-0.08186998830585299
-0.06639560837193262
0.08358276654069799
-0.0016569092502034008
0.04362832102836378
0.028454358530373244
-0.010466214287548016
0.03721521006012555
0.005414751089337927
-0.05650517173125943
0.00939713352826524
0.010872705515144956
0.0003559821868151489
0.011557737621360706
0.02163736297944557
-0.026087145325224995
-0.028568320766092024
0.006267681106319887
0.00113613986212594
0.01511903531560993
-0.01170346795866642
-0.027586776220575756
-0.011580531450421655
-0.024799955345575646
0.02099260574274538
0.014958049887877077
0.03552990952407659
0.03111162498760621
0.015990041864190344
-0.04348424444862019
-0.012101780851725186
-0.01934020270064354
-0.019920431063835776
0.015341021212810505
-0.033756278034853884
-0.0008732152135446896
0.013009583676418591
0.041437735674188514
0.015666112122978276
-0.01378851189923458
-0.016796252570777354
-0.0394818208751235
0.05061179667950586
0.005557498670308765
0.001615472961269267
-0.029270860360960414
-0.007450687961487682
0.005629134490489946
-0.037005399103187946
-0.011386346978944015
0.033657758808034885
0.031973289419495766
0.022494454958105616
0.0009981950378454571
0.02045841529501842
0.025529865623673414
-0.012535611122249182
-0.008388762417348702
-0.018171731341731768
0.00042493694492837426
0.0074435357211033865
0.005695963613519915
-0.040102469287034995
-0.009499224919294667
-0.012719329209105245
-0.011421411101618586
-0.0027955698765934644
-0.02164153937832899
0.038880272723286535
0.08682294740739893
0.013250709282854847
-0.026645138789298518
-0.010873080604782348
-0.005430453517137478
-0.03102278561116823
-0.02861227694666832
-0.03324686017984504
-0.012533780814737784
-0.011972422203576787
0.01928861249281481
0.05062624310043281
0.016955409577960656
0.02420366009847439
-0.06189529172494019
0.01143891485115279
0.0044815559069068655
0.002537423019104144
-0.015474295423222442
-0.005994421308632942
-0.008876470566216824
0.02650024504504224
-0.02061877732168183
-0.0069977620009657095
-0.02692687974300506
0.14567096654963754
0.13061473689447975
-0.021497815717853915
0.07123859777869779
-0.039483918055611016
-0.10320047434736707
0.05021246286863059
0.02606980447589721
-0.01477090025630263
0.011639716856834894
-0.040496272761290995
0.007119920436875915
-0.0032496946277621595
-0.031440782557929876
-0.018313014244447007
0.04579861750339579
-0.03237550734932238
-0.17078973710058984
-0.02166316228600077
0.014556970555710685
0.0045664919504862095
-0.026415991632446824
0.024906631624570175
-0.006926900147290265
0.0008963347358721697
-0.019315484996375705
0.04396533973813955
-0.06391456331920391
-0.033269638990568395
0.007621781423937413
0.0012163681864353418
-0.005777819099212221
-0.010051487738853084
0.008706196281196465
0.04202435601667683
0.109935060382053
-8.270774655525519e-05
0.008444847687216747
-0.025520498450564998
-0.03536653527829311
-0.011354798100514719
0.012728438184635737
0.010443817006298857
0.01947109453164202
0.0440734910486231
-0.017268564385355314
-0.0032307942182135947
0.031465637364445555
-0.013712443958908327
-0.004645606892326718
-0.053739668167946716
-0.07066781541735666
-0.020014068041551775
-0.007595533436447164
-0.0020072754656296184
-0.027097417099775454
0.005607680727339078
0.045816957541586864
0.028585974998080323
-0.009663492626988483
-0.032146828156187836
-0.003480697320697276
0.013065517363059569
0.008744367015023815
0.01271843565686203
0.03161794809130767
0.010442580740199067
0.06019251733557475
0.027488197430046116
0.011681543623141478
-0.01379289755782825
0.006291235033766369
0.01234330139416177
-0.007731367978658955
0.03155750053578629
0.013401828030218747
-0.01354263186612138
0.021013387284704116
0.021278217951647027
-0.0018516625520387886
0.01836884184024509
-0.004515743480660107
-0.036392411747272466
-0.08739263174297172
0.008014752017675913
0.0067090293576779975
0.06629384375114562
0.10749093356386703
0.009239124017639997
0.023102021930593214
0.00493600716933092
-0.028690204513759362
-0.013756827067666058
-0.02099392697234017
-0.08862501075278585
0.008973943771483967
-0.017743781594620405
0.002420196864660352
-0.15379096962694574
-0.1776514495485439
0.04288810992539964
0.029383801737178274
-0.009360368089610499
-0.0004410104675293385
0.02035925402783353
0.01271099765245945
0.03879154084955693
0.031955370110311104
0.02943291762555363
0.014673865148278393
-0.014450814713217231
-0.025143847804653733
0.02526289214893477
0.05298774045198187
0.0145343109629167
-0.0074673344261165535
-0.031607511498099684
-0.02915348640225859
0.01345546891161753
-0.01227934749707818
0.014434233201945947
0.024789660058063826
0.0005944904410043492
0.0007597564809092254
0.019380602084725772
-0.010574349870759753
0.014918223589742286
0.022612729691440944
0.001698780933199382
0.001719181516227626
-0.02800851511634153
0.02464340876855643
-0.016124425538682888
-0.06658587763912477
0.00581165659433743
0.026837835565139762
-0.0503604897250149
0.026405509950335818
0.03636267746963641
-0.002264818738135787
-0.006408124900918626
0.06556226972013499
0.001256412350101217
0.020023954610667888
-0.03791334471248754
-0.042207241278126806
-0.044193095214940185
-0.03893462235803923
-0.018754746105935072
-0.016715836213971765
-0.012485604469499638
-0.003777404875288317
-0.06592775234319623
0.039015062599047905
0.001844886586209368
-0.009427599192991173
0.008361943858630698
0.028599863157844546
0.029016975973509582
0.010616331636390251
-0.0120310446181979
0.03893997397535093
0.07804121754738742
-0.0007351414070506561
-0.010529699899473176
0.0027229998347450355
-0.006489235336183897
0.0008137264584281105
0.029593983157796273
0.035670118870168285
-0.02560046079039395
-0.018645810391217058
-0.01571007544231879
0.07006021952241324
0.0415535641679523
-0.020996579741832996
0.007055776047867713
0.030719450746527193
-0.026434509392228
-0.01960851042363244
0.008443127215074824
-0.011878025804330153
0.06265120024542421
-0.06065496319802294
-0.024302168340996026
-0.0024680399285443525
0.02421665711135286
0.018403833338250273
0.03521025357768741
0.020564751787332188
-0.01247858203477235
0.010153328354743595
0.002877418009337862
-0.01777306857657069
-0.00014871111351515224
0.04088988513235551
-0.07932198566449714
-0.016363007593616512
0.03348660398607697
0.07171525975937278
-0.08866508520690167
-0.08687502937818493
0.02954123746785197
-0.08393782357238773
-0.07348771726629337
0.010397523174360797
0.005290563566225616
0.005779548732632464
0.008690746821585021
-0.012806426741343139
0.045132737617560946
0.043516661130636715
0.01608813705358382
-0.002810058799219652
-0.018194920893497734
-0.01615869383077584
0.040898137328019925
0.007072735239924986
0.014356726755184079
-0.013588351156222403
0.01153446662398706
0.029938801875404125
0.07182354726796387
-0.059696468314235376
-0.14772048282162045
0.020238413697643023
-0.0023324379850462127
-0.011131046802282805
0.027671164905786354
0.05494235499272616
0.05274621256642121
0.012408046126010494
0.022565402524779454
-0.018382786266127885
-0.006990553745911857
0.029757149444780206
0.02479321324863917
0.02679022372613463
-0.03404034399196048
-0.20405263448357328
-0.01555824632096425
-0.0022455676731313844
0.012368799263758452
0.01785118928708535
-0.004810494619386885
-0.001221504969793523
0.05153747947445306
-0.05776913312360447
0.025674346199285367
0.044190701506837224
-0.04257026681247598
0.00016296816490360413
-0.07996638319468337
0.009803900227070296
0.029671162723331316
0.004680288102280437
0.008743184095356538
0.035496489587312975
0.009739296248704963
-0.04148339615931851
-0.001738457134105665
-0.010650290680777684
0.015131851962357995
0.004233980723742087
0.0032610465824335004
0.008836692455551463
0.030805955122222086
0.002037817759862102
0.027289500891418076
-0.038016981028471744
-0.04828984635724913
-0.007540043113009744
0.037185607841635854
0.017101964077868806
-0.00019202480447937288
0.017448509243884906
-0.012673642385081495
-0.01438131321040987
-0.03280333148197511
-0.009447282569566692
0.03489482483499297
0.03449351766604958
0.001330114811781794
-0.007627683676495098
0.028558599707455973
0.09518564760274002
-0.019914488579777453
0.021259796573261894
0.050409483041382236
0.015490521718607026
0.0002197609404137243
-0.005083936477295257
0.017912920246046665
0.01513501864094199
-0.029916320575357428
-0.021715601973518156
-0.02439870229019808
-0.05536542794162805
-0.07852444064029389
0.025384231288502243
0.06002034858167665
0.0031423879777158006
-0.017751798858470967
0.001086177417608477
0.01043462912485559
-0.010406745967266122
-0.02291631453081159
-0.11317733775312407
-0.019265107789606134
0.019554341647623687
-0.02647291470547014
-0.030949683710639237
0.012028563718766181
-0.023610888173651225
-0.004944084325951989
0.05375212528352911
0.01670970889215219
0.031384760415079226
-0.012909296074130746
0.03615107411762433
0.046902056377247696
-0.040482422804590204
-0.022974927932323037
-0.005031580108393932
-0.010851478736553451
0.0017605206755998326
-0.019964134944064925
0.08060875900023337
0.0674586222808979
0.03902016132768455
-0.006623900563360494
0.012027044972147556
-0.001621005015084821
-0.016998353354095903
-0.020003304270799816
-0.024384095350421117
0.024797920759934457
0.03287503261347929
0.005256606762342377
-0.0003741859250685028
-0.001921556818200033
0.0030654851425331573
-0.01157494576153456
0.07485735326994217
0.01327911801738983
-0.051994499540793236
-0.013068713366170055
0.003835636664695542
-0.13861744798681022
-0.055539602107144884
0.03961981119956776
0.023756653728619855
-0.09148790514080457
-0.03205022183618011
0.056564426390707453
-0.019283885460286976
0.015208500732419696
0.001389653327536975
0.11607146948693797
-0.022816710340174344
0.04190557913607141
-0.019355954589683665
-0.0010313770073636277
-0.07506924110393756
-0.12330150802861382
0.03857132376762178
0.0035041520079710517
-0.03413196919931895
0.020631068180769995
0.03168034152406034
0.04212912346763133
-0.049579748216285045
0.07342402176799483
0.12036565283923552
-0.0680310109674901
0.039747123605898
0.04440676796925229
0.007966116308758401
-0.016527158650803155
0.045965586077936105
-0.0697927853324162
-0.17983262205411915
0.010864081545469846
0.005226160574717883
0.03391987943095884
0.013970547857104174
-0.03715957528219628
0.008628215514881406
0.19353129807088182
0.015325925855420301
-0.012963328244790354
-0.0014023847285642133
-0.05152265986382964
0.0036273607420857627
-0.019925363871525107
-0.022869138222846357
-0.05668544980206655
0.02808481837864281
-0.07328285511457606
-0.08328787822590153
0.013399766699269997
0.018180023850639743
0.0026562914191499143
0.032949750910953056
0.01124819360372886
-0.014636045443595163
-0.015853675150076654
-0.038055490791855495
-0.00794627860160972
0.13121451253647776
0.05052606902950361
0.012136025946486597
0.03458630168886931
0.0016446280586662138
-0.0247055744338539
-0.01694852740510575
-0.03876738347284268
-0.02672037217946342
-0.0058548161869319
-0.048484822228621084
-0.10838632730094172
0.10719999873971911
0.10686811223294146
-0.019789015207977816
0.015517130513531546
-0.0003846124279202135
0.13901744364699867
-0.006620208343624835
-0.04276954956491038
-0.011346873803112974
0.027578363101230196
0.012693030277318836
-0.006587453927509798
-0.050622760285920276
-0.025396326683010756
-0.036174808282681506
-0.057850471927629876
-0.034876602221847665
-0.056621367776822404
-0.018290053968503462
-0.004710891071755059
0.05467203470736713
0.023774881564730628
-0.08287383179119805
-0.006974454508817162
0.03265652042536192
-0.002978403799750909
-0.028345531311979304
-0.012331468996858837
-0.021037289195197418
0.11604960917088748
0.21603723273187075
0.02248376801380492
-0.028064518133259938
-0.012738553415218755
-0.012359549323518253
-0.035327097319172024
-0.034454095712265126
-0.023218689451670643
0.003077684661091159
0.0044956587910861216
-0.04600150192061725
-0.007701762141802123
0.0008013183300689932
-0.052889136675848984
-0.005744693743415377
-0.013333575886073878
0.06401939086922764
0.0867203105531939
-0.04621578324158092
0.0017155271646206978
-0.007945239765236783
-0.024928578458959776
-0.03567079161678185
-0.020683702725894145
-0.02018647991560047
0.003363188460854005
-0.020975357536089256
0.1061628029529683
0.08734780567844562
-0.007414403792716995
0.03111077061930471
0.0019398243241193866
-0.009455113221765505
-0.03366578563436689
0.0023963516737611724
0.0026287040081359927
0.005976061418935586
0.0012376032732932145
-0.006986729932155855
0.008471634839051162
0.06062888033695574
0.060693978154014915
0.028517417453859117
0.00885613607969071
-0.058281881394165166
-0.01931611624279048
0.012007378305728442
0.04522006126990536
-0.004819000750950039
-0.024509319828210693
0.008514788464036055
0.010282121690188998
-0.008932159027539131
-0.014127530739382133
-0.006316726132458787
-0.1316195065095669
-0.02812356863040432
0.06953274940681049
0.03945512350128657
-0.03287211656213816
-0.015316499437878033
-0.03554698817704508
-0.06443970883138476
-0.006230283450390027
0.01136536955011488
0.015443332034534497
-0.04813128200179533
-0.01314154894502356
-0.0003415394717520613
-0.004509076596725139
-0.05812754511635451
0.05729328462856337
0.06415253204052337
-0.04565643123594171
-0.017114397250215362
-0.006445815827615677
0.0332675487888951
-0.05212127243636023
-0.019265574236155807
0.004205578894818859
0.028235875299028258
0.03290318219807803
0.010455203333772306
-0.0012396379854547476
0.028609278252315188
-0.013270578185529404
-0.00044664581513235985
0.031900208229562195
0.01649269807579023
0.01807711938118308
0.023278101761301958
-0.011489777077722606
0.015200304898826388
-0.05860743038344407
-0.07883594024530945
0.007793779026271467
0.017808426495642193
0.02885579620971141
0.03832110002683252
0.019813645822398532
-0.028158514442646075
0.038214358661985214
0.005504349302998432
-0.010275251737850453
0.021107967675199336
-0.015171604777427279
0.022342958035657567
-0.014888574936594656
-0.03458554026523632
0.014107093807231392
-0.005046872896945018
-0.010889573642816631
0.03564676559706753
-0.03844342201658832
-0.07954288910027851
-0.006496246579906818
0.0005125944332812911
-0.019781941049549865
-0.012988408703550308
-0.03739620126724841
-0.008496543462713937
0.04236021422779855
-0.016194662216478823
-0.01646478986475612
-0.022917887658015643
-0.02140703721949526
0.006689783281277888
0.009661978809812169
-0.0038581270693491924
0.0038626947686192566
-0.023604796674033587
-0.006172324726864736
0.05701585458466546
0.05918691479321209
-0.0022017865925897133
0.08578738166660892
0.039865813071333064
0.0008036194930651834
-0.027980567920446155
0.009607282053367847
0.0028183740135778496
0.00807303936114511
0.043032762915839184
0.020943831061604787
-0.04142149105739199
0.0029649119917046544
-0.007361688200313436
-0.0035982261147625236
0.019436932422445596
0.010389557817754302
0.031740122198723526
-0.02945257260462027
0.011048537160643418
0.06417353994847821
-0.016393187289791757
0.0038390544888728083
0.01164703133731245
0.01607201262280948
0.032175057210850885
-0.0016664856675771983
-0.009180748583514881
-0.017833079011818097
-0.1097572767053155
0.019503986331048856
-0.0012862399787818657
0.07447844838352426
0.025671852438375973
-0.0011035946911514905
-0.0037588009032754176
0.008812258380443208
0.004815024114549506
0.013175654060880969
-0.00863582128077438
-0.1161826901962824
-0.1418241917906763
0.016501474669711687
0.06331445530656486
0.014002873827003957
0.03470132227661289
0.045750430776990855
-0.07624588906378409
-0.17169857409700603
0.03758165991231052
-0.012480330608968537
-0.039476365912942436
-0.004697669923639566
0.007767631402414267
0.009403446488900184
0.00547583917139162
0.025286863877768597
-0.011162024817785669
0.01717916050952933
0.013647714734174298
-0.003572477345601789
-0.0167982247035435
0.010839085855349232
-0.009070856328163767
0.002782325670130785
0.0281653756824184
0.03387286936081606
0.0035173769669909366
0.015940389792278874
0.07796380252188036
0.02156671751106076
0.03080275835697633
0.02703426757211662
-0.0018454823995519018
0.008209538485963255
0.003191438473070164
0.01850098931269489
-0.0031288698497455294
-0.12425914175342732
-0.017974489521435842
0.01800576578705544
-0.01749221350193136
0.04537227506264411
-0.017754345009964225
-0.06924815558859279
-0.030379632283779726
-0.03928875687197673
-0.00384133267971059
-0.025545919174606017
0.054188726702076244
-0.04006951268153959
-0.07206453989309752
-0.06014664870996897
-0.03988724444440459
-0.002643907928638526
0.03838977320782327
-0.052988140825008384
-0.016338018736300076
0.1505265235711982
0.24015828345213242
0.10958601463638086
-0.02266058694188303
-0.0292659799604608
-0.10126022449026183
-0.018434862136410993
-0.01416598802634842
-0.023950934572528122
-0.007510499475749818
0.015137575436280047
-0.0016580104703824495
-0.005051384001384111
-0.02577210733391306
-0.003989692786147311
0.036393993478546854
0.0850808419035405
-0.04047283573581285
-0.046003165774421956
-0.009633060689218329
-0.060831545427928554
-0.005001998788201768
-0.05676337835558355
0.07865177591165794
0.17407426254431949
-0.030251509712272178
-0.0002993915878696122
-0.003739128153800374
-0.06350346703814772
-0.06600655435027769
-0.00616819095040042
-0.017095274350533214
0.01498793931120744
-0.007652971713345356
0.0019709567930786143
-0.005229999878014327
-0.013821367599212092
0.028979144898876916
0.03089287046016031
0.025422473269565735
0.013188863354441862
0.10682810833033402
0.009507589152325038
-0.10470569285356386
-0.031438305146397304
0.0592797698205253
0.04314780739948665
-0.018391420487191255
0.06484023958930556
0.03773300389268809
0.04475253796713826
-0.016710465642265613
0.025750515127891047
0.022718309759667307
-0.013210513201218828
0.019586218659768173
0.02481983455860395
-0.0018014652534392957
-0.06304028440395881
-0.023890009377739056
0.05188901808644466
-0.15338384075246445
-0.061865446091187756
-0.012770980051492534
-0.0238487122095701
-0.02074398477482552
0.07766933518688895
0.006112866297516498
-0.004560460560465938
-0.027947696814557686
0.009105272417016069
-0.0006840401601260095
-0.02112154894964581
-0.07224518980857451
0.010284908178521039
0.0007810143298976079
-0.005663486905019866
-0.020971289504771586
-0.032374000391601654
-0.02079970112547618
0.045307733589248056
0.00477002612860264
-0.034081981012070446
-0.01914628840813779
0.004470659245387043
0.013375383698496007
0.029687690203511415
0.001407991574767117
-0.021643644458169062
0.0036211999699944327
0.06160630300972499
0.04086550812287708
0.026728780565158917
-0.021799559287755226
0.037646173894837924
-0.015655367770725303
-0.008138056877512944
0.0187524681940926
-0.014154064941458917
-0.03412765343849001
0.039569503650528005
0.0068562632031430315
0.006983323921407883
0.019846377747439393
-0.010212610928342523
-0.04609683095396631
-0.0018060734784479731
-0.056052883406522175
-0.07763854953299652
0.012880115700523283
0.0046621075886410035
0.08005280593473149
0.000467017586945695
0.010286079705296566
0.014074645275150463
-0.06011739701215255
0.024011075615778137
-0.025111291537573032
0.009766463988005422
0.029919564912357404
-0.03689800852847982
0.04238727782621386
0.027513460137637162
0.024107731543717877
0.012940094935174184
-0.0038866959601423917
0.0018498271273608808
-0.0005622212001048923
0.01581853350101759
0.0038243722769150646
0.037202767077603276
0.010842423038816875
0.0019365248379893828
-0.01098358702652582
0.016770885684475965
-0.017932597663705533
0.07476433773201747
-0.05809700282390153
-0.09998198918323262
0.02212116957990468
0.007031204290682087
-0.004429076230922796
0.02147123083252416
0.023222716938500913
0.00012007783135226235
-0.09735345531301531
-0.032861575693526726
0.034051603637285086
0.00637779261484834
0.015121190194764019
0.020611309256887325
-0.0786744152459312
-0.005550799534824444
-0.03147260489847711
0.005134668968065862
0.0005930699197595594
0.006572730241515429
-0.004566925311972188
0.011838014681256883
-0.008265965203703438
0.021826632923187834
0.014527146597725653
-0.0033987552620135296
-0.005706133285900048
-0.005110800335156433
-0.012925507961740136
-0.007957550320261906
-0.021557176319643233
0.025806099247904425
0.01856499067195528
0.0019545403364623465
0.10931935831665048
0.05095424355554052
-0.06753437986397502
-0.04390679348430538
0.013053512985809505
-0.004916353658618395
-0.047902678466968496
-0.007556049372620704
0.003071555937009274
-0.00884785141004989
0.015988253672427653
0.0117022219700661
