0
-0.0001575225750281296
0.006732621902570056
-0.04175556317286581
-0.0478458309325305
-0.024160733923443332
-0.052865693813854434
0.019347104220992277
0.013041342351055665
0.0007740139800247364
0.00808974693215273
0.01073029006671377
-0.01862094406369848
-0.00502968985770428
0.013960520377998619
-0.0043789081050168354
-0.0040470254876790596
-0.05919924180374676
-0.012811700230028283
-0.008514946920325558
-0.01849602365219301
-0.0004643646599798337
0.032086739391209686
0.003717656295249417
0.028721306556407467
-0.020998192451191305
0.09912480425502819
0.04735435348343989
-0.008009748217529242
0.05556472158641762
0.011471380632876385
0.00323868410600371
0.0393080567208913
0.02290253738024184
0.001674671881561762
-0.12466658484288314
-0.15227380420793502
0.10812800414246732
0.02243555961428309
0.06017070842985895
-0.05438853923601224
0.04028725939030554
0.14818830695550836
-0.008745113548757497
0.009431817342642717
-0.005906648631834332
0.015890125771491473
-0.008179089017156251
0.00010064977849010943
-0.011230872484361122
-0.03802512460308667
-0.010441824640072055
-0.032981789896660216
0.0010433339909209
-0.013146979628288445
0.0068566602168602855
0.025176269659215173
-0.001093107920457963
0.008577728595484137
-0.017831808026985287
-0.07988940986889718
0.00390934904952013
-0.01419557596966838
-0.0064792240610983915
-0.1298674155197792
-0.07785261764788273
0.0023650740801999977
0.14883988453767885
0.10455666457672148
-0.03915346719226486
0.01984257544309585
-0.011260871492167663
-0.005675788083411753
0.0010940146329536105
0.01613255966713129
-0.06887790903008965
-0.04779220003194636
-0.0014889422863721324
0.004387384474458472
-0.00307512782741802
0.06300719285118571
0.03372864434599819
0.02173509011873891
0.0074278299216322145
0.02619479869212445
0.00911067600085067
-0.0069427670435445584
-0.04371977189003978
-0.02579145407328617
0.014378471340752133
0.0007616130772517051
0.02712947650295231
-0.0020493792235562803
0.008152855696770055
-0.012817455543413757
-0.04064278483968731
-0.03745793117719088
0.0019628863326820044
-0.02557953191661145
0.011283163024294685
-0.0006420803568223677
-0.04017852255299421
0.03445850697416985
0.058467633293050915
-0.03235130361614536
-0.0016101473829142848
-0.012607321186928745
-0.0046431319021847306
-0.011198891502717806
-0.0363615125024807
0.017735669993110995
-0.007103090082809255
0.011312181273693713
0.0025482521487264396
-0.0252265074198882
-0.0258237518388828
0.0168234543609155
0.01462084373282627
-0.008829278847247215
0.01970020404955069
0.001750077011554996
0.01937775332612396
0.0648700936905628
0.036252689638253614
-0.01095853393690394
0.002869656130005824
0.03324691899656977
-0.0027175700168976993
0.0005500840385734237
-0.039373677069829825
0.000813002747400214
-0.04916854838044566
-0.04233752438398195
0.014285763675719059
-0.026577173635397112
0.026901507838564296
0.015917273772889786
-0.012674962867732877
0.018479688716456586
0.004635576208056137
0.03661901299817676
0.020815579107843905
0.020349412822556562
0.059385465352381255
0.03788568743132306
0.0009533474517683926
-0.08672875154008648
-0.02964732723588215
0.013835691221555202
0.032167127523999244
0.0025390181407795027
-0.0049202772796153454
0.048694938264768485
0.036402409399864305
-0.02253700967349317
-0.06683445535883148
0.018851423252885934
0.005086409772420837
-0.0006001674945829239
-0.030435763825146754
-0.009578308667908207
-0.006639726267675638
0.00889374632350765
0.014650465972917462
0.047404393825365175
-0.02696026867481699
-0.022266184976419936
0.009966003940945772
0.0006432533352131188
0.027198205906990215
-0.06286321267035813
-0.15400440420969128
0.00148154877655628
-0.033318345726768235
0.05400700427657366
0.029572251311670336
0.024015561828365155
0.021063740673661385
0.015021583677940667
-0.027567697190036773
-0.016190318405583107
4.803881098793715e-06
0.043572936511280386
0.005526041767552262
0.048069591930338926
-0.008251016480910476
-0.06734251717757817
-0.011955941779054593
0.03776368770356317
0.057397824591426234
-0.039279622634655224
0.008380013183936129
0.034317937663781835
-0.04939751378282703
-0.1400828721322416
0.030944048378432773
0.0641318848193796
-0.01030807798303189
0.016127240080463724
0.0002667176225382484
-0.03013734389321654
0.05926066723019544
0.02177068669565135
-0.001965628855233403
-0.008565484048585908
-0.01092329354030079
-0.025528906791484826
-0.019415811898613064
0.04858148273910594
0.0321669138106936
0.008044537999254293
0.022557203746816266
0.03853437068661289
-0.004969682174253236
-0.025003365165659493
-0.022850294335946264
-0.08745505581147958
-0.0332953968761893
0.009752824154692035
-0.04180212569549402
-0.009556326724420142
0.0367428155305387
-0.017954703300423043
0.011885359972248885
-0.017251143944270488
0.04578167896950425
-0.08246555594803291
0.11555051031597424
0.02874222316640681
-0.03099490159905837
0.0535948429928603
-0.001920238477133875
-0.0016435439537228812
-0.05966733090488678
-0.07148252282460853
0.00530207020488684
0.05126128609034064
0.010133239765475057
0.039862810242188164
0.041463491773854576
0.019510567473863323
0.003806191978875925
0.020556170034861758
0.05522867782174839
-0.08907841834026534
-0.031433683125854546
-0.0062634082811188815
-0.04800993046955793
0.01350201898295028
-0.010469339778563983
0.0024277633589605127
-0.03844978021715364
0.03852854699995898
-0.007035840871515855
-0.021313240752468873
-0.030873023169836585
-0.0022218792204516387
0.015704717060146835
-0.016813861952317988
-0.010944848008521411
-0.016733771273938616
0.0004725699992099451
0.010859223530573689
-0.02960976033575055
0.008683340800408168
0.1129272045946399
0.020986284010232645
0.0049204570587265805
-0.0058269040179162734
-0.004089588032990568
0.00039009558043077313
0.025277398618472023
0.030852891697484397
-0.035982121294567994
0.03200717473924347
-0.004797825366103443
-0.0063069508444825
-0.06420721624570501
0.16311368685035055
0.05826510436410488
-0.014599197435516728
-0.02243661380155548
-0.028081174466953508
0.0025038340862806657
-0.00840750380612845
-0.020448478501080006
-0.01140314755219001
-0.05359665245623338
-0.08038605977324259
0.038812924208668345
-0.015885620906078878
0.001675138793957662
-0.013393981857542196
-0.012714684668768819
-0.039373616247757745
-0.010632514567709563
-0.01364684674212058
0.011327355053103966
0.016005274341366064
-0.03506201410198827
0.0033816400857419452
0.011117861387053904
-0.009270540110798654
0.001040710581086083
0.028861053838446296
-0.024194525397493057
0.020971649287079452
-0.02489764696453876
-0.05272127540041797
-0.009961197408433884
0.09561786290534784
0.07057882928753799
0.014060328922591273
-0.0004978817877882575
-0.03003953002107133
-0.008619006879163666
0.005884526923846615
-0.0054997336362679825
-0.03574854846904238
-0.007099789622021469
-0.01196438244800244
-0.026721097436821502
-0.04857706711392789
0.050519748952528136
0.00799621338835807
0.010988914259311745
-0.02113295738268882
-0.05868547559096251
-0.03100435459886077
0.04065128237745356
0.059317115276802945
0.13375128364735808
0.0793669958240749
-0.040948303171054315
0.047066035678173156
-0.004890865895832598
-0.015416914858478934
0.021485769447736246
0.06081900874209054
0.027184197430023045
0.034366063309794095
-0.0035824773952170172
0.017600360266627653
-0.014636650607026895
-0.013549333494094071
0.0104711180222064
-0.016820847981626752
0.0036576291029151524
-0.025021107306012844
-0.027284150172738723
-0.011069876326702593
-0.07341239093459585
-0.030084385467923396
-0.0032788441826197843
-0.03731593092330932
-0.0237334375619263
-0.011306331953407469
0.01815911519997835
-0.007969234447508277
-0.028755346269791687
-0.010471504026570879
-0.013757216810753557
-0.01238571849696987
0.013574685715218412
-0.030805115572499916
0.03164781898514586
0.035279263645229375
0.0027840928149742454
-0.00032350329182451377
-0.009239093311142301
-0.02095970865307363
-0.05685834668758868
-0.09388529612387178
0.09653759335418408
0.08461673643687255
-0.05151635005045478
0.010439388812252568
-0.025928198404657845
0.014707508407648088
-0.011970379934741017
-0.006433996039728594
-0.008859537846626533
-0.01114060951888985
0.0004884105013387357
-0.024081777974650005
-0.015598909377031591
0.03813905014097543
-0.009153289817407541
0.05809182098051284
0.014385222586013005
-0.019921878024451545
-0.0292342439133231
-0.003936938164489418
0.030515542443310475
0.04903644447469707
0.0003034207514946523
-0.012600800645463915
0.03329144128143179
-0.007332362997745476
0.0015370825409081275
-0.02092852150986233
-0.03588594524373048
-0.01366069468089732
-0.005971337826565507
0.0035500063914808574
-0.05285382442009909
0.01316286222037901
-0.007472050443078748
-0.0072378848744098796
-0.0340079171832061
0.06955507948100734
0.04879029950277698
0.023365315643246905
0.008990492330722919
-0.009417940241437078
0.0445783821773957
0.01681851839847431
-0.011264886509710763
0.05097409870546827
0.00018909556785760162
-0.0005917203163105781
0.08418224224941323
0.04583114317534455
-0.06109479161907608
-0.06807390397235394
-0.02279104948726434
0.004989496671945649
0.06265505661050688
-0.03973767799906211
0.00453083830287296
-0.02880629658868842
-0.011815995382627172
0.02658044638924477
0.05689249919478944
0.05287546942507508
0.0031403495364439485
-0.02244176322092732
-0.09662809403833605
-0.002338105748460666
-0.025051074684266008
0.01473818193894836
0.019595999478335527
-0.0711892751880767
0.0011258825733459845
-0.005804426741422794
-0.02802730663846441
-0.02617735841292633
0.012496638011556784
0.0030098744669444285
-0.00979275032788408
0.003633645615740277
0.02139899561975435
-0.0291934082728022
-0.06890501056681692
-0.08294814379744145
0.041371739521466236
-0.012657111069394416
-0.07921546565417881
0.026808887636805695
-0.01115710486937699
0.006724212845101091
-0.001962507426962008
0.16897812787951677
0.07751988727854887
-0.08558149210136898
0.050960448320306447
0.04171854662793785
-0.0007010063548571867
-0.034197820751538606
-0.004313002010589512
-0.009260698376519045
0.013369120306070296
0.026091652175996426
0.02449952165360799
0.004358069577363779
0.0004005325177879417
-0.001749328267252702
-0.004605408694313701
-0.035196126126396596
-0.043982257027282964
-0.010521248325104876
0.03321814235255433
0.011743153043824624
-0.08613971646458352
-0.05036790471470254
0.07128234714588756
0.09699363946174087
-0.033204855161286455
-0.00946880616112212
0.04187716690760465
0.0257629530051892
-0.004515123900082022
0.03844474761397439
0.02145761860970953
-0.0351762449980386
0.00822078290953837
0.03700619985721326
-0.009139001698530378
0.00803414690215448
0.005471130119416873
0.005015056084914875
0.013447334302504763
-0.02380005449000991
-0.061216899684104015
0.018625478602603728
0.03236674505563917
-0.0031755862794728557
0.017919790238766862
0.03434789327662034
0.0035263766149493878
0.027476549638466536
0.003292748619669533
-0.048493072793338636
-0.04201000998828439
0.0304987142414073
-0.0892524630627042
-0.18026190199725897
0.022963204874758978
-0.01332229094429588
-0.11412023207718429
-0.0010920127569324616
0.0524285267881362
0.012451115145310715
0.023800654658084903
-0.035917560320915864
0.04006886056801201
0.024177294458568734
0.0023809588727849475
0.007933741098323696
0.0011902476010267583
-0.00375008003870173
0.13394256588481482
-0.011735576075903384
-0.045523236387255306
0.026824683723050996
-0.01609916298081034
-0.007421085924549393
-0.027885541160883966
-0.025752842300407672
0.06778191512248492
0.012850093440311565
0.00296199032323123
-0.02249818200033937
0.008227515619551526
0.011218271024706046
-0.01074947988100718
0.00021852062419530958
-0.018926556686471478
0.011822616875476488
0.0027589717742725443
0.01954861575532495
0.032162626213729256
-0.00950967781581976
0.033794963065839845
-0.0028806911156680835
0.003967795748705726
-0.04104395816200227
-0.004597911349177405
-0.012928275023110355
0.022663521454753387
0.039885856289468155
-0.025852979462320066
0.0036775862238323837
-0.019176405585259106
-0.024800842052644448
-0.009279127275771702
0.0840258880994438
0.03044986483299818
-0.02047285360595024
-0.012426858275459642
0.012447218912069027
0.02122037790673953
0.03724540988799517
-0.05789598251126899
0.04372991336719417
0.06253150624724416
-0.15340520170308464
-0.03910079721140323
-0.04034323638665878
0.07749995633882995
-0.035322592176533926
-0.03848973339185479
0.047841370072278365
0.035542613202380245
0.01347838868677889
0.00963075493826243
-0.03608008103554203
-0.02945748382372768
-0.01610881989426606
0.045078059601275054
-0.02867576266469375
0.0021692207621303882
-0.02487728383166251
-0.023957443766744514
-0.0342634576261688
-0.00591291811692705
0.007062658327181314
0.0328274675049805
0.010319414548215732
-0.008167042620865926
0.020716022559453248
-0.022810368089019605
0.05219619590460869
0.007778810574272074
-0.051579493664026706
-0.022065369190765596
-0.017932789305109272
-0.009185106256044542
0.025491889896452926
0.03596063764909224
-0.011253909286631966
0.008650314396119884
-0.00037553720404868735
0.07863710097130229
0.02422965549528146
-0.044081800617385695
-0.01222294892082542
-0.015214614105873624
-0.017849530439334203
-0.008709444275846676
0.11384458571760887
0.04926203919777293
-0.04966250042999612
0.04028517980752299
-0.009810957672618734
-0.012725891453431256
-0.04240041293378158
-0.015938422946000876
-0.006686843468700393
-0.015729912037325742
-0.005987057267755455
0.001448220877427973
-0.00891861632346414
-0.0021701493628406587
-0.02304591842419714
-0.0019358910080108508
-0.019738056183834306
0.03983872428173889
0.007078217199747994
-0.013230775876159583
0.016631164762133804
0.06290925014849102
-0.10160195456885232
-0.016083075283984907
0.0009417898144704612
0.025092513029719345
0.03163596348400196
0.06640836491619183
0.029365967268211647
0.0076911396238251
-0.03923133221444789
-0.049350778104581786
-0.0322087876943976
0.0022710660565066747
-0.006899834213150555
0.008934294811320924
0.017034837333724445
-0.020391018600091074
-0.04162781065554144
-0.07070672994395749
0.016951414146877303
0.023661938060113945
-0.013123034668380185
0.018042666225082656
-0.01795429816371948
0.07368717567675878
0.046155964914049996
-0.1011967428724061
0.1135565860241557
-0.012529389869114138
-0.01541256089386736
0.0674865100748666
0.010886366162829222
-0.0593314385495578
0.005553437479623999
0.019512539728540244
-0.023724055706994287
-0.038027014171628
-0.004095523373699497
0.07551651750693772
-0.013467752714803436
-0.049995229137530905
-0.07588674977047018
0.006443747214328668
0.06940168370432294
-0.006016324215070154
-0.00018268435144883205
0.004376421370344939
-0.00567936177526605
0.02742731938679326
-0.005464171538352702
0.018244445697282306
0.01555553560732771
0.013570068075539047
0.0022331018658590697
-0.06495284829388441
-0.14083930614962475
0.01864458453011353
-0.00206738245573132
0.024095660812532033
0.023775609309415937
-0.0245073932552957
-0.02831424072384415
0.018399850662052485
-0.01610519215316018
0.06973618236080234
0.0522661683724272
-0.026762897205449433
0.044462783394826094
0.043347896263878895
0.04676347576665321
-0.017151244882871435
-0.0012582019725867644
0.029352221644063887
-0.04213158755127871
-0.017380896372193606
-0.01032409097007038
0.0063232450768357755
-0.04445716579988321
-0.05587996315990596
0.008923140829243292
0.01596849508453186
0.0412384362084874
0.007874286993508409
-0.028838447978532567
0.007744720565581967
-0.01927706869590265
-0.018018577036565692
-0.021128029305294952
-0.019548054652328686
0.01768079812178311
0.030740989116723523
-0.020286192606042787
0.04698116063788858
0.04298882467508968
0.045088538348391084
0.0013782367264973123
0.00018982124820038473
0.0011523823961923623
-0.03981210953613543
-0.06677716432893557
-0.012385314793115
0.025661467049735025
-0.003083715537298064
0.03520705308822458
0.025567043088978777
-0.054126228225591176
-0.01612122884677256
0.04126069325656045
0.03729965968515763
0.04775325206893043
0.02769421754195237
-0.025811456877810213
-0.01266325239768962
-0.012315372428614465
-0.009809195555857929
-0.08422091844925733
-0.04100127019535175
-0.0040487954969497305
0.000900049035796865
-0.0030057123188429132
-0.008141436243667149
0.0022840719774914636
-0.015047629985792932
-0.00025181391469534956
0.010323673648925821
-0.0170704715076146
-0.013509342620565466
0.010846315194627223
0.03201572484274771
0.009385427303116742
-0.0154741154324536
0.002103744056953657
0.02349312334284977
-0.010257053885413632
0.0061423450849446525
0.009403000536060673
-0.037109315571278806
0.01886447634404135
0.020392565269707383
-0.008760975280748836
-0.004861183980485394
-0.028221053601859235
0.01683918252213311
0.03952623811765599
0.02458975371713453
0.009800812939114932
-0.014360522838677265
0.012614729068434031
0.004448699117792036
0.004790588578917232
0.03499364189988399
0.04994280782929559
-0.027435581093551074
-0.05353883590246634
-0.008354987153066418
-0.0022421205459056755
-0.00569361773318572
-0.0021400888700399854
0.0008731738923195728
-0.00031841956724689086
-0.015800792448347492
-0.00487188436759722
0.015298126413867736
0.02741198477795643
0.036659616956950164
-0.0029036529080138777
-0.005038343678062761
-0.045139386837621864
-0.006007402799603303
-0.015469927170306657
-0.003246542504213558
-0.015361185709710993
-0.0028587831362802277
-0.02952613234280914
0.01675712611394879
-0.02838055111270014
-0.013679620433995973
0.05630686639342624
0.01307588354070577
-0.05078641629735691
-0.005337107386421005
0.010730624569380504
0.0164714655962742
-0.032304731665641614
-0.035497613675082695
-0.004655843445097885
-0.02746082316544894
0.017675366928333033
-0.004482089511008346
0.04209122780322366
0.0348476055043218
0.005560740576208949
0.030835709407106185
0.009384648953721273
-0.004569954410221293
-0.009644230024309173
-0.027787859907179135
0.0013785403219101144
0.02863861301443938
0.014416350540504753
0.07587798795643724
0.0076771520624251315
0.020994436366987508
-0.001652176965702734
-0.022740088696489656
-0.10328097570129277
-0.03166512680506919
-0.04800165611672757
0.057590141355661095
0.08766931032198624
0.009127964757057756
0.027322137216972575
-0.029346415039145233
-0.06342275632113867
0.043047935532864325
-0.027584038293249243
-0.013876420399577042
-0.022748593367614044
-0.01050424112016498
-0.029320177893411264
-0.0384063612465654
-0.053873503386223404
0.04195912356586341
0.06842231353878218
0.028943459183062313
-0.028652628424727367
0.04051168952999494
-0.010829806626511207
0.10866445258786828
0.04420686074986118
-0.045950585950428405
-0.023705876398903026
-0.04768783864579383
-0.03401569518306175
-0.005700808243077715
0.025378939961493766
0.002981847297941428
-0.00512407763982609
0.03406598028994805
0.04356420235811633
0.001179245020504083
0.04825711297166968
0.02913084210708033
0.005918170183279348
-0.014070133869777478
-0.011966325506816282
-0.02664762609672968
-0.031408794213804755
-0.00434054327234518
0.01959010192124862
-0.024299717259293578
-0.02291311220633008
-0.0024481608093304057
-0.01854530715557842
0.036675673559666985
-0.01614389873841783
-0.034728948357847955
-0.03594195510439175
-0.0002340413384458155
-0.014147227894004062
0.008650480610992073
0.015978380230639997
-0.009345037476204849
0.008952757291157373
-0.046517588963630445
-0.005466268812693283
0.007872756751872897
-0.005486142254763301
0.00011059387543303142
0.06630287152898653
-0.012006350902840801
0.047966671203052876
-0.07122236628867644
-0.02738915253949324
0.006808489243261188
-0.0124195096251694
0.004645960486799624
-0.005107176690452812
-0.02171602860085258
-0.029342441888739627
-0.020556148633978692
0.017164857422867195
-0.05547815446132458
-0.04488437408937519
-0.011324049243108125
0.1351415331812638
0.057111904616604474
0.0690510537884679
0.05876100093415666
-0.017525187637475882
-0.04226785569291916
-0.03338700118445793
0.031452429911236604
-0.02708871727691539
-0.009749184836309781
-0.023978789321548566
0.017629293089661942
-0.003494249925694098
0.028444357473424275
0.03393192840864424
0.026557094598376067
-0.03607869459966604
0.04708219101779984
-0.00950110800872844
-0.022908615825715895
-0.025563008557129452
0.02967092478448718
0.006300894203447805
-0.005757347731100974
-0.00023834130723512573
-0.005304083171123487
-0.026314158025489025
0.024484042106810235
-0.020983138760299964
-0.003671153185623482
-0.03312650755104629
-0.034644461270660516
0.03674610509151256
0.03391387828537397
-0.016607986730187783
0.01075616583724782
-0.028077249390647818
0.023009255035529468
-0.019669655121239308
0.0005565802172033006
-0.005695066365496681
0.001158442196437659
-0.014076462071369589
-0.00750120449405408
-0.014523142279041843
-0.007311678482839975
0.004074426181458315
0.03357561993977384
-0.03781317389884613
0.02356677010010634
0.00847486401996838
-0.04486057016097205
0.00793258035706752
0.04954623909908931
-0.0005753601800695539
-0.005155146720678212
-0.02434715544457299
0.09947548058741482
0.14230559712049456
-0.02251181671708938
-0.012584167883826032
-0.026347877711688224
0.01121364678312516
-0.007959522792334084
0.01738222615093703
-0.009296327042741867
-0.0057702159253969635
-0.01518496937056014
-0.023163104013433737
0.010959736819218403
0.00969352567938151
-0.0036964938845117606
-0.04268390882071859
-0.051797394201627184
-0.022805516798442768
-0.007261615682241493
0.004230192393008415
-0.006454590035321262
0.009835399373605433
0.07849789601440112
-0.006811751284416468
0.02391893430332394
-0.034951085605441
-0.04256287880981961
-0.0430408435092801
-0.064748395127066
0.02849954535235889
0.005603921625414524
0.014993051019709117
-0.0008479884055252304
-0.01286569041588397
-0.02868419617838258
0.017794409647543055
-0.002905048979293996
0.002136165084560477
-0.00858879159995091
-0.016589777634535292
-0.06869612606214666
0.002781775929076453
0.01701288057783022
0.02871578669392591
-0.012374910714197678
-0.03424496482136384
0.030561290850172913
0.007165914230390337
-0.035844980615861756
0.007860821599602708
0.01990057446674811
0.030712035554637203
0.02342990729435488
0.022280509979727733
0.0021127377984688517
-0.013773073185963249
0.00478153530861193
0.0543382213878322
-0.0003855137250306226
-0.003423867530879889
-0.018362910739863455
-0.010591467494482107
0.011191518231968997
0.03384761915482211
-0.013828931364758216
-0.0003434122441430996
0.023368305584599
-0.011205465002126639
-0.0019355082748646827
-0.07960977143976578
-0.03989109011918492
0.1638328072087858
0.02645191103880821
-0.03788725274153343
0.04486664219590189
0.05046498970796192
-0.013264272002155197
-0.018046543252558802
-0.015360778339755582
-0.02021793517452223
-0.015258333967152942
0.03485208805825273
-0.004773719223075921
-0.032108285042362704
-0.029254354743576325
-0.01484154704782899
-0.0022235333197714847
-0.020296475862317923
0.004297381645450406
-0.006091228749690284
0.031214364236413248
-0.002172449618826597
-0.033155679961025974
0.002070721094422783
0.0029142161925844175
-0.0175206535182299
-0.03997744059968866
-0.09673978449370103
-0.035283978722360235
0.1129022323208667
0.06432573985731294
0.0069178678904106864
0.021798365577038827
0.024894316227634612
-0.005560695988107589
0.02588777910521152
-0.0009962682049657224
-0.016705513267831817
-0.0011597527257328343
-0.02215558742933934
0.004130511958274759
0.01658173173148144
0.007149829809106581
0.0032943716070729335
-0.021749345614507747
-0.02417148733116571
0.042035396480276876
0.00983959654496412
0.004468593502653326
-0.023903113092124933
0.003222966805358441
0.02400280466122141
0.0611692865761776
-0.00398755256415058
-0.014867163541520003
-0.08121874226516654
-0.03385321555760681
-0.029538259336232595
-0.015488961544041084
-0.02502873423010772
0.00554429191326323
-0.01282048446798952
0.014305509318741893
0.05835559227264455
-0.014985086326522862
0.001719685645059911
0.09987678140026929
-0.07412518003016583
-0.14630265836383655
0.04761881134791499
0.012465917251510599
-0.0688797065830597
0.07745191900298094
0.13212133110905952
-0.006155473343050901
0.03529237101568756
0.013401041803692657
0.0196791794732785
-0.0013756867105462413
-0.016402121626695923
-0.036715999776356055
-0.0041910134088604355
0.04153757494082606
0.043425297705354596
-0.024976176011585867
-0.001742154406749098
0.006512964024512617
-0.006581740272858994
-0.0003747169644986127
0.00881831828103954
-0.02606048324160723
0.03358336248693617
-0.08475359948660144
-0.10731301182561274
0.07199253831117237
0.030643250058178927
0.05814833314977044
-0.12444880209726494
-0.05320700980957512
0.07368759896005098
-0.0007696515666934254
0.0007318459715757897
-0.0023475303023226825
-0.0015022590438281325
0.009813066741650785
0.023088890272819525
0.002811223433192415
-0.02395627693174464
-0.013367937097927957
-0.039926085112203434
-0.03062580227805203
0.007142398719511693
-0.026886567936872795
0.01068279777774212
-0.005993855137831571
0.004704537719627242
0.01753480136203637
0.007863077627628227
0.010372700591342012
0.1669558692831071
-0.02649952238957785
-0.03238989967702232
-0.05323307227791272
-0.06466656962371627
0.035306147055278445
0.043079348945507995
0.010716233584278485
-0.012156610142727772
0.009911612637718281
-0.02247586261000404
-0.028513843071161775
0.011867642550260488
-0.043169280557517335
0.03783430933541768
0.0043643396826451245
-0.04440330827432268
-0.007197620123259621
-0.01045891694882118
0.013414908993754863
-0.014724681445827767
0.05901587588759995
-0.010382650927365933
0.002949367778848225
0.03104698475598654
0.007038266283332447
-0.022540917838922207
-0.011912686017841434
-0.04920723343289594
0.03125619352762379
0.05384220352929064
0.09346447173104495
0.12777438542397077
0.011967299361227847
-0.03141135109180552
-0.02824057607533429
0.001114101139973493
-0.05264890222991955
-0.0299458152508242
1.612828833856327e-05
0.06077981858741477
-0.04767959042565493
0.014340203859365604
-0.004407952268856968
-0.025429100395964792
-0.03825651330747271
-0.009756259249644244
-0.027621251280494193
-0.003427603400619232
-0.05815659944521736
-0.006076302598131472
-0.011476166927901165
0.030190385251856255
0.04452928494322181
-0.004744865921872648
-0.01055328291236557
-0.014207485758137363
-0.022409546232606003
0.0024331812836123614
-0.020992735373888013
-0.007895456331734392
0.0028258041844071605
-0.012795935808095075
-0.029249359186264565
0.019517225987881297
-0.02269528290828662
0.04237767762297012
0.11355760641963163
-0.0331430416836726
0.009566345884598607
-0.028999503603199053
-0.0065249003041597045
-0.013453630902176562
0.002868293810558945
0.014326255558311813
0.018747704495522276
0.0030748026306603596
-0.05907990912605376
-0.0005937194837680247
0.03711753363510076
0.005077171076719988
0.014572180347230344
-0.03556277002658726
-0.02747182791619732
-0.0021104492943092965
0.0850057960703983
0.01077624307037507
-0.0402524823235327
-0.029000176914251188
0.03229550662664909
0.01908597694272162
-0.01423895966982952
-0.01738674076611628
0.07265284230722925
0.08147532962524388
-0.006867565540138258
-0.011987425562248764
0.02392057649148984
0.03596995777503121
0.011206505237867277
-0.14936862604457068
-0.05879555319121504
0.07808643302902275
-0.01994417755867248
-0.027301100923597305
-0.02230755184145873
-0.00430992088254527
-0.048282494280593335
-0.10562745233396419
0.011823277124248365
0.007050721585433236
-0.03645801944063904
-0.02884027314852792
-0.006680544917194868
0.022680048071388022
0.001015098925463812
0.03250175379710446
0.02921350548030066
0.03538666624393561
0.14926847245181168
0.05935054406667918
-0.014155308089161187
-0.011904709700533932
0.052760455688249865
0.12927226911972697
0.013712590439075993
0.003858088215747861
0.008308779623782691
0.016373170099360818
0.0014535596140487481
0.008307455383182526
-0.0682313806594238
-0.11361993141110292
0.011547952016897801
-0.009830911909457798
-0.012720060021091622
-0.057549152451245755
-0.0109830781266312
-0.1552366555447301
-0.1638140954947033
0.042685573201177544
-0.055685627260451204
-0.09777065680617601
0.005591352201870257
0.0170956047281843
0.11215855830364321
0.15767236686765637
-0.04892319023210122
0.008424463903416836
0.013245618179051536
0.010540039460349858
0.002303689737121351
0.01530534788314509
-0.039491178913208386
0.007974714574738835
-0.03158872860406644
-0.04320588271198582
-0.0025257598067552726
0.04239590988378636
0.006260821354366878
-0.056427677862367256
0.07591188860934883
0.12281348192575502
-0.046825076350298124
0.043062922332114555
0.0658185353715427
0.0021757877345954476
-0.020287552531684273
0.04804373380373477
0.009153408005638833
0.000674725441557588
-0.034095742233299225
0.03406704862344377
0.03537536489215978
-0.029550961605916574
-0.004808112354855846
-0.08927848329796693
-0.020594273051311205
-0.015154968136468045
-0.016652270269425385
0.04876098179374651
0.036621035833836024
-0.010972861313989288
-0.015196659540475974
0.022357810743770988
0.04918084140293515
0.002507543502921314
0.00530746151320805
-0.023316812455238103
-0.007901907336350177
-0.011402885091872064
-0.047132658704747366
-0.015549447093442153
0.02220332079957301
0.023735679461171343
-0.010173218016666001
-0.03112464376636887
-0.03402559050815617
-0.039367322338618095
-0.0017067688262266947
0.043340329238334536
0.040874609982530806
-0.04232852799650753
0.018002431094659842
0.047485336896688185
-0.020036656516337525
-0.0005165455580730993
-0.012937114606450474
0.026678329010621313
0.18177497052686978
0.051409313840206895
-0.04196931322572201
0.0016078666122752053
0.029079923762758197
-0.0003833236898236121
-0.014861029593890844
-0.030616771022794028
-0.007639194500957465
-0.1519200472825494
-0.12146978155999799
0.0044534649518811415
0.04173499271549213
-0.029204206163930546
-0.003239728291323974
0.008712698670422753
0.013327261236934519
0.002476847731870462
-0.023615739917009503
-0.0054361021733145476
-0.039510871075140015
-0.0033460085647654104
-0.023906429433444416
-0.01498611729976929
0.02180873256895926
0.02689077421556571
-0.002124337008348014
0.005765825584125097
0.01662085984881693
-0.015386166951527443
-0.00543516558329219
0.0015973214850023845
-0.0009339654968776682
-0.05313529924545965
0.020890931793106277
0.08562891130892396
-0.005406326924649472
0.016589522049740076
0.001090423685704472
-0.008110335030041618
-0.00036714573879145595
0.011248070929949366
0.08529157300433457
-0.029003089686487092
0.022054259433145425
0.009270652784989149
0.01437536711246075
0.04128913296624255
-0.028237050207724046
0.01249777729427711
0.019587908305418875
0.01635418957225377
-0.020055541072213703
-0.01617139115703454
0.027898650914983246
-0.030995611737223455
-0.017062925017095557
-0.0007157621269941905
0.00503748932398122
-0.00010192244762560163
-0.031920509253562636
-0.1095799363194753
-0.03044774317652672
-0.024121311172844766
-0.011232233685967985
0.01074202022254315
0.006333863027888476
0.028712519400877122
-0.00798690421271236
0.014426459515061092
-0.012957023372108951
0.03180171144355554
0.02964775332373123
0.013154262920662347
0.02418328287914217
-0.03949947058083823
0.019662967711660935
0.028053030564930127
0.024396883074483986
0.03001642087933058
-0.009088361734039072
-0.007579655231214059
0.035177570564853454
0.03589737075130133
0.05731885241505658
0.023807398751246253
-0.007030396497106366
-0.13358204256563877
-0.13547048488802949
0.010177536840324934
-0.037518479947844005
-0.01677286978539491
-0.044135785166865504
0.002984371488358692
0.00041403787741912403
0.011174010460613523
0.020854766877910925
0.054781873103893854
-0.025803880769675876
0.07604493423722966
0.04930040674319337
0.012984775664853163
-0.08989807071210455
-0.12399775276170602
0.01332882589422443
-0.03366988037195317
0.009153155036396927
0.011425899892103148
-0.01011490552500629
0.020743637039983893
0.06014520364671073
0.07018256837701929
-0.0029761094736635743
-0.0010720509392248801
-0.023699531856224188
0.04789337888181364
0.029914156006711348
0.01875635249394362
0.017949814537404577
0.002852424575042392
