0
-0.0029649023113717823
-0.028349654382818574
0.0004787743505380472
0.02085304665436056
-0.023849160706414695
-0.02240215932997022
0.004802052312034577
-0.016997804398217457
-0.007334281406231891
-0.0019525488220510942
-0.06420186468601062
0.026033590531693275
0.017615578233079694
0.012154701961449953
-0.01160401774110877
-0.013665554865863919
0.011047695548778005
-0.007232442200314275
-0.0022853866558566046
-0.012512032109775834
-0.024842225080361362
0.004545096406665471
-0.0484206118884413
-0.04021882817653199
-0.014282682931113858
-0.008583780327355283
0.027910715380345275
-0.009968137911414106
-0.014060586156533257
0.0173396205333475
-0.010486257262693553
-0.005806609004555208
0.002935937797541589
0.0026227716408483287
-0.03346885775885319
-0.00663257122533265
-0.02948682354724826
-0.004646381462355712
0.04181885366949825
0.04362144904674274
0.03697114925460876
0.006582772410642654
-0.0048212971755409
0.01648786783993215
-0.012768415239724927
-0.004540018826250308
-0.03813328927967952
-0.016988175894718464
0.025357584282232802
-0.028257935474814283
0.024368420222674478
0.047187751079205364
0.026579439598913124
0.0074109526103445155
0.014312871930099802
-0.004620163366090894
0.04168115857012491
-0.005061593269996419
0.009065279975809984
0.04223062989199783
0.034335063171284916
-0.03459757605325554
0.00045632476897703177
-0.0014475354114340598
0.022492416932728222
0.009173987232790767
0.12771683230879738
-0.033174169019145376
-0.07163813171414318
0.008335288972365936
-0.045023649790180795
-0.07998516517743666
-0.029919237847443592
0.003920203770170448
-0.0006144259723938122
0.0294441703911752
0.047626950467743484
0.004921813151241457
0.03130311711056485
-0.024907801029458308
0.011592462877605961
0.000614923903426404
0.005026600988797318
0.016157680919101743
-0.00803808862025555
-0.018042791678391557
0.002731856080855481
0.009674612354746898
-0.0025722192475302547
0.014500040013799466
-0.006942119139972171
-0.006048780489647075
-0.09084808864215858
0.03875839022700538
-0.006837515119198641
-0.012829434322946379
-0.031099747418666536
-0.0511654834518203
0.011101898509358058
0.05917952066528995
-0.007869173191577716
-0.033936797844840015
0.008779825507429362
0.004899961418874071
0.011533570383046978
-0.0006581273105827928
-0.00746433531765869
-0.013591439624409209
0.005515505183717033
-0.023753655689804823
0.02798598937930069
-0.08459820396526375
-0.11236508643778623
-0.09886782618104026
0.07466622070062807
0.07564593418663351
-0.03246356756917346
0.054598743703678634
0.008632138494466495
0.017538562159458527
0.023560041866790005
0.004222953188089789
0.004032031562786136
0.032536773952224714
0.01977973614895252
-0.0026361234101289245
-0.005998604968702995
-0.049666377134230555
-0.04184364443627444
-0.007553642822871177
-0.01679571858389001
0.012890117938859141
-0.003831051681948675
0.02502505994668453
0.15387271081784398
-0.019901713815647724
0.03778646101455325
0.09086479724823907
-0.008421888845988542
-0.014394518120019998
-0.0807119052250963
-0.019049329458326904
0.0015633130830238601
0.002645353853372982
-0.021204041637108373
0.01348314041677493
-0.030044258550385592
0.03013109136550348
0.059268028296316284
0.011423823355637809
-0.013383863507596329
-0.013454549603926292
-0.020272183009998612
-0.003427589078233613
-0.0013835331017043706
-0.0028932454832861177
0.0009595785669943058
-0.0024705217904243243
0.010842204203869095
0.006781550638598066
-0.01871477469342278
-0.0066334719338961385
0.010465187847522088
-0.027809245781645082
-0.008902732251386143
-0.0042459298477134635
-0.002415168467616181
-0.005645824540121759
0.006105162364598062
-0.021042248325678047
0.0038645185077067815
-0.02789732066801937
-0.01711988459134973
0.02117783845849458
0.04608400700746501
0.02342583237410729
0.01645420757772004
-0.020785230953570166
-0.005884006324356412
0.01227714594113075
0.0406682185772595
-0.009489700758443914
0.00914909552063696
0.011764897353517944
-0.09018789933423738
-0.011455277570767725
0.011925626296627
0.035575986134174266
0.01162852002753495
-0.02177468766862447
-0.004519437590855462
-0.03305552306473496
-0.04987569112105067
0.023759082199923547
0.008808403332064051
0.01547295356869522
0.034644619776310275
-0.029056008920420755
-0.003157522493726493
-0.013427594876770664
0.006598276573235345
0.020331973834979093
0.013190483587769301
0.0008244862639683434
0.024149320860237307
-0.0017331651696061664
0.07802572269371039
-0.028377528725385927
-0.03416345398612811
0.08415761421306794
-0.008780699668553146
-0.0265261819258675
-0.02606382767965199
0.004466569484100854
0.010193773304100245
-0.018929077758812918
-0.023235602070039215
-0.015430019806813435
-0.018356502630417156
0.029189912249879574
-0.011435915180639324
0.012945063494132214
0.014286078672487927
-0.011809769276148274
-0.02495446631611067
0.013642928412681034
0.020404891906003392
-0.021062487661876666
0.0032130158906794326
-0.00871245501651603
-0.09351467151525325
0.016222222641991375
0.026843714023586793
-0.0019021023704388124
0.0015381321782907773
0.010284853404662023
-0.01244001922502987
-0.01707846119342705
-0.011893061363560699
-0.003881268765824186
0.0870878395623451
-0.003456413933355676
-0.016515695685650346
0.02841868042077922
-0.005696644648813044
-0.014136914121921935
-0.026841416701399716
-0.02448139887262517
0.00174956063563225
0.007297521779658472
0.006978940632776823
0.01111730602722713
0.052907281426687804
0.012123721608759361
-0.03811867023710657
-0.019452893491814796
0.0012815301499262371
-0.005378129603939598
0.002966909343206424
0.0018702349227720139
0.0007961829747072854
-0.045232452890580484
-0.10735662686404455
-0.03393198514420071
0.0038947110347454634
-0.016599095180882872
0.013896651711420918
0.03113201064332374
0.0264469249455193
-0.026629595439078217
0.05675638457440496
0.040652509671102975
-0.05341717310065068
0.03487624347855164
0.022373270148429606
-0.015816226038880492
0.1169408033413415
0.03867898143277242
0.01696035747188981
-0.028625984287171717
-0.03903315348156548
0.009081948763898832
0.009715426452433657
-0.01096390273612054
-0.010070337098826742
0.028357436700187227
-0.030980458976341944
0.021490194048589737
-0.014272081248959515
-0.06675609316407233
0.017561772676725308
0.007029917847901785
0.021571653100576106
0.15106349552495973
-0.03105905186733226
0.026006218764773985
0.016702202857455113
-0.05798547456535242
-0.05545538983529055
-0.006754381800350232
-0.02891667656715212
-0.017797681995650436
-0.023800606925239064
0.010805198774049233
0.03602421668137564
-0.045987814673346304
0.08715564137957217
0.1283090510642181
-0.04021176244866784
-0.040518946325038885
-0.04825725783471592
-0.010970255662255993
0.02661954688531287
-0.007022116219750109
-0.031783089603044296
0.028912009982482584
0.00020296587087897396
0.017182536938162546
-0.008426151746902647
-0.03300955190465803
-0.04831784143176182
0.033126190309043575
-0.08818835653307786
-0.11674850571991725
-0.002692254850282762
0.034988273332718936
0.03777682477631321
-0.018832969284033493
-0.030336239852423546
-0.009880047670320118
-0.022313612391225944
0.01829927329981756
0.010583006292300936
-0.02154534467022429
0.01510354777724191
-0.0032440035320266216
0.02229463702971494
0.021421018155467608
-0.006740675251764847
0.07163491102293966
0.0762366275019943
0.06857502773692903
0.03330966456591661
0.0016235679445053286
0.023138855505073355
-0.016929716571940572
-0.027657638100315306
-0.026375742727911516
-0.013466760292048682
-0.006882376223310027
0.03269445478441765
-0.017374745047322143
-0.03119265903790001
-0.009950658627844739
0.0662243142155029
0.027319267059243032
0.01934181651888211
0.0006233768829382811
-0.005294980345718078
0.022764550371289043
-0.07072077400863083
0.009933785040462986
-0.04360252648502483
0.012258097606400174
0.00836188855316993
0.007990679632178687
0.0110795748070532
-0.02181610147278099
-0.10618481563868229
-0.0613245866837878
0.006906966486665792
-0.031566773831700236
0.03997400840156332
0.023588954154162418
-0.007093528688219969
-0.008654657345924643
0.020596343397038298
0.017639526924450675
-0.003418698799276297
0.025975341934782657
0.01093639442261014
-0.041036240062425074
0.03187769501557519
-0.0013725335936596644
-0.0760780113417363
-0.05082102849808321
-0.008050247818977995
-0.0024547506825841384
0.01567156178360571
0.02272766684369714
0.001252876886968852
-0.006910372216219394
-0.01100489038220775
-0.009999076406399934
0.0203025876087114
0.03564071216932325
0.06482574772172753
-0.011023310056306721
-0.01626505022320014
-0.0023216185913058785
-0.023410607194129147
-0.018249048919390873
0.015060829555230517
-0.03548177447074052
0.0011439308346253678
-0.03303478003698459
0.0433404562569715
0.04884275143567228
0.006134079032680163
-0.01958077172809022
-0.03594290821732601
0.03685996890789398
0.15099579171722471
0.0019611369814559214
-0.029975002367544246
0.004802797522699935
0.000327455332316117
0.003960690241035013
0.01816335845214453
0.027920607685836075
0.0011747580221321671
0.03345411819968606
-0.039843286118608254
-0.004812266417050573
-0.01478479693546832
0.011739316273648371
-0.0007249745441402539
0.028773482200928666
-0.03890139298383355
-0.11623420910116081
0.04376853339948268
0.012962075108840359
0.0008760268468656139
-0.036679345268281975
-0.003751121489337032
0.01951030771758586
0.02338930250825796
0.028998203286600254
0.0002597652954633553
-0.014504853122017073
-0.002445967527645295
-0.04824264504751105
0.06670095505257535
0.005019088322104728
0.023323196617830742
0.07811189358655513
0.043695142393706206
-0.008097543913734361
-0.02778514348658439
-0.14085645658225654
-0.10685695763331436
0.0863552200747017
0.11832178828612537
0.008557943140929622
-0.0615099283765914
-0.05819041726742452
0.01642521946557835
0.02437390524311446
0.05930242408475294
-0.03012197339838032
-0.124397668992818
-0.01711844512993627
-0.11622772261656664
0.0041263629990499475
-0.011197677835720558
-0.0064781749471036895
0.014673336346426013
-0.0018652566820183002
-0.0067155307951607774
-0.0023688984682509358
-0.00718418167955727
0.03728387767838971
-0.022048204271611905
0.0018781675290369146
0.029872321865335876
-0.021834383548082526
-0.03539339344635921
0.003907651177319006
0.013775851441945517
0.044598229092927454
0.06160526685568209
0.016567525546407166
-0.03383325148104937
-0.023581215236278735
0.0074243549408978685
0.0010569016114914986
0.03171631588331914
-0.006369359566076741
0.06071134706595736
0.0062510096320408355
-0.01234562661408999
0.015781240610971366
0.004005512672645831
0.032725143114548015
0.013888569931746203
0.031719713538590474
0.11263285596999338
-0.0591683553411171
-0.08509084580276807
0.008004584445002438
-0.017078846241342177
-0.008470808638217206
0.023631318836372987
0.016141151321380758
-0.012540270196187423
-0.0024181024333188657
0.0011490048566592736
-0.03778048132937235
-0.006629344567966323
-0.0237392852960978
-0.05227456869484221
-0.011039764405686533
0.005759699157431291
0.02486642408000353
0.03358606107338951
-0.041323521345785166
-0.01566242995560931
0.010724599254010196
0.00543199745687046
-0.03000852380919875
-0.0070278548205189115
0.02748448052420948
0.03985644716375776
0.004174317231527771
0.03990616336720727
0.05457812387685256
-0.0017812551081441573
0.012774576634929764
0.043479680017271136
0.01144183891344635
0.005475296316124149
-0.03574690923222475
-0.014148346276392233
0.018497530824646172
-0.044889336819709726
-0.029749205038376317
-0.034578415181029776
-0.012654178120548348
0.004988938672978035
0.02885197505237524
0.06975338007264242
-0.08371616468358958
-0.033790442475861535
0.050249282376002936
-0.0366798130382892
-0.030663759862236604
0.03580471914477828
-0.013097794323059929
-0.05147149311366454
-0.0145680038332908
0.02592951750126865
0.03775762216737736
-0.10971640623809238
0.025043927067192676
0.02169379114738645
-0.005541839760223773
-0.001959160626490005
0.004295218712126933
0.0060340929969782044
0.02841535508750635
0.027693599293160634
-0.021605353940944073
0.026824732935242433
0.014002761763649233
-0.015247440678558715
-0.016078527036977937
0.011988716283116084
-0.053762741417441015
-0.0708247956416795
0.012459521007381723
-0.00449534601893121
0.03346598701001271
0.011877456797776123
0.02808244761217645
0.024738732888256256
0.017867372333691612
-0.008733729818162311
0.014197250926777054
-0.001990067087804108
0.007807644352179296
0.014608451793374376
0.022336471800730076
0.005476160519913749
0.014546651830442715
-0.01649232142076855
0.0007493572153401172
0.0666024631316484
0.009473478442516099
-0.02844052361068539
-0.008326933909875215
-0.023252640915677653
0.002709634179369373
-0.011355271604211074
0.027921535791286527
0.02763382905230537
0.01784006288959117
-0.01748220716411014
0.0200360687652289
0.0743394376174339
0.003960781148199
0.0042840749967615775
-0.008050378322786647
0.04797907059914216
-0.09119540563173598
-0.20069045068391891
0.02362024503377323
-0.025200744834785162
0.0524855158178443
-0.07705330210650123
-0.12470126078542414
0.004533762217701407
0.011235297045160485
0.03195450490016538
-0.018409264468657455
0.0381168951896905
0.017437076276656326
0.014100777886576564
-0.00816411472463472
-0.014890989089866262
0.006314859728012737
-0.035974985633869944
0.015981596911512498
0.03185457160602648
-0.021846582411883766
0.011547442858445119
0.017999072951268777
-0.04414465284295937
0.04457521821124145
0.1836622433935374
-0.04188157910750548
0.0003722491422472728
-0.019486413196832336
0.029680423338610505
0.01754137087662601
0.015975772564952202
-0.05502701820676715
-0.07018003892359108
-0.004172542377774251
0.02181623921857508
0.03800440607874975
0.009042781562773806
-0.03255665869490766
0.022757293983455783
0.017937212889136998
0.045036195216868774
0.029171610836166897
-0.01012792131282472
-0.017745254375122484
0.003787570403974917
-0.016486801086755442
0.016184861088344733
-0.07973728953163106
-0.1037340576275998
0.06652247098982177
0.053904936854569006
-0.024421328092970592
0.006559529165734989
0.0004953015970199734
-0.023720402784679368
-0.08092154879365356
-0.03192288955285005
0.01613919190073019
0.031147398516009644
0.03873542050990721
-0.031157490762129966
-0.009376944440778232
0.02839770687630797
0.035754208073978555
0.007908721382408194
0.0010967072687879174
-0.03987111516607485
-0.038478096315566035
-0.028254739402162766
0.0024598913604225244
0.0046613892294236296
-0.016788842090730404
-0.020217133244446253
-0.006126890223183429
0.03642087533836605
0.052617176007403774
-0.00460955957292378
0.01325128204553764
0.007392700151911626
-0.01560934687818122
-0.015951631031979826
0.0011466399350479912
0.054949904134003934
0.041202801620118676
-0.0538213467767547
0.06620457373636549
0.05739215542287131
-0.02231526514960136
0.027683502778197273
0.058763733042769266
-0.04269022289200466
0.027169524567701917
0.009166892591765893
-0.09442097748156482
-0.060833115827324445
0.03158964697313458
0.05669356577961424
0.0700833610732723
-0.012794531630698791
0.06730866971524226
0.009858147425175167
0.049795848998914774
0.024540730511379786
0.01760057822258837
-0.14072643415177594
-0.06969639542299344
0.07174355615552264
-0.02915429544584426
0.0027411752483618252
-0.007155119598660096
-0.018075226032688844
-0.030735800713972986
0.02868474988470842
0.013071792332319806
0.0265924194952759
-0.028581669974366758
0.023653734367317214
0.009350101808505684
0.012768998970261125
-0.0408827529437705
-0.027255673456527543
-0.23948526351721489
-0.10483167519738731
0.05456420137580755
-0.016762716523438886
-0.02226085333018063
0.040513446564045714
0.021000362013190516
0.019211658355651876
0.021404536556405323
0.04508041969426886
-0.01939413605906016
-0.004449360675249136
0.04285391322947366
0.0173434391710647
0.008287040965905584
-0.04107089215374358
-0.007171689927025297
-0.057909569903403145
0.03025973066747467
-0.03282536101906024
-0.0017557269697696073
-0.0003878610904825129
0.0311724137763201
0.051313960150141676
0.0024316989962871473
-0.002213597198134998
0.06572839896986508
0.048508501722516674
-0.03900532163463422
0.039891483758233336
0.0001064674716675825
-0.0526968515883347
-0.01338546406976311
-0.02347155864015965
-0.002601310865617047
-0.006016072571633887
0.016004969892302583
0.05804936032687726
0.01673564544390561
-0.024600875187088204
-0.03342214586160681
-0.0451237598593707
0.0024204643037547993
-0.00338921854486475
-0.03912760656903052
0.004863472915799484
0.04846236828137168
0.05417440031021488
-0.0009257430156580675
-0.018606900610533512
-0.015461209851565846
0.0022570607681228925
-0.01122032093820953
-0.042226623426309846
-0.01181704490717557
-0.006131219942271965
0.01603295260769112
-0.033906293690916606
0.02425792295154243
0.04676844919282379
0.011086203053597723
0.0665736413568068
0.10284342853607659
0.05177018714882618
0.01814661970031828
-0.07675602475151025
-0.07146812390577968
0.007918905009029868
0.017120484922927465
0.005078027817795295
-0.026548237933559916
-0.013964629547909602
-0.023949988587429867
-0.0076671912443597254
0.017086870557643727
0.009071221720138259
-0.007239514659527126
0.005511365842563159
-0.00881595334394215
-0.0053818351828552585
-0.0051259515160465
-0.0034434581427698506
-0.03372530767390818
0.07198372520357275
-0.06229782043755767
-0.05441857755181375
0.06310570427268605
-0.02004341806627525
-0.04024032985312017
-0.0486417175223982
0.019718719227376762
-0.02546431033914962
0.025890826679356972
-0.01977133264281164
-0.002747456523857648
0.03129224172505945
0.03493499045322065
-0.015307936873082965
-0.0015775127796819762
0.01037731482787052
0.020590520310546638
0.04796418722866759
-0.0007389065003960992
-0.040594016718657505
-0.016071490075411612
-0.016053942640866348
-0.0001009242971286965
0.04265154342472848
0.03098173097308915
-0.020293701831749996
0.006288742482840501
0.03335758300560604
-0.03540776429893689
0.04843172737479574
0.022407592396070566
0.01262183411574994
0.03921763174129853
-0.0015304753732545166
-0.012366093578355958
0.07484270920843529
0.013784292274789884
-0.015688166689539557
0.034719369776672754
0.03119543791693117
0.011158514726963867
-0.007167356363597414
-0.041563888076045094
-0.04931214755025258
0.0007585067606895124
0.01157735947318187
-0.09976839896962017
-0.06518397191031072
-0.014168780204232744
-0.04524051369764511
0.009108525227365693
-0.03378341266376421
-0.06459480579957273
0.015345686053001559
-0.01861342992032491
0.046315082362464725
-0.015981391185721186
0.03116073473345152
0.006063220155784385
-0.026301257515787144
-0.022632702593602606
0.008630201479208701
5.6567799812527815e-05
-0.05226219924004588
0.013269935984204
-0.011433700342228216
-0.019156685914422312
0.0057829752179806215
0.06733361740574079
-0.010480135698445876
0.019598727531418343
-0.00045220247926232516
0.017217722321158833
0.09268942903003351
0.016296362558689576
0.012721640509159129
-0.0179844995773578
-0.010909998616425073
-0.03565174327807231
-0.05642904824290679
0.01728021953225056
0.009350621135552847
-0.010304969374873157
-0.0327867710267215
0.006868002387947468
0.030991661676956765
-0.013924355970145266
0.016112293209365445
0.025669009344094867
-0.017900796477922146
-0.007481366568576609
0.009479934955709058
-0.025900032842794306
-0.04817982590310122
-0.007210525789740354
-0.007179222065362245
-0.060658657847639165
-0.02818073761039877
0.15503374002441894
0.027500244792894205
0.006352407115353378
0.003493394713660105
0.03372962333100991
0.038556825846156266
-0.0367090489045697
0.007654074992479228
0.006656229968323032
0.04621673103418543
-0.03076272178547632
0.028935385833813363
-0.0016178884372122617
0.006975114838216151
0.00029404239368841477
0.00751209904918954
0.027284869890959202
0.02206356456549626
-0.028063331950315462
-0.04775959778814066
-3.872110264945045e-06
0.025426879305999826
0.0177054332075767
0.03747149690305785
-0.022355078649664507
0.07225619903631733
0.05069644504785263
-0.01011784821582677
-0.07686197042747825
-0.04202066694712823
0.01659900452842302
-0.02532256088958809
-0.006926746663438557
-0.01777882592473082
-0.01806970913905063
0.012706297347283294
0.056450692134917865
0.0024871250092639275
0.011573240261436557
-0.09187639901911684
-0.0810688038967858
0.07555703508003023
-0.0015754404496963813
-0.011439966007585088
0.086438839331592
0.019326191114854167
-0.10853165035318602
-0.01557993165858432
0.004241721858993731
0.0029074041782909403
0.023850455724294305
0.0347317511804148
0.005402730055840675
-0.05887351221626673
0.022612079315171636
0.027103473184206073
0.02225628794734845
-0.040899045546424574
-0.18037383614961028
-0.016355283277569944
-0.01500824778779639
-0.031416575579160506
0.016987071556722157
0.025137195502989217
0.0395856970969014
0.04001122795795383
0.03726051637218389
-0.012552856689018631
0.0016861689964929414
-0.0016254466039383666
-0.021590390325989663
0.010998148438859953
-0.0005061990853894682
0.04501874964248165
0.022636423822613994
-0.010750810103335744
-0.0032395892515187357
0.01435219569570561
-0.0656423140304547
-0.05123894838704244
0.11676002113927139
0.09531094396261286
0.02019985994600473
-0.008482097024265571
-0.012997585342863657
0.024913356055819427
0.0055843317715841756
-0.01090931688456307
-0.013898991654135015
-0.0027828675042947818
-0.10381437635049695
-0.08534904014084474
0.027777365640326467
-0.0307123291642818
-0.009728001868823303
-0.07564098086290752
-0.04982424627940398
0.09049744126669904
-0.01091685127535438
0.04582081830143231
0.015516557642605839
0.025552708176970838
0.004294820391072429
-0.057384345941988525
-0.010594660318572905
0.021774900520079257
-0.019224873363968824
-0.028979696002154685
0.00025671580495277503
0.03873385957501677
-0.006553568185088844
0.05983239926851283
0.1843713011867972
-0.0035351811147965096
0.006579711737684407
0.03706800457444043
0.02182968438210482
0.0020786543319874324
-0.02785623890078948
-0.027751557569871382
-0.08489814727081939
-0.022136884283124866
0.008055001421515223
-0.0037466633529107045
-0.028089433229740897
-0.00240205949517663
0.00711983725255012
-0.0390086568802219
0.0345000613618425
-0.012514551313501267
-0.04349303247991685
-0.03619323348318759
0.0006287057625793522
0.0393308172011271
0.029635492142288517
-0.01786500486582535
0.026717387665944108
0.01678154498714644
0.09424484747529913
-0.04987344306905508
-0.012600619253977425
0.007210849373916016
-0.0008571766960535262
-0.016209321086470732
0.05174914809382781
-0.013246104064174218
-0.10023955443119692
-0.01873326673641643
0.020146423752630382
-0.06648860095703038
-0.004749139861853927
-0.03572156534267772
0.01945327589805763
0.0009518839083940332
0.06371734253719712
-0.01596191703314194
0.027549068250599596
0.08472367117209198
-0.06974258746457314
0.001948692754594767
-0.020683876416284844
-0.009414486094755934
0.027465054272361178
-0.07580128199524085
0.0004470777216263802
0.03700062475389217
-0.0787342569381562
0.010738324500019797
0.01336860072141542
-0.010224682404049654
-0.010380648454005178
0.013072494682612441
0.019674717388501826
0.17240982807350239
0.05582401800072194
0.003098248183326334
-0.011093175966341035
-0.030693750343954586
-0.0002851192111920358
0.0038650767668069012
-0.032116897510723996
-0.02720506257524683
-0.031838381448902345
0.018538086034471383
0.015025301988920242
0.010782947830995721
0.0029268884079692893
-0.01798373922673083
0.015700522213678146
-0.03650043063485857
-0.016897846104995378
-0.034093697244948325
0.03832947807309021
0.006027013550311988
-0.012497042728789447
-0.007577023615871649
0.00811008714480223
0.026009007230921935
-0.035385709704195106
0.008905023928575492
0.06977794338065331
-0.017888295429589685
-0.064377086622882
-0.03403865344261385
0.004736336298286007
0.1188928141520431
-0.023278771671896428
-0.056687921251764785
-0.035890006544457134
-0.029229199702445873
0.015347456215929154
0.05207119222311142
0.04222086616142942
-0.010906397287533908
-0.01902811928033085
0.009159079674999068
0.021754902011254518
0.044743864406762535
-0.01907391354111427
-0.017928869839227538
-0.01098053171951591
0.001552368271474001
-0.011240577150824094
0.05110897766366019
0.0008066276377275514
0.03686021907437874
0.041376177120081375
-0.01293116251321637
0.047229560614192014
0.039544167065640415
-0.03362422338729446
-0.02271717036052334
-0.040225724420454266
-0.03770014618836641
-0.037548070089161896
-0.026292807270341233
0.0015796944798866963
0.0022681634025620754
0.04325542242203731
-0.04397323807762132
-0.07307051113354016
-0.012333846356429194
0.017664802092328777
-0.00020389724023304524
-0.036675357377918535
-0.01958025267273823
-0.02370313487275272
-0.024124139537496665
0.005831518999965333
0.0038200116506611407
0.03358710884843649
0.10735655217199665
-0.0266417737310543
-0.022107797876886597
-0.03134172598036434
-0.03619856048112182
0.01641286341290698
0.032781838930722035
0.0060818462509021586
0.018079234949394292
0.04914958132852151
-0.0008737801441836393
0.014262019745665164
0.01585481245712255
0.01704805721317262
0.0014680010759314077
-0.06709150842422032
-0.015804433989398892
-0.05304872840618686
0.04213169770875262
0.02661178176665351
-0.0012763536536562021
0.013372840791185826
-0.005825567833026327
-0.015495894179167698
0.023777129664735917
-0.003437468253811656
0.016501445626650284
0.01678323301028203
-0.03846627545111077
0.04445552607101218
0.013264089224303884
0.01650781079300645
0.006754419673072536
-0.02122313183684158
0.023458658954400344
0.02740362743546743
-0.004761828374556554
-0.016548933453472737
-0.04735710609184468
-0.03288019214385618
0.07314992561632067
0.0689314004144941
-0.018504906341683933
-0.05939446930758008
-0.007689396030119971
0.045423470281562676
-0.018831592374575712
0.014689635059180889
0.012812745806133903
-0.001296903973904378
-0.12195185673195551
-0.054288268537590424
0.0334240550629898
0.0248390397805859
-0.03565533248184046
-0.027327289982350914
-0.012879801619013014
0.00244714931577399
0.04725211595203327
0.025739645990377435
-0.08045123917298097
-0.04568307451672226
0.005422438615692622
0.0019636851725992194
0.0016462459855115733
-0.027494617919466603
-0.03447298013489921
0.004291538779154256
-0.022790525681361896
0.06329645987687965
0.04408674886746152
0.05510635607984522
0.05967608115308523
-0.005613273416100712
0.026566677418122728
-0.007840988133137211
-0.0074754526119305935
-0.05731230131736266
-0.010491650759883694
-0.03076517814855637
-0.01748796886287992
-0.02335736440567096
-0.015132720091704717
6.17621288276646e-05
-0.0747408621058416
-0.1837451633206983
0.0575451037420042
0.0331860302107651
0.12413658203473038
0.16083166067653246
0.06824010393858966
0.030553989078288685
0.002945739118024788
0.0017757425033056232
-0.0371605950287916
0.012549987771869449
-0.011058712606715744
-0.01981764833866349
0.021965662244051956
0.06754764340257362
0.009864755081899854
-0.004786798833781054
-0.011094949076224792
-0.0005699428832739797
0.02297602532329457
0.026834811945679885
-0.0037467215319773955
-0.003794154960899904
-0.03047610696888729
-0.04145178712086613
-0.042076798567665816
-0.048795586562030036
-0.04666982635941265
-0.019474773828172913
-0.015568213824003967
0.02720155792202827
-0.04436263987681491
-0.004401597781143111
0.024097765380931807
0.029786154221513754
0.019319794573688397
0.1106453296972731
0.07186712336470846
-0.0124656993297488
-0.03046178286451412
-0.0590941173990201
0.025697164458106405
0.03759808784715911
0.0033683952058234054
-0.019396283514620312
-0.0084322253792714
-0.041755512510317276
-0.006827767867561099
-0.029676722788494043
-0.017525317842695468
-0.003998710064810187
-0.03681668382896531
-0.005413836872758703
0.0650969208595188
0.05465061879090738
-0.03475951497811408
0.026686513429397596
-0.01644744388242599
0.000297028289681263
0.02810727679073674
-0.02191812804330902
0.030410883126833915
-0.0676099755851583
-0.09403518941215391
0.03790765305351065
0.04072464344329896
-0.006455042939393732
-0.012558139829713115
0.004881115448410118
-0.01901056615817716
0.009891963603116834
-0.0061922150999743925
-0.012603572526163712
0.04452663971139267
0.012248219892614218
-0.005185788992193608
0.01124990181522348
-0.05087876209446241
-0.009842501063023684
0.005810659538631906
0.014429823877885165
-0.018698278468510174
0.014371918126363254
0.05929330579682445
-0.05331433582680385
-0.05326664407545416
0.010800275420469166
-0.005790454108017905
-0.012968866884413129
-0.036979672890664374
0.00950436866407443
0.08402977138414512
0.014619494402553043
0.0073355167688678785
-0.012855175145920997
0.014835054366390212
-0.03061782888537451
0.026578228290257404
0.01696085414182051
0.01698353229320053
-0.06223162965156602
-0.006919969649539213
0.0329034725467185
-0.007102813929329167
0.043772069450699
0.017826168071744194
-0.013122948706623316
-0.07742657889023946
-0.00458673855034683
0.018383982632640128
0.024708319619352458
0.028340529842603206
0.06000205263053831
-0.011378974517392186
-0.0026322436799763095
-0.006885228757691188
0.00876021538170812
0.02024269042423389
-0.0689659146345016
-0.10944575535790237
0.03747546046320522
0.033678494149406844
0.07553278487781216
-0.022447051351052384
-0.03125000675497336
0.02230155373317335
0.004406253333183025
-0.018747662452112464
0.05344062145830841
0.04808125035061534
-0.05169088754178484
0.017455823167908634
0.003898389511251367
0.048199667816689
-0.03486624165929407
-0.16714649309408602
-0.01849004490837057
-0.0017212512942002944
0.009307017313161586
0.008735647852778227
0.004183469718283606
-0.005566779575356693
0.000920663140973224
-0.034558407753341756
0.010274088072130013
0.029091933017521884
-0.039115701457738225
0.032777763340966166
0.10527058320585828
0.006125525976750447
-0.027587819663687983
0.05424105012373316
0.06400569263007458
-0.012771906623759759
-0.019241096812873785
-0.03309141784247214
-0.022099408583678527
0.0036983045120907144
-0.17518580469152434
-0.02920196850515769
0.01642523344559842
-0.015396248660129841
0.011079029022727298
0.041669589358798886
0.0691110247977265
0.022782006026274983
-0.003974152692540966
-0.0004549145709202568
0.036921821537044625
-0.014919982856004276
-0.02505171078805067
-0.00853313407300856
0.04665892550873708
0.006083578832030676
0.019334445032550007
-0.025369330112883153
-0.005771502031556509
-0.0015515207770109786
-0.008323178623013796
-3.043386280721903e-05
0.0065819692236862145
-0.0044377846294157254
-0.01523059451154902
-0.016054182442119296
0.03285408406125613
-0.0016484272417682721
-0.03215995787653575
-0.00649441999642858
-0.01794525625678206
0.020191033707460965
0.03563124039876715
0.05660741024151877
0.057036820449025916
-0.0004281869486386799
-0.01307393004155883
-0.0004039948297274479
-0.013908457939003104
0.006561486900596614
0.01443394491194422
0.021041198231564303
0.013097895600382006
0.0017145300358557996
-0.034976118041683255
0.0035693437347720522
0.01632199087978314
-0.034699076465062005
-0.11149715384051338
0.004304844879416854
-0.007773252465983004
-0.006970155768972972
-0.021550092843508607
0.0035717979608425447
0.02474669145846571
-0.0020071592973278096
-0.02905019817099713
-0.016199100338469892
-0.023180906131001773
-0.0780181505573336
0.03266347943330972
0.04322223353630923
0.005563471421271229
0.013758794862773933
0.005645708410459709
-0.029517606633237062
0.02425764408976905
0.01614738084032039
-0.008615432312582159
-0.03955423784922613
-0.042549144140945155
-0.02410530369586442
-0.0028783146087989872
0.020943353745471526
0.016478103755588978
0.003716826731858597
0.023434346404776436
-0.027453020144979214
0.0035599609123883116
0.027179317744828003
0.07627606113163687
0.09591183612823259
0.0777594015187566
-0.012101460375143059
0.007719203877634247
0.03440880530872918
0.02093698806409285
0.010841993622545907
-0.013044207229547035
-0.02349218018439287
-0.04078234714161958
-0.012920716419141788
-0.014245537910095397
-0.0071288224270321015
0.010526332802747883
0.010493923126098845
-0.04123283782680079
-0.031154194825918493
-0.006132205740968103
