0
0.031660615707434454
-0.0928381250555069
0.011007354704713914
0.025316689706996874
-0.011307750345203264
-0.019235042805199932
0.009219949581242294
0.01716913456601233
0.036685840320673894
-0.05084015980080466
0.06542974032328129
0.07214485437336784
-0.01299343820730632
0.037317437576824326
-0.07577017617427358
0.03324160516169342
0.024447066703604674
-0.016897951789966715
0.0034731740028549154
-0.027182965713984153
0.02240488634898522
-0.01010146501780469
-0.006151244188192349
-0.016127753017948526
-0.04393098487415051
0.028981396227368304
0.04577479714756261
-0.0453811552630476
0.08591231960524136
0.11204313268113368
-0.01601435967253346
-0.05162799826481651
-0.04478770181082588
-0.00877795268468675
0.0014430560648903859
-0.0637610056154807
-0.06733534061956316
-0.008791755571225229
0.013161355652866446
0.07575281637593151
-0.02986591100034177
-0.007005254675120583
-0.0051729167808715875
-0.021992200342371593
0.01940042039966132
0.07601980160278736
-0.007397774865625252
-0.015944148580916837
-0.002234127218813834
-0.011346691927412049
0.02505012032126388
0.018235943406496775
0.003962350712844194
-0.02119598206107367
-0.02475216319855112
0.012737859474458345
-0.01345956046726239
0.0013211033358494367
-0.0010694606116919093
-0.07577289833698192
-0.0045878560219873325
-0.03859369243895463
0.08037553460618926
0.1322740660813304
-0.08450967098948797
0.04291876816290362
0.048191722473475126
0.07593622958697553
-6.300789950031915e-05
-0.021387588441988275
-0.004897993443188542
0.0166204765182739
0.038412781736354984
-0.04861351071575836
-0.06055686405099149
0.04382400142737209
-0.016896303231114074
0.021397031575603447
-0.008694359767941097
-0.01164858965121688
-0.025142834642943812
0.03386128272243237
-0.03329288760539408
-0.077047127394455
-0.06867712982080428
-0.04850187680992692
0.0009942786284686733
0.041336268343042194
0.02834810957168017
0.0050072872099044
0.01599312267221761
0.040378228352627825
0.001340079619907213
-0.00754209331099027
-0.01603218722284262
-0.04226774181015954
0.012077843027962493
0.17987913450229967
-0.04982497091177033
-0.041536491931186845
0.02169353489353564
-0.026132912460972577
0.038467759637316364
-0.003393832440319993
-0.032361961063143194
-0.001604331633721799
-0.013193751269361516
0.03215580436249664
-0.024360902198724645
0.007392914418707122
-0.16324400751370619
-0.0032493586239932207
-0.02904072905803994
-0.03498255879429899
0.13740319206804963
0.049482247205563254
0.0013785277854494885
0.02612849989935036
0.0064322207776116355
0.0221715176300402
-0.03800398549528675
0.0844436579195533
-0.012344869583425623
-0.3020692430964256
-0.04103671421118726
0.0021535311134900925
0.03276730925768818
0.058538153157532385
0.05549077342585955
0.008305364040236102
0.02790459104854349
0.020004300710458337
0.025050614479149958
-0.0019813861930434353
0.03768858404841464
-0.09770534869637115
-0.054778821466424155
0.04774640687587639
-0.013440529319167432
0.024684842960861448
-0.0037138437726432494
0.024492566423548745
-0.005438881270665177
-0.016840316419694298
0.007183854344085981
-0.0060804534537971895
0.008907619839626109
-0.004803191223003977
0.011645914767841591
0.006689179573268477
0.004661052959440617
-0.017044049151645254
-0.004960860089352847
0.009823414316174625
0.009849060283390637
0.003942532016807324
0.00574164271106124
-0.0026194789694946327
-0.010647103770383498
-0.020363826290480513
0.0007996423304115556
-0.001499246283560167
-0.014919387503444485
0.006526145474565406
0.03144770401420475
0.01116906052486702
-0.02205763601448312
0.032551093078349184
0.01914777935625074
0.032397141936404625
-0.028140097535623083
-0.022428424784825467
0.009188794522184972
0.040152886152209605
0.15074842146451928
-0.002809470799482482
0.005720573268269359
-0.0014187570607950347
-0.003568925567734932
-0.003644415909623501
-0.027190584813258558
-0.0546482853747943
-0.008488965126049255
-0.022946155945194707
-0.006707077197500661
0.010795958754052279
-0.03557752503415533
-0.01454482156453795
-0.015439289946357081
0.021078028086464598
-0.011070246928908017
-0.02942326609170263
-0.0012954702847936261
-0.01156564598425341
0.010924085039507762
-0.035050653948598985
-0.014025634187917906
-0.03052768722815347
-0.06925267714911014
0.10248780968370809
0.08895348556049754
-0.026181243665560128
-0.010104282741510439
-0.002835090770545948
-0.022058779196523576
0.0346814005865589
0.018092938915485232
0.022951851335169724
0.02802661241788073
0.0003369722740362048
0.011280464502807322
0.012246184710125048
0.020799856013122408
0.009884842361105168
-0.0003337075419537318
-0.002619651301850122
-0.01908849049130444
-0.044323788953000584
0.029698904626954317
0.006793085872748178
-0.015390547872321667
0.011292677835024564
-0.009795253624673596
-0.05181164685901878
0.024300738397010434
-0.009374770082893292
-0.13459176836837436
-0.01872335146774617
0.004613971658760544
0.026673881189004274
0.007963306170352404
0.0133667648900213
0.013148155549861271
0.001432576225642408
-0.016433684842717657
-0.0052601617073054
-0.04762494837171395
0.002114039490662084
0.025267641833216056
0.002715440216994163
-0.006591476658810156
-0.0062315403405075135
0.03889310771777166
0.027074054251947186
0.010447665051999896
-0.02066299413922811
-0.0026601064408392763
0.0154611394266551
-0.012447726723609925
-0.030577747422816364
0.027457641408141983
0.015817565653440686
-0.002317744887297231
0.008171854103271942
-0.02370985390204337
0.020410740012311565
0.03753487509204749
-0.00842960866500787
-0.021351227903851376
-0.00968835625218256
-0.01659323506797439
0.019707413642614056
-0.00642173074282143
0.030722657741387414
0.06162785838914554
-0.0019037632479553023
-0.038823941010706145
-0.06668332563686659
-0.01504458436280217
-0.01397336674159557
-0.018634632630072843
-0.0012673777227549053
0.21913301550423228
0.01935088702648504
-0.04893353120198995
-0.032181560102552735
-0.005916725220461962
0.009199566570017227
-0.012873210195248426
-0.030482944304524678
-0.02276915484675974
-0.03822979044050835
-0.028370537937709366
-0.0069203701047613145
-0.028697718042653034
-0.02504509347528235
-0.001640001395648524
0.02981370666437999
0.15481083165789605
0.09379709560787738
-0.04133432356350982
0.008251376258424956
-0.03739469032758655
0.006368417428335868
-0.011838742482586801
-0.04454803999970227
-0.011001725152481337
-0.025809753926420608
-0.04129477313779049
-0.040790807215724645
0.06014780059135977
0.05325048706161168
0.0186520394774231
-0.09285021794764478
0.13263304506175005
0.11593731468302675
-0.04100319662724571
-0.020775155068513643
-0.013335317108656937
-0.05885128047951168
-0.03503136918234664
0.009825094576865706
-0.06044008239240404
-0.050529384773204816
-0.05100718139366882
-0.02142233190093678
0.023312924179123975
0.008815233060577217
-0.011345509056257216
0.038179223739496844
0.0015754049984008603
0.001412532633457703
-0.04104214391071062
0.06750063156332334
-0.02582806673725601
0.10700372703699607
0.16303718595074876
-0.053119786274258396
0.015760639812056006
-0.02613396138517636
-0.015637017341748733
-0.013179787795451559
-0.0035875622910910687
-0.011613836132794184
-0.0662522363760334
-0.0990840283170278
0.017625801054226797
-0.040453080289114034
0.03807665667973854
-0.14700826895710906
-0.12306159042360706
0.06936212180571702
0.023037984395314803
0.030700819648583472
-0.004321521589906315
-0.01619939601565695
-0.04268059137078362
0.17082585655243906
-0.05104305472905906
0.12302923804307914
0.1681270341724492
-0.0025036889209586973
0.02940006668675097
-0.020902936340610308
0.00967258041900285
0.03521407151289973
0.025747848672746567
-0.032091661591982894
-0.01628386857292939
-0.0180880241421463
0.008831258603476496
-0.02014809781250298
0.03072529870372746
-0.03524299633526854
0.09612065755207522
-0.035074186032471984
-0.08529954698738665
0.00390762807860934
-0.016579196163371585
0.00338387218449132
-0.008092392702417822
8.862250274445107e-05
-0.029330108705111515
0.0040586300858927405
0.02331106608251522
0.019372450959015654
-0.00035295635901512354
0.012730330004422606
-0.021429699623036307
-0.016428656642538696
0.015215543935361219
-0.01371235997955016
-0.021703507878558667
-0.09668956656455638
0.014003634390285855
0.006049254457465205
0.004494756538151878
0.02816920928893477
-0.004609172631366065
-0.042151361208796624
-0.05725306063923706
0.0017440157790191034
-0.013334454488675068
-0.021531483463660614
0.010122504741569041
0.014353459266854746
-0.03248211284497043
0.047794304819602895
0.03092419608042697
-0.003005773606154233
0.037873217406426754
0.022878154822842386
-0.013512445285454464
0.02857960798981986
-0.07005485243856654
-0.04807490639147073
-0.007399791543227346
0.010748469122236
0.0396468351062857
0.040262604347354146
0.0016646794297088285
-0.024314648294741205
0.017258020565761915
0.016200829108475766
0.007855676452663996
-0.023968054327232854
-0.07611762929922725
-0.015908697676228097
0.05083844466815999
8.196961340484729e-06
-0.016273783779337785
0.038612253469627475
0.01884470925065879
0.026200488910021066
0.03167143342941872
-0.005882919930638523
0.008406256026583122
-0.014173704760012297
-0.01041897738302619
-0.03863498846773637
0.05004575810565537
0.03202524566906881
0.0694803000642488
0.0898602120955217
-0.00757439024710788
-0.0013846523020051389
-0.00410805568799424
0.028683611217444626
-0.00800365682117021
0.02340566701510579
-0.11671964712151235
-0.20533358882289474
0.03914918768896402
-0.04855229949051107
-0.09037621962721135
-0.017152905887818384
-0.011148304475680089
-0.018092996895111037
-0.004858704369638725
-0.0024444406722396545
0.003371034598428355
-0.046071590957892025
-0.0038792271307265145
0.1193126053075858
0.03699891811818034
-0.023174373336168227
-0.009967875739378651
0.030823209108145636
-0.019697440057586463
-0.04112632003743256
0.01154125610427785
-0.008105581409131594
0.029175754643428822
-0.04088084424655181
0.14205688798704172
0.22278826731866666
0.012571892593508521
-0.20692558945870093
-0.228892577336998
0.16480734897740226
0.0450865593600623
0.02824303576340325
-0.02124991526872778
0.12349297398276693
-0.0033219643861260475
0.042135769596235134
-0.008053673271275465
-0.02701385666016543
-0.027545832001454478
0.017941719410688155
0.012755932474073584
0.0006181620029818141
0.021459885181546668
-0.03751706630070317
0.0021191050994278865
0.1583394045619309
0.028583629952707454
-0.01818450182940526
0.004285443834094541
0.04329383345356903
-0.10790853668154307
-0.1052828533782077
-0.0695302346302176
0.01497928494919595
-0.0026235709613966957
0.03108438305478318
-0.020772879247342002
-0.047560456127867086
0.011512713412107469
-0.008139326753598675
-0.0018064950421892258
0.03185051097311947
0.030047851931550008
0.00629872834103388
-0.005834570833848813
0.005860967317804524
0.007552364522953685
-0.014165474457924031
0.0008780800891261346
-0.03759469639251706
-0.054935729841191654
0.06498421708862406
0.0015074521895845725
0.018659812900102317
0.004207169712738973
0.009747836445983324
-0.02810061642898269
0.025673444544204775
0.015234334440163443
0.032293273184413135
0.034779389222975375
0.04328905977425714
-0.03396692084398974
-0.0028963560252179923
-0.06531856104001559
-0.004857089665717385
-0.026094978670000393
-0.13354582055652062
0.019912533403103474
0.016616290423670535
0.06350954052132174
0.02330579756134679
-0.04726862050134735
0.003977612948637009
0.00042589340766942767
0.020813356902825854
-0.026424358404354666
-0.10396915584452561
0.003363265079822643
0.002254500002346905
-0.017901430402708005
0.006582934529460572
-0.020119478080320673
-0.07336054714891228
-0.006617528933927923
-0.010500485677996392
-0.00768929579835873
-0.001340396544539064
-0.02204656444694109
-0.017483296692721972
0.018646689165976886
0.036799173650051184
0.016286619396179824
0.020369426225330944
-0.004811875648438261
-0.0014119294337289763
0.06059678280325991
0.006986437880317048
-0.008310829865427723
0.014703448603952153
-0.03051761416047024
-0.011623628067020064
-0.027514002286686243
0.11098609037025663
0.15629910614583234
-0.048200716090937804
-0.028274695459927984
0.023340187090833645
-0.03384901055580957
-0.032723480488042675
0.04402205400423143
-0.02341887489317275
0.038470400730509544
0.1383328674273476
0.02981695531626034
-0.012012451713383384
0.03426019143820366
0.004746399913545064
-0.04433816043569297
-0.05499540051711632
-0.02486510806107853
0.002183808952518995
-0.007339261533955347
-0.056073060238123563
-0.02949155463624144
0.015270467470397753
-0.014935812039518206
-0.0115763363360438
0.03246237124794353
0.008465132864234006
-0.010603213189814178
0.00017354209498046536
-0.01590499516648409
-0.026477293616667712
-0.023530444909181297
0.039479661795853084
0.012493482500274463
-0.043808219773614814
0.010381192099376938
-0.02335748442711115
-0.02359716413013782
0.08805352052211889
0.013734488675800878
0.003659104611986843
0.001271936825452251
0.0021567878407203938
-0.03431095873524416
0.007450117782034406
0.038665358419943625
-0.001934510605935968
0.005788779110821643
0.007013506488856739
0.04357966815078424
-0.03327523641313767
-0.03537519012148232
0.00836743694525584
0.00011457993122726379
-0.047172777319650604
-0.005072266990205968
0.004211458744542363
-0.0401444736127986
-0.026214775037327803
0.06745069370898922
0.03507710083417091
-0.01693562071276372
0.02235637509402882
0.04499587060398803
-0.011312509821315226
-0.07179313554723829
0.015846197892977986
0.0300288995343651
0.03795652549675611
-0.010058803833214888
-0.17237810136963097
-0.002881348832124881
0.001570032733570606
0.03358045741311425
-0.029955828449697987
0.030383445581660482
0.09014655806045553
0.006878864164148226
-0.013024086808192123
-0.012001730230209211
0.013127340592460816
0.019107806134098987
-0.0032161682430052567
-0.006382018564661242
0.028089386318947012
0.0014779086841188633
0.004785148808512506
-0.016044755135832135
-0.0013598940172298124
0.006599836163909268
0.00013486357275441766
0.0073347335359289475
0.035478757839351636
0.008721937725717081
0.03162608978827449
-0.009147708877981739
0.06889983888817582
-0.13563996400430367
-0.17251395775631312
0.04942111141420401
0.012255460404736004
0.023653090280072328
-0.0009870245449944283
-0.014476729906453328
0.0052818163759230435
0.05214938150179957
0.003133443248266841
0.008288210441845714
0.1426455398925414
-0.041851878810248246
-0.2311072031432936
-0.020387737067242714
-0.05568195206763371
0.003829521882592067
0.028582627964949474
0.056259131477451645
0.007053266826274503
0.004341829479470719
0.016377865336579856
-0.007041802857572822
0.07257837076047231
0.022619197688549694
-0.033023636140390784
0.028013027531711344
0.027339897208673705
0.01525885270668
-0.004187826100571437
0.027773500443377265
-0.029141103797900213
-0.06398144184537016
0.05827450810292258
-0.031871339128557795
-0.0032760971032737207
0.0698476001688623
0.05351051798405746
-0.13594849132235692
0.00016480733288734968
0.02478763499132178
0.011048173677250405
-0.00011079433838638008
-0.06480157254957124
-0.022099883030331315
-0.01564457597451573
-0.018160804378901156
-0.03525591652807403
-0.023378782139173826
-0.015158001441753681
0.07149626396027059
-0.05480827419200501
-0.07070501849079731
0.027102420776775424
0.17514582939286233
0.14294650242588722
0.012970942913076091
-0.024898789095376208
-0.048727131861615175
-0.058310644848233756
-0.0401735150530548
0.007090803975203436
-0.007540595057895719
0.018048173604223866
0.00012351023168402067
-0.033329100215269115
-0.01860617229790206
-0.03314455574266232
-0.055455147291822146
0.0039029996457181242
-0.03591524821887063
-0.0056081944926376845
-0.025740409605355438
0.13445851282848356
0.07538333806969452
-0.04913500758399167
0.013441048221653944
-0.008225372206699635
-0.01959702831984721
-0.009550388707694467
-0.011921402930813006
0.0031076240508700692
-0.01576240668405723
-0.00528988967963314
0.03802625984264901
0.010756105269244715
0.012700010390991688
0.006126613516309249
0.01580754651683721
-0.018202643995091406
0.004378142314952353
-0.018407959792160408
-0.028652505822808552
0.00014699277868500724
-0.028597094011396235
0.029964165983860664
-0.046718084361732706
0.07442235507049591
0.2351600861587179
-0.04239388560204413
-0.007449036055797436
0.04616575639453696
0.0027577130634328334
-0.02088483210530626
0.07070029535355385
0.00853635274749489
-0.03653691377814248
0.013991286063891141
0.001974923549764022
-0.004961975725273241
-0.0014351160089381347
0.01155964422400446
-0.015560540222781045
-0.0225145890725277
0.007051333770707113
-0.01280409876160397
-0.0017352911652805739
-0.008123200048850174
0.006389365266032803
0.009679176319108054
-0.05050819718182897
-0.08553150980044086
0.006952503643120881
0.001136979981226147
0.0005216119269673987
-0.0017062069075905655
-0.12271856505690089
-0.03805276337803302
0.008122006791399954
0.019593907394110845
-0.010334523216081463
-0.011850379033156888
-0.03154816150350713
0.012079777735572502
0.0030828827831007877
0.0025346041532706715
0.04382644035333196
-0.002483243496679558
-0.011470818161957653
-0.006917862542248798
-0.0473624910534272
-0.009468965264739016
0.09200349458692939
-0.015425016390000816
0.02926298747212158
-0.007189231148757625
-0.0022837292489405227
0.010203123336127986
0.003569777888568802
0.013522010209762656
-0.02777236052988333
0.00020357888184804635
-0.0034807908006001726
0.030018842813364813
0.026865949754719863
-0.024928650920022576
0.07253117498578064
0.08228048375926694
-0.0727744121674256
-0.03237675695533929
-0.09949909373097507
-0.04841128635480482
0.0033472161623847537
-0.03638464667504489
9.020927976875302e-05
0.0484694193058857
0.04002576550364809
-0.022237274318188
0.0007341939563210981
0.022306398065693286
0.015149464931861074
0.013583080160647066
-0.01815457608421137
0.0043466409892399995
0.008576473234148776
-0.020655679089358243
-0.016144750941967136
0.02245553413983555
0.01764168143017649
0.0006396767471177413
0.05282065641582633
0.05086943496789593
-0.020726095289970298
0.06919440667236575
0.11027161586047358
-0.01616916416441241
-0.003838536446040135
-0.016729213609276698
-0.016731248917721216
-0.027167734380175765
-0.025765898262720424
-0.002009161565237851
-0.02351669604041829
-0.028386339408370723
0.009893334100665152
-0.012519810103340369
0.016760101930411976
-0.006407417857885222
-0.01647730326877821
0.011931647783408827
0.027434376441908367
-0.03810908492251575
-0.041494433285608284
0.013746343820822978
0.006706438761790943
-0.027796789827237073
-0.012525963386711206
-0.09508588892434028
-0.07600096156536251
-0.012281920314981005
-0.07340023443336659
0.1089290533350082
0.027245087329556942
-0.009689759492633556
0.015064340313395177
-0.00697444849938534
-0.04013497570327831
0.047708021028147425
0.05626362245108748
0.0063332277781591294
-0.02041372412468624
0.010076812932640818
0.004044150539084037
0.033907790788308224
0.01698375489635867
-0.012853575515100432
0.037555244766373154
0.0031919476297165668
0.03448071791730513
-0.006789654475117295
0.02426514995593293
-0.014892692630240845
-0.0017007081750947373
-0.03865955456116323
0.007345016527290041
0.04372358760627712
0.04636926535314723
0.04774984609539846
-0.11582447121815756
-0.035702404302909996
-0.029726013726909594
-0.007514327810134312
-0.0005970434072068779
-0.011336154601052398
0.01123438011035978
0.01298073892393694
0.003959920609221423
-0.025687269219025102
-0.029920369930326176
0.02388606997031906
0.05439398387283028
0.011940178535106745
0.0070562977398145035
-0.014797927426831937
-0.17834333287038645
0.0130357940072177
-0.001818144524100334
0.030874124620369817
0.042607020254540565
0.00032584496348028123
0.006951876279496018
0.05901970560499149
0.0458152372027274
0.04486559269179137
0.04930660280533214
-0.04142745541580685
-0.00916852531041229
-0.021376976075927794
0.0326375156577818
-0.000599606125736255
0.003666610031336097
-0.04202212062711816
-0.013755699930646039
-0.0015297285533750558
0.003899405906011579
0.00149365258393477
-0.07624845785812936
-0.07302038672184728
0.07647534365544391
0.03408374494510441
0.03174770536482863
0.010357431497794143
-0.007044231831727898
-0.018613293643613915
0.0062719081024632806
-0.026282140749483193
-0.04778382612733018
-0.016457952874650145
0.12267583820758048
0.0581716500076603
-0.03249275478272616
-0.10091813355422882
-0.044841873467374574
0.0009393843021217054
-0.008276047946239604
-0.04175921049974622
-0.008872211444450762
0.02006729068876965
0.031008100032305436
0.028557413943449128
0.004066381604165693
-0.0279210342057579
0.010874765376884823
0.004249332114481863
-0.018571839051604984
-0.008676491815505866
0.031496028700665
-0.00947578389261172
-0.0065990801335682
0.03250996581467247
0.004175559814815379
0.02401553826309214
-5.623276548293925e-05
-0.012768595623605213
0.015516985835167583
-0.017269560785390454
-0.050853823004045326
-0.0020184455576101453
-0.011673758609831088
0.006702002323388566
0.05641684095674296
0.04334057709187836
0.0927336390726566
-0.022430377663101915
-0.0030176313556336512
0.046844849742438834
-0.011617763456638189
0.055261214457908
0.07129666383698595
-0.043824555778367275
-0.005992917467040862
0.008676190608248802
0.03817251676564686
0.022719649176717358
0.01286249598049118
-0.0010256204868238055
-0.05104157102492362
-0.0016276599923745407
0.01695555805982061
0.017268518949008212
0.029425977667771972
-0.009096156899789546
0.04749465842259076
-0.23900645930388542
0.04176876138481411
-0.1859360103828422
-0.14581119608013746
0.09558092885357963
-0.013094652517182786
0.013782317597705462
0.009227693769754913
0.030215635324459676
-0.035076940756679095
-0.015397213923390565
0.00024935798484533085
0.016507693712088246
0.0069942228722217874
0.03172351699271828
-0.06267565376451494
-0.10599879065104313
-0.024248388978671844
-0.07928509362140897
0.05284509784280927
0.005248063479736868
-0.0018835599592130104
-0.015733102399585305
0.057954466724714555
-0.00024128519530564383
-0.014834399319368823
0.05495171563269327
0.037324408900973806
0.0256009965096961
-0.00136873527577056
-0.00870817037226464
0.006403951092022185
-0.010907703621012208
0.0004221792780735666
-0.005208846115942008
0.025839378293637624
-0.04038507142252793
0.0001942017249447429
0.03631542347636147
0.026615470473141535
-0.015292673247941181
0.03448327719559437
-0.014152208822654548
-0.020856458002646506
0.006000592492843167
0.02062737724115499
-0.02505938322756152
0.019491842782846897
-0.04123805114439339
0.19346990701063602
0.23913910484762266
0.015447185325573784
-0.0413727771372055
-0.017268886144433393
-0.014742328016705698
0.010388172689511624
-0.0038754410086876143
0.038468388582475255
0.0049756411139804625
-0.041158736444184905
-0.02960318502766097
-0.022469794876682193
0.006224858478970576
-0.017696843283982328
-0.0007171467573501292
0.01202089168984935
-0.004838951400883979
0.012176737634121929
-0.048987883697878765
-0.10482637224972716
0.0013901193541700474
-0.0029504590328216784
-0.01310635104319602
-0.022191711662239065
-0.002550338430453155
-0.05883971140706679
-0.04323245093621332
0.031203603894112246
0.012884075797135488
0.02776807858565095
-0.06265387593289458
-0.028657255085428112
0.0026572697755657382
-0.009925553855982056
-0.02894722101849309
-0.05204115947350769
0.009289955117486398
0.004677009349354165
-0.017273956898916136
0.013709011293270847
0.010524591696186952
0.008760232560302573
0.02767441224287708
-0.0066328988650892545
0.016426246384132245
-0.011691548212446527
0.004627494075331704
0.07705286645193837
0.049818239750176636
0.004135026086620151
0.011499570144333598
-0.0205013933805413
0.07385572995367519
0.03490705790532929
0.021604574776501562
-0.027634755003263435
-0.0006321826576033208
-0.00440156707724655
-0.027913334668476588
-0.0014597964111946731
0.019845110679623384
0.00607217069065605
-0.01494985386989629
-0.018130440410138466
0.006491117459384676
0.024077426348213322
-0.05268242327378299
-0.045932173716664006
0.011584990393138771
-0.010303051559634017
0.005855477272995572
0.06070591118344178
0.017981128050193248
-0.02580784812673213
0.02949205415902211
-0.16998286180706224
0.011118275691420371
0.0988495733385558
-0.019051263921027427
0.01070493788384842
-0.018381583248043534
0.008456008076879441
-0.0031394024317704158
-0.01984257203281883
0.010498300121326085
-0.008371077622106367
-0.0590427123792614
0.019683854867802823
-0.01046504968076486
0.0001111069640877828
0.006373519963371874
0.0017964583302039405
-0.013080070769192029
-0.026570957533551137
-0.01418843498185854
-0.03387562260320085
0.13146700480465753
0.17589225587791057
-0.044161572858737466
0.030315747977660668
-0.032433065522457664
0.01726835746862901
0.01737109272426442
-0.002604279758325509
0.0003984016865816547
0.0016289944804126558
-0.04713529918109329
-0.006199619438135161
-0.025000655011808048
0.0035456753409421875
-0.01651783989732359
0.03431114548575601
0.01283058801903123
0.00419485336203188
0.023347870608798886
0.04684603578371429
0.01977222498281607
0.019882386448984303
-0.08143058300732461
-0.10585221611408845
0.02218265378153209
0.012265524157417277
0.0123039795931358
-0.013230120973986199
-0.020136142332716784
-0.0001992205580288919
0.011873530794584423
0.016062769726604944
-0.018103296657021685
0.005370062340318524
-0.012829664490342048
-0.027383273254212116
-0.03508010821762981
0.011247863796937123
0.004902812568485149
0.001219434937260739
0.006520540991251741
0.004931906182388764
-0.06628912766645192
-0.0203800883131153
-0.005473848109127746
0.012337680810731909
0.016027119738913888
-0.011086978356704254
0.006641344948475533
0.03330821907698614
-0.005927039636176552
-0.004324998423857659
0.007567584247760736
0.015232368495163833
-0.08706339573140585
-0.008277008293040181
-0.009592484754291052
0.0174511272169009
-0.08242684881816126
-0.030286865670540224
0.032005887439826415
-0.02598848712004777
-0.006970959872267878
-0.015655634037654027
-0.005348481710102491
0.0006256278368507913
0.015861466904108137
0.017073227836881852
-0.04708220319196178
0.07891057399728475
0.09432610294298191
-0.023552921040649932
-0.012178522654095051
0.015183773892270673
0.10385643530892132
0.007752190777707438
-0.0059126673729802195
-0.043953360143346575
0.09310022618143594
0.07290447065452568
0.005755632575682053
0.006273118101622031
-0.03632881540516104
-0.016236162347182437
-0.022827945569863995
0.017277474498282493
0.02400736742417861
0.015395982591379025
0.0069242091630436235
0.005401154670468206
-0.015771171480724388
-0.0001446542884293978
0.0006605307030576955
-0.005504252795971623
-0.006993650212355335
-0.011883664004595139
-0.004872540022784648
-0.037624780112164656
-0.04201809505329399
0.012094721581518595
-0.010893594770379796
-0.012263293094410765
0.01038037953225295
0.05766249746239862
-0.015422000378599737
-0.023468568748624016
-0.011179760555455798
0.019526481760149112
-0.017940812080809727
0.022348423215693747
-0.01494457134951818
-0.011399657381243895
0.011090008544406914
-0.010881552318111463
-0.006830663071454042
0.0033315461980621955
-0.000615553158180901
-0.0002707094487004597
0.0007539053985167994
0.02553956828997288
-0.005842158591465662
-0.036134737597133766
0.001153661452566909
0.0036393949685762234
-0.048953017192575034
-0.09490448537778122
-0.005911704987759089
-0.026678142181994144
-0.02942027762646696
0.0035657301266653917
0.11446430619561128
0.004221852463273242
0.013764737738102226
0.008197019360579266
0.03086294598363768
-0.024948360946041737
0.09700354274635403
0.07964871196838239
-0.02828526116107163
0.05430135678940107
0.008634488671048218
0.006332105825486633
0.026885576731639164
-0.04336532183818918
-0.05984900922626039
0.025911761715027355
-0.0009183375498789342
-0.012101324024991944
-0.025202799427728313
-0.015340968759099044
-0.00037947971064137425
0.02227803786715482
0.014247158315136994
-0.02156302812985218
0.018047985849593523
0.025656261612471937
0.007563164198131731
-0.0004927521411451297
2.3183841346951335e-05
0.02897857969559817
0.01865309906320155
-0.05759001305360203
-0.03010468362181826
0.004758728130315709
0.024003968432982605
-0.006315746401162882
-0.040054924300331494
-0.004175508771213636
-0.06167248805056383
-0.027296220739328494
-0.02420841910352701
0.005755037743889215
-0.025527482373874328
0.0569404965367137
-0.039609308402185406
-0.058920448460044315
0.05298736402181988
0.025685615943682995
-0.01671614185078791
-0.022319480220574946
0.0079215603864145
0.017558219359483852
0.012197474652279768
0.009780777491647052
-0.010547831475194301
0.011806217072129277
0.004411881295633176
0.0013962126535188952
-0.0594031554719114
0.003658502398915761
-0.045648021665022305
-0.023483881232017327
0.00781724877389346
0.007743022076535744
0.006267932381657992
-0.001771619402187949
0.028223323160995694
-0.0007712867019581332
0.010922848657368173
0.04106944626375991
0.030621489319130713
0.010725077349113868
0.01766420102551061
-0.0015373323823571947
0.008827915951977799
0.025703612556535638
-0.016093861540710068
0.00155749396764802
-0.003701697376401599
-0.03930257402733014
-0.022655713223797492
-0.009526213137113741
-0.024448708464024586
-0.005275515788900842
0.022841259062841446
0.02010661208845262
-0.05308468435978478
0.020379872966064725
0.08478473462321631
-0.04311789929573962
-0.02294161639242502
0.02277712593843645
0.025763405524406865
-0.0073580032290995944
0.008394185322387646
0.026571075263420948
0.04257241246463575
-0.019508638810227085
-0.01957759139229258
-0.004289189886766994
-0.01706398232091087
-0.022837148692907816
0.03095677871114228
0.029195294044633165
0.0020606351846596954
-0.03565427421306954
-0.04982333983322837
0.015499463623633797
0.029791762116239937
0.008196190742489316
-0.012707209194029984
-0.02286652860473615
-0.002975484155787704
0.021332903393556514
0.0030073482310670257
0.01054734414994129
0.09900208909781441
0.015631519192776035
-0.007767298029344571
-0.01151171401790806
-0.01983607186262631
-0.005660474141721515
-0.013584392434486529
-0.016921334541982722
-0.1306909742100971
-0.06847196895233489
0.054003247309104586
0.023000638734281743
-0.02157815499136912
-0.013137923669791392
0.012391660304599338
0.009417307522473002
0.0327365027328207
0.022084995619412812
0.028428712353073544
-0.027393678502954405
0.0424217807079923
0.00394243911667966
-0.012743890537669689
0.004492266039287779
0.011468917523654075
-0.009065859981583645
0.002848275826757106
0.003061175911820064
0.04378846883007084
-0.003924344982399894
-0.0005983812022525725
-0.03757017432290263
0.018225638977420508
0.016872569940655942
0.03010512486714141
-0.0026897864210743395
-0.01193824546640513
-0.03451471102657363
0.0049751621646347425
-0.012382444903376755
0.03965461700910234
0.06421410419389212
-0.009198315671343878
0.002740871603898891
-0.03454356558137306
-0.0016193230771151157
-0.016819069703191105
0.01712067416218902
-0.003209282995589523
-0.04363701157401905
0.01538153050050209
-0.02121959307704208
-0.017140290407567857
0.013513951474792342
-0.03391411950762733
0.04286479835816472
-0.011865362221857833
-0.18338054593182612
-0.02604628176400918
-0.0025293225125249397
-0.03286895462285408
-0.029150615228231782
0.012200003249370749
0.012609992604678995
-0.009340162687032137
-0.0019532549514272224
0.003128347279387056
0.0212616706368339
0.0911882997764478
0.10151391662390749
0.014333366077054502
-0.021471833781814522
0.019117220712718593
-0.00015610881794059272
0.02428672002166992
0.01660187863992267
0.03702444367492527
0.07326336139937344
0.00034065677039393517
0.01865864693304575
-0.013380414369193397
-0.03858664055238895
-0.008707076814168284
0.017807328286652012
-0.016689864086866745
0.02725048624148312
-0.014838492628090177
-0.06483761155208957
-0.008859791872227497
-0.010347537566505634
-0.0139804481238708
-0.012162498890570153
-0.0033133987578055505
-0.008952714549407761
-0.0004429493080361845
-0.08811021479586371
-0.0037062093035356335
0.009818674255796897
-0.008328699651263514
0.009448050124372507
0.00967522933753068
-0.0005798033962582307
-0.021248047801022907
0.004939948362151872
-0.0143775486302929
