0
0.014752678006834575
0.019812833361987123
-0.006193074130020054
0.009359211839121556
-0.022768887912247966
-0.004090964002984985
0.029895274942944864
-0.007413375940946501
-0.009004049408716002
0.08122997152763177
-0.03504613090547703
0.057632277000998454
0.10092292449050999
-0.029522001918171368
-0.004343102227024163
0.019357813702359488
0.08401411108594553
0.02965631792867081
-0.04299132576130641
-0.007736609669657282
0.017571973598977542
0.00888307649127299
-0.0010827842519712681
0.016696925890280104
-0.01373599856263854
-0.006640614631977691
-0.028248477523695165
-0.07986684348379802
-0.013122408666768537
-0.007710523616296002
-0.009148491120077887
-0.0113354905544435
-0.05597935741506733
0.12924544132599525
0.09843387463801102
-0.12047180782028623
-0.19925128406690976
0.01179091102045273
0.016848740569809617
0.0213007647654806
0.00473685009535328
0.013525036078668068
0.006569300438510451
0.055974495386073984
-0.03663645548457247
0.022578523461899827
-0.00032848785814400006
0.06800740907246712
-0.15040343914122337
-0.13330007852340786
0.00422579322933789
0.034717645368020716
-0.06692724295485082
0.12447447010673302
0.07431350289540427
-0.22165635936375636
0.041489621701583886
-0.08038990228731228
0.01586190139740408
-0.024431494572843476
-0.01555367598267732
0.0031389779628804818
0.04242514408986481
0.029654676228116746
0.038799395421442506
-0.05515101093524598
0.05449879757173165
-0.004676602549915894
-0.00892410236785918
-0.005434339710521581
0.02498655081489575
-0.02853785169466857
-0.01020176619809742
-0.04233764449387263
-0.03416039082918543
-0.01901878331189842
0.18455653364375038
0.04472902773958006
0.0596339534617801
0.049252965944514955
-0.018203624052773548
-0.035380698497384004
0.0837334764058756
0.07635518526532845
-0.035711696458748006
0.04073476892930541
0.04599715788557666
-0.002595923891082579
-0.015051206624775468
-8.894621174273508e-05
-0.014841654930931283
0.006128359419523743
0.03312630055835237
0.021680526092424872
-0.02726481622135708
-0.022901284807696327
-0.015566694168506662
0.0028043703041497085
-0.02328603762084381
-0.009499465203676748
-0.010139326422048683
0.02639932559224121
0.032963046552719276
0.061974975465191776
0.08744989099961631
-0.022455824104837933
0.012871860278389997
-0.02568979606753017
0.023905009035069688
-0.04997942553691085
-0.025008569141082286
-0.005881920686209641
0.0033311268861711202
0.008217319881102152
-0.03338713182977149
0.020926181141937134
0.054594598877784305
-0.05614234238260396
-0.11562250764796114
-0.0028439493196970992
-0.019696617471853355
0.015138794057613926
-0.026460426111782964
0.009443503090207375
-0.05067776242439343
0.03226141281414558
-0.06332475583180613
-0.10374907262427141
0.05368307788056985
0.02174043699777915
-0.172107168045974
-0.07598092850329319
0.05279224666578788
-0.006813031738721692
0.00395510117822478
0.004365056295651877
0.03718379919216022
0.03294013451722776
0.015192734694293443
-0.0026290950639174574
0.013572600575567802
-0.013276294258976593
-0.004621348138607213
-0.03241701188814133
0.05646604009517122
-0.03142802719566881
-0.1500959010566612
0.0320496253529509
0.020064906819525073
0.019288156646955178
0.027290426701113125
0.01020023214570058
0.022249709370034804
0.14745377545540275
-0.016419702773753448
-0.02215342470776069
0.04062750113734304
0.010364379137094494
0.055075283030710326
-0.012191172073999666
-0.0022116690077805035
-0.009823472294530232
0.010874046035957749
-0.029990671408980932
0.005043069554851209
-0.0029563743803544904
-0.007448268015828061
0.02898105100021203
0.034084914944427655
-0.023229623448472014
0.04245947329068936
-0.01983618797071371
0.01653247164593964
0.0014945632398059628
-0.031107791741552173
-0.018635480811393896
-0.12244250425879669
0.01518019270483029
0.033996818753871616
-0.018670503147963636
0.06777196310258901
0.13458780819314775
0.018564316863086815
0.0002790698139555416
0.043145141927936385
-0.10401001231986115
-0.13132147792736562
0.03242945639033727
-0.03226876767414651
0.0058773311361647275
-0.01729243267589226
0.014008300750548099
0.062201098334799226
0.003296937390888627
-0.04191704337946617
0.029148724404669632
-0.009161294140402808
0.014126669993148964
0.03439637090220159
5.2505757661741404e-05
-0.01836111270902803
0.012219268285652292
0.03030764965628184
-0.0242692077754049
-0.07267569108586944
0.02264187477140413
-0.009953300690673997
-0.011537467691827263
-0.009077947092124344
0.0053815714971839805
-0.00985410049160451
0.025639670840864177
-0.006493935066319076
-0.005026952528061784
0.0023735584020718042
0.03154800362166264
0.017438185978598145
0.005088333840437707
0.004392833532611687
-0.02594252390997905
0.004381905799328158
0.031913685049955884
-0.011363039117425889
0.02977080934897058
0.029709840525615698
0.005330616169044221
-0.02294444402888982
0.005532480806489184
0.02753882309182892
-0.03182875168723414
0.013933099621346597
0.002613070427673863
-0.12998871387352853
-0.04054598165449266
0.005661005204493877
-0.018725706514795635
-0.005357678784405077
0.05402991971800649
0.01634399766290775
0.06419645778602745
0.0834371297489491
-0.049960955848311776
0.033444135560511706
-0.13136667619512582
0.00420662598953647
-0.02294925962162754
-0.05094771230006447
-0.021435654233592494
0.04278020243702939
0.043548876623159295
0.04692027185482919
-0.16552239600059845
-0.0992646610117502
0.20287192492648012
-0.004457465169496316
0.03447633336348502
0.007167874716530283
0.08149082086617306
0.012568498745206198
-0.010947661760696972
0.008711579751575242
0.015474600898992443
0.03883616976452258
0.14745197990807393
-0.07277223434855949
-0.13666188651993408
-0.012449662273090238
-0.16237006324616968
-0.06307717220629781
0.0408864193425661
0.02212909547986363
-0.012709384932971397
0.00013569025948380523
0.0009692519468738606
0.0421218072234472
0.007981672603110425
-0.006701031296907954
-0.03276922256610935
0.023504679872018503
0.018299878509553242
-0.01722514690020502
0.017247978914434862
0.03304165943737147
0.010289882226036887
0.01027835616283451
0.0335010254847646
0.008249684714128267
-0.03820790762929327
0.022360743119242785
0.014751691878091475
-0.01605169192593074
-0.0023365752482016936
-0.006970750945499614
-0.022862998981696084
-0.075047355952527
0.06289678674783886
0.039573366218897184
-0.011738118408424711
-0.03206268003341833
-0.0030460521329392786
0.009831287657496959
-0.0003307159562624767
0.0017594466500011105
-0.003578122113882247
0.02414646175718605
-0.044908658575615774
-0.039563709250720315
-0.023190415031095275
-0.01641655793698512
-0.03715774953640287
-0.03859898161947311
0.13051355295507003
-0.018899976822517157
-0.06068466891050843
-0.0015840721674725126
-0.022482323014397662
-0.03935685529393483
0.03550757934379659
-0.04867703651992709
-0.0055437465892107934
-0.01956562743894152
0.21901957895279597
0.08109179207242193
0.07733327571725288
-0.07124950239247506
-0.09895738806070425
-0.013906178056595357
0.031102275436021294
0.11116143926577059
0.006864872611698341
-0.03526342481564913
-0.024425748712423114
0.023560709970307087
-0.049253456975409414
0.08876821382196926
0.1602938187326977
-0.00039739830236472937
-0.04544626586312377
-0.001433204441833637
-0.03394865172048877
-0.046108255819504604
0.008074262930700859
0.005863321812712015
-0.04389647011561786
0.002684148902760356
-0.05455875037837171
-0.09544841954199246
-0.004124147543034472
0.037625640911052374
0.018896897622777794
0.04850028089146929
-0.08810292304379548
-0.12573740074506867
0.11757906517973868
0.03434969748112919
-0.028875344434297335
-0.008794978008934416
-0.01930360548947943
0.03551442811021288
0.15039626752248567
0.014562490989083271
0.0055855758449148175
-0.08616140088322957
-0.03337405835876877
-0.012352642198769265
-0.017641210763066968
-0.0010668292242966347
0.01813881983347848
-0.007900049653802114
0.0006333529725282914
-0.052442644244976584
0.030939694372194692
0.10750792973241342
0.06326463343960387
-0.009818547667724968
-0.04965320854727563
-0.09939286954384702
-0.0012961248836702599
0.007478810457672431
-0.005400209197964646
-0.0042747174943827656
-0.006003355746185714
0.007886695358780471
-0.002091689595623991
0.013415209433579897
-0.006860476842509156
-0.0026738005103377903
-0.022902827408574987
-0.0070649168245363134
0.039971812266154184
-0.04703298308704841
-0.0020265117214763075
-0.014943187898446708
-0.016374865360128575
-0.013019916714206804
0.008261110804225917
-0.01244662302510738
-0.008092870105613171
-0.018607309572835642
0.015476324130898656
0.013315513501708846
0.04327100508661212
0.015300374003799796
-0.0008640516036362979
-0.007743343625551982
0.009572393006176783
-0.037957236211419165
-0.00605875914179401
0.008068260832842785
-0.0038343400133067844
-0.0151766131035188
0.0060662550733486635
-0.02721283381933212
0.14681644102684796
0.1403230224492391
-0.05429848928673036
-0.023431202766538307
-0.03156058930661774
-0.01554726712475703
-0.00370239157650982
-0.015479873150074793
-8.044646878904122e-05
-0.02382750199975314
-0.0103063048940891
0.011973332795495764
-0.06956276905410441
0.012520749364792742
-0.04635206078879457
-0.00515579193728429
-0.05915652248119886
-0.09083780531552751
0.12211075623457163
0.028666665680643307
-0.10175011097283002
0.03671137226033519
-0.01565929514092775
-0.015869419178614282
0.0023837569976900173
-0.05720152210626715
0.10588829985828459
0.11558975576140232
-0.0032475395512649966
0.015771474908954967
-0.01025043576434922
0.015903327609743813
-0.007389820638008806
0.00840520072374587
-0.05104249020275975
0.004763107921407471
-0.03477978334624652
0.01006591712835307
0.008835776370757957
0.06732268420399208
-0.06045905118045078
0.06603702522879394
0.04291403276292276
0.04294659352575614
0.04790315484290303
0.025557805005446427
0.08252317760152421
-0.012110310539003093
-0.0018867089641573954
0.003071409204512356
-0.0013395647579547878
-0.03706062083247055
-0.009910518479856759
-0.03650368876295206
-0.017506083508853056
-0.010120083809429399
-0.041231828877044116
0.006545965956568228
-0.073162170140182
-0.045451613127624926
0.01572479011634316
-0.0219994022917771
-0.01726126656643813
-0.0015540066076064345
0.0384531228166975
0.0044291144700483965
0.039370801905449226
0.0464294661991536
-0.011884145492713044
-0.029691561375695123
0.028987658570048393
0.020851007294564936
0.008609992987779326
0.042258163890864064
0.03560066966565881
-0.025165383876141922
0.01580229983168348
0.013431173510615969
0.01110827105414833
0.024779798419065226
-0.009105435573185518
-0.05709885373865362
-0.005221716432844801
0.009476599156963313
0.0004995146612488435
-0.061157795409403914
0.05670162901624021
0.004199068605852357
-0.16623453366178875
0.010078007592002954
-0.08129504862064821
-0.07180779375897385
-0.04900783678086174
-0.0038555316747555524
0.00596152504320793
0.007867355050700802
0.008746055240898283
-0.02556256095068909
0.009440428218027057
0.03941899160329195
-0.0008234455027193805
0.012138976533132222
0.041907220514677455
-0.009079053425400795
-0.013123522109603897
-0.003562579334498203
0.02651950143586791
-0.00034344106967533223
-0.01284381180930775
0.0169746073124095
-0.01529798830919815
-0.029341049749701947
-0.002264398639348667
0.026467862164442132
0.0010299306277081596
0.040731455197637025
0.05326517034475499
0.002886408347400006
-0.004195165631576194
-0.029014054414582578
0.010085213849420668
-0.019238370614864404
0.01046222350582171
0.03332042668140435
0.016926155217712617
-0.005554588216925898
0.004430151335713918
0.019215963338073374
0.025695594025393915
-0.025277707441289106
-0.0290726173342122
0.009881148494962338
-0.002730467412187403
0.025376438883995177
-0.01413858712855434
0.004810685308515525
0.03263594265921423
0.0016626764530092374
-0.0341822116515703
0.013171865033374872
0.08301156942342476
-0.030805409061955964
0.011054132153303349
-0.008827829260159648
-0.042195024012437764
0.011932831032744937
0.07266774298110927
-0.00968255813564018
0.03185937533023825
0.0024233775115455277
-0.07594777334947549
-0.024585137730437624
-0.0073756311381896035
-0.03219160776017853
-0.017649203171096816
-0.008484558138243156
-0.014091302704205872
-0.00411757179749156
0.009139381114997826
-0.03613897015820086
-0.0034794925518196965
-0.01242545666756527
0.03237834692011191
0.012300712977174827
-0.09916668827766191
-0.02874417954551918
-0.024748541390980226
-0.013116633351188272
0.02546266716362104
0.2349267489123837
0.02049530697550072
-0.025775857521963253
-0.02889943609783824
-0.007659941432312858
0.09281974950308955
0.04190457106408494
-0.06518354733307678
-0.07294562791034769
-0.02500035134772724
-0.0013487909279070655
0.0003817239574355344
0.052653258664563315
0.07328471833456687
0.00039070854525153096
-0.03439761776203052
-0.009163105456834816
0.008397864371592848
0.012308974376359727
0.016464706706827363
-0.007722797441427394
-0.015953543623663854
0.0033622800525821774
0.028257268659623618
0.015209597130076696
-0.016855536512900934
-0.06591234543244184
-0.007070442507292275
-0.07591142935338643
0.007432094825918854
0.09623872694736914
-0.004709614784562926
-0.04561830360235706
0.006787460529983788
-0.000360336060900891
-0.007213626376552141
-0.001737540663588139
-0.015545854955437342
-0.03052011250548123
0.022877112819510485
0.033774152621924514
-0.006020831591605117
-0.008694273129325433
-0.012832934465473464
-0.03741146602453251
0.024537068186169953
-0.00036363670842583966
0.13091281448720943
0.0433229705074771
-0.07010484192510971
0.014022431851327325
-0.005695146273358118
0.003082337961411265
0.03228351330281215
-0.002877338085744275
-0.025662723871785833
-0.03852949974785866
-0.04253390893830468
0.011572943305749903
-0.068141479667858
0.05149906400269422
0.031648419922681074
-0.024883762579886146
0.019639316629320887
-0.0006117816350361706
-0.013135339063800822
-0.008827988853085854
0.008316539081454891
-0.014967435538825428
-0.1308829732172254
-0.023523092942192382
0.0030045865809910396
-0.004216412376372708
-0.009989000539071688
-0.03099080935159852
0.02049333498866981
0.018951723434906958
-0.043991567587956595
0.014272921251880944
0.08710037336605288
-0.008861265774225552
0.0007902937120037841
-0.022811378443905204
-0.033777395672297095
0.029554379133787636
0.0028042435676817958
-0.023137155716578973
-0.021171713463538234
-0.002873396814919314
0.020249017718292038
-0.0028276912739876184
0.05923149800895478
0.03490947900728959
0.005294672740330012
-0.0067087314343641504
0.11202085737569766
0.0065554144696959036
-0.011279089539929309
0.011100835177045914
0.004837461684974793
-0.04004011409716413
-0.02674800285139236
0.014730374525290128
0.10137744889272937
-0.03951762573212696
-0.051958645289196685
-0.011699518255222882
0.11943360692745268
0.07729397096953958
-0.03187077653469655
0.008009477961578552
-0.008022579070449487
-0.009081728197899638
-0.012435698334678667
-0.06654860554755522
-0.006748816949831651
0.012320610525067072
-0.02944180267195615
-0.00207371270760231
-0.027527759477248316
0.015150442736352982
-0.029787322259155934
0.004705126950231696
-0.014747833646804376
-0.00772140039434218
0.11160976641718885
0.03968095962575183
0.014246318183927631
-0.03932455883345165
-0.015780112934191584
-0.005280831142328692
-0.02131776732173922
0.006850958765078201
0.00523873012353124
-0.016337143338993887
-0.019598043074694958
0.008436235157187886
-0.0004912080275310155
0.00861130074418073
-0.09716506580605491
-0.017101914190866322
0.002018450365524399
-0.0019449116840688423
-0.012007467331839326
-0.01933084834875366
0.02155668930704131
0.024260994112782045
0.01846482970811631
0.031843951666288325
-0.006568599379997702
-0.0028250711641542286
-0.05588131279722745
0.00491212785615587
0.0032288731891370525
0.014299692743651648
-0.03652747019607166
0.008885604789661078
0.01699486955304931
-0.03458666922697787
0.012740311464566719
-0.01572611558261487
-0.007599500149117765
-0.024516595208419912
0.008524948616050248
0.02452092426299546
-0.004431090027896043
-0.012038688672381202
-0.010325535451930264
0.020553046831747045
0.01605722797142306
0.022274594285525223
-0.01819233481813102
-0.1436064810911152
-0.058022944980893
0.01939063730124702
0.0677578236711794
0.24275530958893504
0.10512196610937985
-0.01829461853508548
0.022897662853520694
0.030782863103666357
0.005278547905748445
0.025936957071195196
-0.16029179766064544
-0.06632427665252986
0.005557793080052122
-0.038042428091639005
-0.027407087173479092
0.011800044566053679
0.05714937211656362
-0.030544823028046543
0.03422737339105669
-0.019465510233126752
-0.0027989587878109283
0.012752883116586393
0.009226505866220055
-0.0006759427707106401
0.005037135600165766
-0.0268801317454109
0.08983216622181028
0.04850948267986597
-0.0450065480708702
0.03098666677570097
-0.061661890005728436
-0.25772872497540955
-0.0054098475711838
0.03780676481112258
0.04483190826076152
-0.008626587747705184
-0.018252979540822455
-0.18415965352947442
-0.04052859557978368
0.007904483170321535
0.029276587358051494
0.10352488499116816
0.21497996849527884
0.11136096853139443
-0.038340989503899574
0.015535046897708914
-0.023131630752265226
-0.0587061856764089
-0.05203334930544369
0.015507923201058777
-0.014573073964412715
-0.0020605551781719567
-0.01672000393108869
0.14683953259212812
-0.03503397119233462
-0.09444530123542969
-0.02232857810556704
-0.012897946318225077
0.04793989011381515
0.005435948416244755
-0.0044398934607461655
0.07505533641371016
0.0338386931211726
-0.054306923436162016
0.024725614239008323
-0.0014192880998742292
0.011615517950012809
-0.005373201238094961
-0.020311109382063323
-0.025533656781402073
0.031981447602535094
-0.03375548782912099
-0.020474057859369413
0.003021685107372755
0.043145434636629204
0.07139470199486021
-0.04476886671368161
0.010897627719690611
-0.01836300449277795
0.007614649279605397
-0.023313042440358374
-0.009676555081098126
0.009973668804429014
0.02448399635803612
-0.008762705814530163
-0.000679395037562059
-0.011750052110794577
-0.01809188292322822
-0.013915165143143329
0.028673843628537317
-0.03177553455378188
-0.04072814508845904
0.00838612441002962
-0.0009530863434064442
-0.01609945058127552
0.023000738377988286
0.02999401741387004
0.02244585327717949
0.002615536666317092
0.038062502365965874
-0.0010674820685386988
-0.01768024151941039
-0.011914522953524331
-0.0024581943516710325
-0.022570123404981476
0.0023455308411078108
0.0501186762876252
0.00962306208645948
0.01987071343666805
0.01703623410253616
0.008669293156929355
0.01998540236890535
0.010744875693250012
0.06213382347853637
0.025764464031314736
-0.11835747088216625
0.017710214212948695
-0.028033131539268504
-0.0780929853099496
-0.04580898727982694
0.021614677740464636
0.029459394920146577
-0.0028523074879882432
-0.007969894638941542
0.045842656714122444
0.0002828528917997327
0.036674162605409275
-0.14036907149511268
-0.14780018262991756
0.10074363708104331
0.04077616535582467
-0.0013370443118423307
-0.10295687691433777
0.010144187020913513
0.042582348200583195
0.027555576308740524
-0.06949264894165283
-0.07288161187023379
0.028731016902785515
-0.015206315047172188
0.04778128839559411
0.06285889846653257
0.005480262986265653
-0.00039901212279918816
0.003217131602850125
0.010527273117349144
-0.000333957490939381
-0.01822089219144241
-0.025530912700210583
0.04095092397665412
0.07986428334997728
-0.012870323534216178
-0.0033173983393166395
-0.009227963266157956
-0.003118159886079406
0.005788311528468056
-0.05096832214185114
0.008458107977146417
0.015321119736527628
-0.03122980482572533
-0.013739299792314261
-0.003551904549545271
0.004420813709091608
0.003652475658476442
0.010607850558128443
0.056408522003291134
0.20210727627693337
0.03094373720231964
-0.03343950700207531
-0.07279501933807533
0.0004989301754079417
-0.028950252406942004
-0.03122509019865301
0.006009931345113585
-0.014984383907301425
-0.07030178637742297
0.03818773785203535
0.01837105442702149
-0.025795165596814672
0.035064709160509626
-0.023473479865226944
0.02574375294430984
0.049603225358082356
0.0022037491542377476
-0.011001689047873579
-0.05892809441708431
-0.02265213172158497
-0.03271941488008454
-0.04108254861229176
-0.0027602152035662918
-0.0499712584891444
0.00310634167841923
0.022473997258907773
0.008130215306767857
-0.0011892334334587887
0.0024029353033502383
0.014688120477843705
-0.015489007105394173
0.004989624430690864
0.06473573878971675
0.08559690826666345
-0.05994096202795342
-0.023693372430324842
-0.04056969913180731
0.04060515061561275
0.037534749029936795
-0.035358245650134575
0.03792161786750344
0.010722467347420208
-0.005986590724579903
0.023586180553896222
0.019704755092092022
-0.0007920908935027844
-0.01084016248062407
0.00802307566585621
0.028398626858150314
-0.0004798152106060711
-0.027856517181555095
-0.0196266138576242
-0.046927944886334054
-0.013928952729704652
0.016828702197550127
0.004609541030770868
-0.03086870541873446
-0.027317341087625065
0.012300037319862508
0.014671817169734615
0.01842496764836628
-0.03410128402964546
0.06621937391907835
0.10107859493286016
-0.030406438987332696
0.045683510849834935
-0.025124831409856014
-0.015510059930603575
-0.005041560980635794
-0.008795598863846387
-0.005067930648630179
-0.005558046222054646
-0.00578754440095386
-0.0036210896952087817
-0.02570334013852839
-0.18012854640296844
-0.024145028111936192
-0.006624138733126635
-0.003416693781276368
-0.03171720295468275
0.018415048821024484
0.000997790258133165
0.05267918297238047
0.11689508156896264
-0.023786475222069132
0.003384692292125695
-0.008682609051904034
-0.008978450437143112
-0.018152147564842864
0.027773267824188097
-0.02453116392704794
-0.025234055586122215
-0.0017657754243702703
-0.01584917508063954
0.010397260774709764
0.04292752226497572
0.05287751407443003
-0.007063280188679539
-0.023074897825837482
-0.016409935410977548
0.03295103779388294
0.00396988278775826
-0.012661173775464222
0.009277338186840546
-0.014287011668672724
-0.00844858614663597
-0.01145794758383935
-0.020103220822383767
-0.07137333819797316
0.0402090555636888
0.11180147073651227
-0.004887764108916176
-0.01726371550204269
-0.04084650731202092
-0.030031241331462857
-0.015326844321986985
-0.0201649440301268
-0.04522715166897011
0.12693405272003336
0.003887421443419397
-0.042049179735983315
0.02530362478363118
0.1001753093461421
0.0477414265234778
0.2639992849746485
-0.036195760483057324
-0.04044302761534043
-0.022220739462405874
-0.013826951472382295
-0.02187875185073421
0.05069887491320432
0.04528955028675517
-0.03416136249410474
-0.022217166860239005
-0.03297243829337685
-0.012885196206167557
-0.09608294930086538
-0.07888589591704706
0.016906725644491902
0.010858776307398154
-0.04220398786921014
-0.01643456150335913
-0.0033946434202147407
0.0058591827107159575
-0.03804601060560916
-0.08277249013817715
-0.03829145161274964
-0.020455132154170347
-0.004949799477517393
0.026149428001342827
-0.0004269488462020448
-0.0014797440235268186
-0.025616859583074844
-0.03145178849911823
0.010527208419820258
0.051639195409206584
-0.004031476249530378
0.00947629907338241
0.005105710604301353
0.039044612891496626
0.011179373144938531
-0.034221656882135375
-0.018550894818539745
0.023054493620328034
-0.011488035887437393
-0.03486246528394804
0.02956340214709927
0.035820696903971966
0.057704457180026765
0.08634360595981198
-0.025727365661198313
-0.029355319648598777
-0.0436438267854787
0.07620773803337316
0.05992978577022426
-0.04128174563105858
-0.0018268815282157123
-0.07894779382379444
-0.025193983049465924
0.04057346817878032
-0.01096361023889839
-0.026723624995591385
0.023458566008972694
0.04061339585098371
0.0327085433777948
0.14894388117405158
-0.005958278270813795
0.008554869503507994
0.03694551484217208
-0.053103545270687835
-0.03111843384555386
-0.016696124551161456
0.013613676449803193
-0.011588130210771815
-0.06487913750086047
-0.028799335113564455
-0.02479997409823939
-0.011872393748254757
-0.01297738365909134
-0.005091896748050439
-0.011414410721176861
-0.0236114263696778
-0.03374684847873861
-0.048832501681968205
0.1271146242579601
0.019971571191143164
-0.021920041616418178
0.054384493006840444
-0.013837908650267638
-0.03518414587026512
-0.02623893110146744
0.0005875157008077253
0.005558601094954949
0.00984879406557337
0.03333105502626611
-0.003276823252322729
0.009316457930878572
-0.0630468171531231
-0.027041691072932927
-0.020452951319470575
-0.06110269882196134
-0.016979947501187188
0.015000862957046427
0.006440706078240167
0.013289168291829512
-0.01639091756406026
0.0011215050115750784
0.02133925803527672
0.02471789593207408
0.032683337650050895
-0.015912139418023875
0.0174215624864241
0.06533519319060772
-0.024979067455806213
-0.006474178848497278
-0.029247219604525455
0.041793756624823104
0.011988991581827351
0.018720021747427276
-0.001165964219291269
-0.010609132498671797
-0.0008436975190217907
-0.03661103779575325
0.006538079071390871
0.012826798703945232
0.014049219490704139
0.012470807048501576
0.025905599688265
0.01743702784494475
-0.03906244340939942
0.062166780905213145
0.009029775252970133
-0.033407684313847975
-0.006765621325894437
-0.005011515782988766
-0.033290611003652396
-0.09234515373538046
0.032183926080565604
0.025311245876194217
-0.03252278031761486
-0.012829514403347255
0.017031709920181916
0.05628098472239666
0.004542109066803656
-0.001134958000995281
-0.0012769119333412408
-0.00034481367050214347
0.005980818218733832
0.12523359885891844
0.03193831801754685
-0.055628207174681754
0.032144511954058125
0.09157510564860526
0.0161216246460484
-0.04862506940865669
-0.15928304289028378
-0.12193125134107502
0.08294651668712491
-0.03457959623680059
0.041146981508662236
-0.004047374992208433
0.02384080975944085
-0.03534494580072561
-0.11355451183954395
0.005196367529505244
0.04734781215969643
0.05362961503116255
0.00473901548528617
0.013412757377642914
0.05313782289377274
-0.007084215583135374
0.003132397771673649
-0.0032028370789198442
0.026608780393409127
-0.06466626385038172
-0.014772990489523503
0.0009633687745050716
0.004137869634179653
-0.008567536179047862
0.004374696803058637
0.018665774326877167
0.047608136177034625
0.017616953718497013
0.027055584549717664
-0.0117560406272354
-0.0032936758448438475
-0.004494724294916707
-0.02114193893952916
-0.020984424021649444
0.005743591660659717
-0.06167964556292778
-0.14385990717513025
0.025671684037582333
0.008537757730408158
0.013216402236839762
0.00810982554028784
-0.016509457693408246
0.008242284766251296
0.011318358522594716
-0.0330498495777137
-0.005226464775747443
0.022107864227446893
-0.012695491665794473
0.0005115307013380977
0.05982961815245613
-0.022470433002869154
0.024555687008486236
-0.005385171653440346
-0.02327639280351386
-0.0018449195956084343
-0.033500089503415535
-0.017544700969687865
-0.0008541948859471437
-0.016188563947520888
0.03740971764008797
-0.0008699974066785381
0.003785960015429069
-0.013921218664090232
0.08368526943566339
0.14899686885965432
-0.025240347064841916
0.005818947678380099
-0.041706455710010776
0.000653941855807213
-0.0006930814789842963
0.0023232150310817435
0.002650054351136034
-0.022252953804613274
0.006141859869769587
-0.04417051934929273
-0.07287965560950277
0.01069247417260792
-0.007902836710453835
-0.04727480330275419
0.011844841723787695
0.016216108633838124
0.009530206213950147
0.015882634449236373
-0.04635769345954148
0.07494384771382906
0.13311421415256092
0.014563238597103081
0.02988804193433858
-0.015076564052020227
0.007267083156486539
0.06087662875105576
-0.08715831188141085
-0.1041824401814507
0.019479760809810225
0.005888090038009392
0.01124982273501273
0.006887933510654132
0.0007456375261996524
-0.023317618981304102
-0.023966643536360358
0.023613744044606907
0.02290738432422
-0.011813773908981128
-0.03505752776914068
0.004034828520760132
0.011701692493217562
-0.013199618060147056
-0.029825559116685118
0.00954742721914144
-0.0003420466533920759
-0.07009023902966359
0.0507750949604502
0.03239740474209774
0.008733384698308642
0.0005941116922755642
-0.004185840858423328
0.01769932718443037
-0.009382829285155752
0.026756639381876696
0.034953571321031274
0.0012183878063633626
-0.022074959001257513
0.06500465073498427
0.027037433237075116
0.0051758931636847775
0.05390404718524071
0.0014070612037638875
0.061021654682312805
0.06551603989420517
-0.011230161990972319
-0.040067870235851136
0.0156273068719912
0.04193379234541465
-0.006542337709846472
-0.0309272804579193
-0.3244045118901174
-0.05395369178376376
0.020179141488468996
0.00046974313941864563
-0.012054534688519435
-0.005354589760200718
0.004360307869391794
-0.008695634451569421
-0.004636007310902615
-0.0001716843879499252
-0.011751819336343984
-0.034313346947164466
-0.03982350152049606
0.04234201923186471
-0.0016680800980457009
-0.028381029197557386
0.011865523099020689
-0.05547420024846961
0.025050532931123987
0.06237643571037761
-0.005670190830473279
0.036665362345487326
0.16136244298949767
-0.011368740594319322
-0.022718901043226374
0.002125241288902952
-0.04188639920593074
-0.12753621317805947
-0.00945406508049458
0.01846162962473407
0.011986476203883264
0.09018095936844231
0.028258778711374385
-0.09937246954476503
-0.012276652620082387
-0.013824452118335079
-0.004783243736313988
-0.026909132261488587
-0.05421066129602971
0.04021452492913755
0.024395591139948377
-0.007540986635793845
0.10569456252439609
-0.004055816676011599
-0.0017470976894760266
-0.042703143633761695
-0.01889059683547035
-0.02203547461843745
-0.009456619384425
-0.008819327695789036
0.16096846217809302
0.023731230714038796
0.003924890816002568
0.08731033094883328
-0.01724644098074267
-0.055684954735717454
0.008530338531023762
0.11827811232159366
-0.013556926901744744
-0.020150716386916984
-0.017967956058662703
-0.002115998317168097
0.01532675018097392
0.011746120285097437
0.0028405431460109196
0.017458612916669045
0.00742057773317643
-0.01216289847122159
-0.03221514795041044
-0.043327263941078796
-0.06689190570512026
0.07453518047551372
0.03864278709402612
-0.012920097922022264
-0.03796307457094443
0.012404818990659873
0.06387553421430392
-0.004354818009224364
-0.0294594192706337
-0.015135165636684801
0.014047386395194972
-0.0014072997932017908
0.005167776426149727
-0.03379814147717169
-0.17225026721851594
-0.009364456339661676
-0.004075087015332175
-0.05442504437656305
-0.022528217853451788
-0.0006047118136668567
-0.003780268828053376
-0.016501646769196427
0.0070594820968746695
-0.016867316665715518
-0.009611058113906877
-0.07027069346903038
0.11307864843590007
0.10937360592798903
-0.044985670041489026
0.028028122696323488
0.08156158096649646
-0.007972997954936084
-0.030143649350674637
-0.03273689975402027
0.005596379576236751
-0.0813408864099856
-0.0344624850636056
0.002902461803368479
-0.036517183431599896
-0.04352788110412412
0.06205426881792037
0.12277640102731904
0.19524791282235524
0.002865216527998925
-0.06298423459257946
0.004579551011252031
-0.017027568931817116
-0.03912537173488402
-0.013741027618577597
0.004526171385523917
0.0005478527122998628
0.08682895435453174
-0.018625381139457237
-0.03414010195355839
0.04117179265294338
-0.043098611662284396
-0.008423615458303287
-0.035829009639186775
-0.04955384113066516
0.03499245003780939
0.01847828511148291
-0.0010518700635155373
0.014082828667321284
0.01585705876079272
0.005114576330415868
0.07114552662039116
0.042875442140405826
-0.0024320556992937204
-0.040187776659964425
-0.006572232035565823
-0.010557261505270147
-0.01728541771992115
0.0035398389779127816
-0.07239764921852448
0.015225129905806748
-0.00361647526118133
-0.01117442268321305
-0.02776708615037463
0.06262914441151064
0.08652514040918174
-0.1016325283497365
-0.015172125978578406
-0.04565177641172379
-0.008847781406245741
0.0007489365058459502
0.025244491847890453
0.06642288676229174
0.008651044492695808
0.003585474487909183
0.00928246642092537
0.006128018396879725
-0.04035551595011528
-0.011814966481452893
-0.03539745013971497
-0.07412958711045999
0.019184956157592473
0.013209754003050177
-0.009353181824034343
