0
0.04140950158091198
-0.0013762952028246716
0.005736092303743459
-0.005454917034838859
0.03683288039010668
-0.02154243412205796
0.011119027017033257
-0.01271033263881766
0.0017857723715751753
0.002312383038762282
-0.025531406998101636
-0.039988243247618516
0.02165070638363727
0.036203593115883156
0.022140091161384285
-0.003937593364812879
-0.0012756692977370383
0.008220193554632134
-0.0401792922132479
-0.011906006928639018
-0.04936219133540534
-0.01674173473663692
0.036832365072137545
-0.09841461030532615
-0.031613162999543844
0.012642796443911062
-0.010533435387152349
-0.11679438777772955
0.019464202285265166
0.008045428158807917
0.002674064713847977
0.016304027393873783
0.04911322549882946
-0.00918689966049193
-0.012213811053279667
-0.003008306869621329
0.023250108688259004
0.005102253081539923
-0.04333140380779531
0.018771258719417892
0.013701428336504258
-0.003059738777775421
-0.014088084846036696
-0.02231601772305408
0.005410020499295809
-0.01166496429994073
0.058052420253525354
0.06823658955892604
-0.03184549847875622
-0.02531376029735946
0.05832037720635492
0.02377844369212408
-0.04425219574595676
0.05815508416071211
0.051985166315486185
-0.033977029408119
-0.01885221561726272
-0.015508846423095472
0.04292621401313458
0.038203664451889545
-0.0005812053471028559
-0.06036922991710296
-0.022017671035019067
0.013208881388694034
-0.005916312645012253
0.03981197785409505
-0.013252830369303362
-0.06018182817556162
0.017144839290758794
0.00906076236920452
-0.015876918668016545
-0.04339577111104049
-0.0206544991819922
0.06773439313519908
-0.017627342156518937
0.03327727432274571
-0.043062902093891575
-0.018318344476820902
-0.024629502685653955
-0.031696932138642976
-0.025452551662418936
-0.017492823667541048
-0.027003680352785647
-0.01641895041825781
-0.006117530963667788
0.039152279951410664
0.03730817286062783
0.06424086987543566
0.004380976231978783
0.04427973466320087
0.1082866808186732
0.0013567007009548525
0.025654938188377153
0.016857441220739913
0.006329962408039371
-0.012804342330501345
-0.007319322874710089
-0.03298678860469407
0.0023651627789677758
0.014356042834323159
0.011094375348031392
0.038236430711381046
0.018301783185444807
-0.02690959122270149
-0.10453281101159774
-0.03157428615202398
-0.043171935250850065
0.035339755390000525
0.07900732405808161
0.006853874125462791
-0.021540870165669513
-0.021643753624899537
0.03092046493503328
-0.030768253552500166
-0.0007620084770358593
0.011353171428780581
-0.01701768158646214
-0.00640434565738977
-0.022334427757281394
-0.06128071885309204
0.01734687062729145
-0.026052766829867516
-0.04626987341041704
-0.03359106372259897
0.07282335947958166
0.06289401359180077
-0.0013297426175906176
0.003957196907979219
-0.021877842803780915
0.010286205506397889
0.019879381212506365
-0.011138842755684452
0.010563342264266383
-0.020229823033459098
-0.003986807701819349
-0.025697121105311384
0.06633037077041135
0.06019077546198622
-0.03919020184481819
0.028768293080652464
0.0027641678535733566
-0.00032993745601182323
-0.049991654114357346
-0.04202506827246072
-0.04273210509993838
0.008546507432854036
0.00816255432872695
-0.031071773801352717
-0.13774815684279318
-0.008695062255459868
0.011129938845080541
0.010181092677041585
-0.010083251620393797
0.0665314283243849
-0.001681403566720162
-0.007403098813878745
-0.033524077129095914
0.05871741827677891
0.03390079194421737
0.029845197651544225
0.0018819715089355904
0.07898656119246483
0.1181805989676475
-0.01664810860045011
0.018563271558369978
-0.005059599002634937
0.006144065160847397
-0.009603789947692827
-0.017035582442533257
0.009349055768256802
0.00400158094903538
-0.06111230785198942
0.017733309410121148
0.10842487016427803
-0.015420691284877532
-0.014667813751467817
-0.02731068039864404
-0.023146479834492896
-0.007290707672325691
0.002122236093151847
0.033016395558057646
0.008138614942708003
-0.011137433926829131
0.009900304008005529
-0.09607662426649145
-0.15821637278035472
0.019725421682979444
0.0008539893680023345
0.013613550499808664
-0.036878575128477954
-0.01103694956606904
0.011950976182254628
0.0234913591481821
0.017662396940443956
0.022359395207849783
-0.16864008400577887
0.007463727909914507
0.047969830546539714
-0.009492622164962215
0.018864189856030826
0.008872651903091795
0.017365660068091857
-0.020968233125380493
0.003202191689748252
0.07307501727364178
0.04071717922301066
0.051016715749077124
0.020781429630964587
-0.0036101658280132194
0.06140205651979838
-0.014599854115822807
-0.006261426174003442
-0.0010342090125862102
0.013762434206919714
-0.028378034268860024
-0.0009357567061903531
0.0025245948797120743
-0.0024432102344599947
-0.011266548476257854
0.017141375558214888
0.023374572566409672
0.004956041280984921
0.01622403918653403
-0.018892759465107795
-0.03709875830932707
-0.014032530195627807
-0.05203347516567293
-0.030539722734978618
-0.009443348748381547
0.007606904669844753
0.00645516564669395
-0.006653697678112238
-0.011346150104707669
-0.002541801554119522
8.441260825955914e-05
0.03664586498355943
0.000756137733396445
-0.017217806528211598
-0.0166807458416793
0.041790848808985745
0.017840439325283432
0.014055554647021505
0.03424608801094934
0.03701925205908884
-0.017372261763936667
0.009855578595510693
-0.04110204233121119
-0.055722358325357414
0.012193487309677571
-0.04479279365587765
-0.003515620357816108
0.019853267822351247
0.010820000781054122
-0.025358726357440988
-0.03336341131775698
-0.010647552819806935
0.011990026229391444
-0.0060384680711035215
0.02789168466162071
-0.007023025031035637
0.039626396861890234
0.08588623886722943
0.02962219060939872
-0.028211926737471957
0.003279806149333419
-0.025613583701402293
-0.06319291747870072
0.0012839089895804031
-0.015668723191662046
0.00715539901655843
-0.023234145271399963
0.003468214366117588
-0.004075692547954929
0.0031009930408387814
0.0005605751497037406
0.04027772959145403
0.039167147977741956
-0.0027204812009363226
-0.03185834911356941
0.004051824768751826
0.0036068064680755776
-0.03747001533295518
-0.027010963398063956
0.020133708790463112
-0.03700361541134236
0.02226245215330911
-0.148938875519722
0.12593147042671698
0.055333997001784256
-0.019769488974765513
0.03136820677600882
0.021353710358443728
0.04290844912824497
-0.00563249655927417
-0.007679337663144601
0.005270963908277989
0.04338523688364982
-0.013028543515016939
-0.02604672690186159
-0.0070846526023787704
0.046549088744245924
0.016298392027297763
-0.06042740083338292
-0.03442721512434186
0.008533439286704877
-0.02837724393687466
0.004541229931513249
-0.0018909498169868018
-0.040613763059348294
-0.06956149410426289
-0.021945214267715125
-0.028555898617507038
-0.016504332449332054
-0.005657919873195776
-0.022192215926557783
0.006062346464531826
-0.022435275281415826
0.05049969040978396
0.07742977822677793
0.006133620611669158
-0.047414785691106485
0.04678903004531836
0.2247638123342567
-0.027423428747600335
-0.0030272688139361976
-0.0730126968011513
-0.09361254420487837
0.0386001437091815
-0.0690251698461678
-0.0733863548452721
-0.007154435060861901
-0.010941631582059514
-0.009308187938394573
0.021048808205371018
-0.04624166104291593
0.1000425010030674
0.16085397503277626
-0.056899484576205736
0.002987311931640418
0.06591074087618004
0.026822022188002215
-0.008809119521669758
-0.04093096978191565
-0.01764042236100034
-0.03547085353159338
-0.026864312602690024
0.03123610319739227
0.06113502130941191
0.06735439638285216
-0.002803720897271187
0.01693774141962149
0.13022747953309055
0.04894174718968706
-0.06460219082605813
-0.045024237541440054
-0.014949997345430826
0.01038572831598563
-0.05494837416662508
0.02306272997416212
0.0769084620502183
0.03571773631696203
-0.04112435058867117
-0.03205786256519801
-0.0013984018582576937
-0.0011220990995946128
0.02841790551557165
-0.013823171749552117
-0.05628518525178732
-0.1334338932817372
-0.034490823894737725
0.038785730866758995
-0.054775776506937254
0.0109032687035522
-0.05917614468701828
-0.008290013181901324
0.10299908430777621
-0.02231716582240378
-0.027541745448714825
-0.03267501141191784
0.013611947522735932
-0.01339271720200631
0.009770759887443773
0.04007402630990175
0.015333435931621819
-0.006276456525023855
-0.008154083965570364
-0.015584723314844525
0.033122957421798674
0.012742974317695997
0.03500219107730177
-0.0016738292699596147
-0.005430887250507629
-0.0844224268694188
-0.04600187782760584
-0.008646245379206123
-0.0067705096721511725
-0.007780841314227668
-0.06901232400884362
-0.015378204745996205
0.011852573114870405
-0.005421658703382766
0.02005259976890241
0.02588544045909719
0.011845004932174996
0.014886629925835922
0.0014093572908811319
0.019495459294418916
0.034989315457996356
-0.014954487471561617
-0.011201946945589097
0.024397616944704353
0.016245993050337415
0.019149104762639514
-0.015194876787782835
-0.030820924161622954
-0.021863505409374356
0.012027007781177339
0.03644274789486001
0.047662159955103735
-0.05078426895368986
-0.01873242554039552
-0.016513723132484844
0.015302348195097914
-0.0105605324214985
-0.007010325580416275
-0.02451602550155806
-0.0026652296955159945
-0.007593510630599556
-0.001119879813906885
0.0029736549456869906
0.009002708486604616
-0.007246410242282006
0.12673799913513456
0.02584362265532748
0.02044164809574415
0.018038765224615713
0.041777599685788834
0.04072337770105598
-0.04402773558032706
-0.0016931245167756796
-0.010205130608040224
0.008132156719903768
-0.04117346387877045
0.03860243448051614
0.0019925961794641967
0.03404735689473414
0.02150142934694263
0.009110099371246069
-0.0029090633297083747
-0.01346516811404292
0.012444977670608686
-0.039899163904735684
0.011523535162633238
-0.03164593862826886
-0.029920722895331462
-0.06908706942221521
-0.014573011714147113
0.051551715372756025
-0.048550444461581334
0.010673286793967021
0.02455344478444851
-0.009131311980237415
-0.029326437957016362
0.009160943734266694
-0.009260058497314469
0.023103054653261883
0.027542939927998424
0.028349404084166252
-0.03190429988437446
0.008572824720780288
-0.010668231790560201
-0.011330954705927461
0.0007943126269413579
0.02176368907355667
0.009063174357203222
0.025701368490960903
0.010111900228462107
0.007242617005419063
-0.014633165769702071
-0.00880329842702753
-0.02180015008046053
-0.027394310799851253
-0.040714469918735126
0.013040680734120102
0.008167406399836088
0.005339807534474043
-0.06498502579754724
-0.03634680918701261
-0.0140934855636502
-0.006442928117114949
0.0034614797075101294
-0.0019469338847309117
-0.006930654437974607
2.081933482369992e-05
-0.011350814104589855
0.053599838201364776
0.009106648290307806
-0.019668721893615373
0.020081965944066187
0.0037358873704037123
0.011665029934079614
-0.03557763108822071
-0.014523665586452452
-0.002660355917025001
-0.009912355372369269
-0.037670201167929504
0.008592674665832837
0.010266290187157518
-0.031261046950997455
0.004015365833566334
0.007411211687530982
-0.027205702359479438
-0.01280679978593038
0.00667989284808134
0.03210098680117272
0.013006915176141439
-0.018057596877508676
0.003274008239185058
-0.03457924170630936
0.03652935785749619
0.22940805384779323
-0.001437777723042584
0.0007884659444500827
0.037206005555868164
0.027275659728986976
-0.00560248799502443
0.05623896140062737
0.028277293607879832
-0.009789030661489504
0.008817385426876313
-0.10722214266472235
-0.09597831566829187
-0.14104379886411902
0.08962677018051321
0.042993056813252245
0.12029402925739234
-0.010490786810240134
-0.08247210238112077
0.024153708145960708
-0.02393577527210255
-0.00904158103277435
-0.04596362328630245
-0.0068952458249897895
-0.04806963206519795
-0.028926838869016685
0.012116031846514249
-0.021479309490292867
0.02446030325434504
-0.00035885644205143534
-0.035811071067626585
0.07817372041543327
0.06309042925846933
0.007519176928029359
-0.04442887956784903
-0.00944502397886076
2.031938814449657e-05
0.006142995628486251
0.01294009619341773
0.01982930995552529
-0.06226321432929378
-0.1256143088257106
0.16678395971808826
0.0230173994404556
-0.04668514595247017
-0.012159755766650087
-0.024608677355049416
0.07321960109208392
-0.014421483618421868
0.1093252309035136
0.08360865090302551
-0.01817139886972489
0.0037166512944125044
-0.024613595025174028
-0.016894245507667535
-0.023112529223286243
0.02823351959485048
-0.016252954352034412
-0.06553153463989482
-0.08343248027547412
0.014592785463335693
0.03092490137117853
-0.0072227919087885
-0.06308195552133473
0.0006062547652982751
0.08282706579650577
-0.01044191119643542
-0.0063263110085121305
0.02153649825033623
-0.019191790986464452
-0.03558270076168724
0.00033942283583155444
0.020732073887377786
0.01587212554240288
-0.01789877466892978
-0.0427721769465227
0.057465928042039906
-0.04528555438541543
-0.014041483869314307
-0.05026058463691208
0.07916729717037085
0.05162230445491887
0.0031418047806221145
0.060789474262357306
-0.06432820327078775
-0.0008346577720361103
-0.011123116910117112
-0.006643690865445181
-0.023794751926041295
0.01864601478474327
0.00442831795667162
0.016703180775763164
-0.004031784561271001
0.06659002897385154
-0.00909745895260105
-0.008958784415357104
-0.07195247612507188
-0.1094300096611424
0.009830598074238328
0.001170551258120979
-1.7442065009040414e-05
-0.06859416311970908
0.04098942504424176
-0.003304858487217933
0.14247607070043797
-0.0020884977657790716
-0.029787623783576998
-0.035673370310992714
-0.0011644618149430923
0.008751409280828093
0.002119530140026105
0.04530955633099777
0.03690707883247235
-0.04449745703847985
0.047058850841059915
-0.11452559903982615
-0.0800425869026278
0.03545219745577241
-0.005950751724399258
-0.002879706425562058
0.02071821796515558
0.012639724844774944
-0.002380599690853382
0.10503482442026416
0.03701760422839575
0.019114806418849106
0.0009203995199006217
0.02479993694399092
0.00808690573220471
0.009418743238559174
0.016048839218066758
-0.011276457208572049
-0.003965794514984214
-0.02616091312232743
-0.006937286911768831
-0.015212189480016212
0.00043658524791351786
-0.2610081322122096
-0.018589951735687234
0.05752126694324
-0.011561171559713502
0.027131763510742268
0.002979809244789073
-0.005409013693870006
0.038185931413943136
-0.0012328566734585683
0.08119648762952644
0.18441650312907334
-0.020415712844855806
-0.011951249073344772
0.012990369301812566
-0.005295715053168137
0.02066462291019234
-0.009997603235462988
-0.01749021588641875
0.0428776453050959
0.018869245639776513
0.005093536382328649
-0.04211718029452522
-0.0038919814970526582
0.008529498296683462
0.03939685954245319
-0.037498897632444565
-0.0045590490020384665
-0.025611463756613332
-0.051146878127075655
-0.011402840265536231
-0.0008578123163047866
0.000328595058945814
0.0011402515413483595
-0.00221116021879819
-0.00018251718116816715
-0.038605974645014286
-0.03962930416523262
-0.025458152065101387
0.0046855218952039195
0.005188122001745344
0.004388239540058894
-0.14995100716126386
-0.02760596518554803
0.07663878960597126
-0.10372986459103124
-0.029127165216426915
-0.007779697280358974
0.012247699435896093
-0.014619633131868618
0.0745061496252739
0.018593648489553874
-0.008795575298312753
-0.006054870839452809
0.07063556717814641
-0.025928642136664386
0.07675162996806682
0.06757690094135144
0.0091398824173368
-0.0415714652303038
0.004995603652790462
0.030219612338463413
0.026105362745267553
0.03415277255191252
-0.027447775844051142
0.01290449046007194
0.008504308934153921
-0.004111877915131469
0.01179027551236265
0.010546934339998858
-0.0506896840350749
-0.030095255200764608
-0.02862843366595688
-0.006843417563119552
0.006711004561028525
-0.01648709380008002
-0.01828714375239412
-0.028459262503542672
0.01100857019060556
0.013406585217704154
0.007228738415219817
0.04656696551190985
0.05450113303219689
0.04156287786890355
0.003098484791097127
-0.019867359101216484
0.025740750304983184
-0.030985256782662295
-0.03704055762461298
-0.04136686572654638
0.00045396900792574283
0.002855885881414026
-0.006917543491705161
-0.02288008564309693
0.010294575512755411
-0.022680852233666348
-0.036457535461840836
0.029681943086206083
0.0645137933590011
-0.011347886391571265
-0.03013426662425555
-0.017819085412753115
-0.0088566753862043
0.008999756630696357
0.0029398012879807162
0.03701569854854778
0.08067078591049541
0.1471577486512161
-0.0031498565240245632
-0.027368666968223765
-0.004515852416911551
0.027328565367475438
0.01156773872634585
-0.021413997673949685
-0.012228622054209852
-0.0021423937848047353
-0.02291070429072683
-0.06121709202137299
0.006299094100239553
-0.027932098225251625
-0.09236443063243668
-0.0424919492590795
0.05660352431323144
0.02846835613588423
0.152643933616119
-0.01756360830792507
-0.2502959589794605
0.015444305205606463
-0.02431962630777338
-0.02314657922383405
0.010913811545178679
0.022724970875572514
0.019455321057883442
-0.029425061417808405
0.01920627245155636
0.02962064279475043
0.12847499907232962
0.07541510679501064
-0.029711517296043825
0.021201513760850867
0.018699924959218822
-0.01060977381652119
-0.002269067730558701
-0.009346928662027213
0.003884727786849143
-0.05105788624634994
-0.17130639252304794
0.0032426331140866225
0.0033833276171548335
0.001186980194832365
-0.02747855847159419
0.01743333241316607
-0.013692374713236578
-0.009845488644067632
0.03001967314521469
-0.003537299438450444
-0.02698253464246736
0.005527262220489494
0.02038026249546315
-0.015387033074499276
0.007441321969532967
0.1103878606078418
-0.01853198626031072
0.030042331263410885
0.028151839926662776
-0.05771630163816281
-0.00273999918808922
0.028388327732596814
-0.007150700009276832
-0.011830579943179294
0.08512765819308009
0.07799091008114407
0.021850084460034527
0.07415528824419063
-0.16713570211307177
-0.11945834540303457
0.029775044405651416
-0.008485947809009816
0.016756000753052534
-0.012365494044418607
-0.0030933351880011515
-0.004193173350895029
0.007366323690480592
-0.024980390561956833
-0.0350936396347458
0.009392553261255335
-0.01777445293230243
-0.05529397598896898
-0.013116362619421005
0.038377206143674916
0.01932023884545334
-0.012121476574372226
0.0035704671189685107
0.0062607203700422165
8.474608314721136e-05
0.025132977542539625
0.0027826385684607455
0.025251913379064843
0.004307278300121311
0.008812812754919847
0.06193535395786289
0.002400091013524011
0.009515593996562599
0.040186032517880714
-0.08778616950418754
0.003799356820679222
0.03321481976559909
-0.029066894489143402
-0.019224740213034566
0.00936141158315716
0.010607487759063186
0.012223045295075672
-0.010545209714033641
-0.002801732447862191
0.007364030372389572
0.09267771231532397
-0.07851839458124271
-0.03646302222077933
0.020321363703025463
-0.023706493333549395
0.0071233019080391815
-0.018127643519101216
-0.00667324597952468
0.008227767999425964
-0.007222692646081594
0.00017073122147598477
0.022373595102645052
0.005539559769152099
0.06174150715411481
0.07319064135009436
-0.03355654110671085
0.025272788010748545
-0.044373437390794926
-0.10532693631693693
-0.06512977047328512
0.018928130357114614
-0.01962032590137058
-0.028972797927782595
-0.05731195680659904
-0.0021188172776482484
0.006816791204376434
0.005613958097254466
0.06169930381538881
-0.0006041893213348254
0.001378481606506567
0.09914493464930581
-0.005603853648194158
-0.004935098830154652
0.007142807065741822
0.00034999803262361515
0.012895942883011305
0.010971661962258192
0.00855608775954346
-0.02941761263230586
0.0350485036392399
0.0271585178294196
-0.006079842652782066
-0.02536628768992126
-0.04671767815536162
-0.07213123589336044
0.05492887558280184
0.014638842121668503
-0.007305809663836489
0.0004043766162516162
-0.017939844325833152
0.0302098208637674
-0.01120168325369563
0.011389429713139798
-0.005717500554567307
0.08565582881344706
0.04859544272669412
-0.033435586277998135
0.001779790951847949
-0.011933888700793113
-0.033479892293261024
0.018336435282773046
-0.02094060658377893
-0.12009391024294422
-0.03111160791086955
-0.028612683826805048
-0.025425390473596376
0.012681099573859794
0.029662788516083668
0.0066733476540129545
0.02050378605724718
0.012487014137839753
-0.04328760729691215
0.025314704947022097
0.048025181399151934
-0.014368797122257021
-0.008547875388721347
-0.010666865716784206
0.0005174679041470457
0.00969122777477033
-0.0010698614907751671
0.08705318931040927
0.02262809464368228
-0.04492304208731509
-0.003066359085056642
0.008557932452668103
0.006112004070301204
-0.029927776476544547
-0.02465572444305375
-0.018483643531852743
0.08804421464710378
0.05219553487763342
-0.030942800796858037
0.09726517751279228
0.07254688643402318
-0.01983872769279086
-0.007244421645435489
-0.04363184112649443
-0.006300946702320442
0.0014855984298424484
-0.06171237082767704
-0.03259159157569566
0.027959135460938443
-0.015265528936152703
0.015589249058265418
0.0025656537382571344
-0.000652821413090817
0.0031041319814058893
0.0034095135848030427
-0.029164884359792784
-0.01417777393314536
-0.025380850173256624
-0.03022012086688594
-0.01100593813730592
0.03162062387849689
0.01183566033253556
0.018508379419060052
0.013748204152343608
-0.01741568332431272
-0.012293154108364202
-0.014840342410670775
-0.048815225494661794
-0.003761465393964775
-0.023330095266899182
-0.004849644962272628
0.04999841802055475
0.038073461486100996
-0.06399823859453843
-0.03618642076621409
-0.012897464018424608
0.02781847469783941
0.006247035790606549
-0.02131681858214453
-0.031788178334582716
0.020627982088040193
0.016689435902059763
0.0027955789220699802
0.018258839885023085
0.0009042438028551748
0.01232324279938665
-0.03320299638489521
0.04895166806044815
0.13904412212220668
-0.019992797375379123
-0.0015845802280484076
0.005057890465404521
0.006986610466769859
0.01925036888834407
0.024507429791450836
-0.00035052086496587865
-0.02180097966921838
0.02642422371797911
-0.006851651259335422
-0.021246595923789233
-0.09644042780210783
-0.10771781733145
0.028490184849357517
-0.05064510607780777
0.05452229482567685
0.03404333086731141
-0.01159744177838094
-0.03278895828638887
0.01290305972143492
0.14783638364192347
0.0691931424898545
-0.027099735996136628
-0.007718212511218989
-0.02650268673693922
-0.04566565467574645
-0.0007632271178662487
-0.08501255436225479
0.008038720030575515
0.083631648613309
-0.019499455909816377
0.027491543099328507
0.011469041724731528
0.026456804720000764
0.0062776530396952655
0.02588258514857711
-0.12863151496799985
-0.12760540593561037
0.12547909209750482
-0.029010317312617096
-0.014467012462045774
-0.0534211040627163
0.02366568333935829
-0.02166058751346873
0.031506243964241655
0.002700320928977843
0.0004186390231290143
0.007263230300665525
0.06739406309287321
0.047706745056223694
-0.03131823193391094
0.03513011624639287
-0.10461784857373024
-0.1905783780866684
0.12911715628656464
0.0187264487034282
-0.07636351415263654
-0.023792218512989724
0.019330826026193192
-0.004289980488956
-0.016772897369138045
-0.0381928886884898
0.030425236708361808
0.024698868616732168
-0.0014492734184885657
0.05000071967404756
-0.0074569741400846426
-0.006908346930079634
0.008237464053475562
-0.017314394801355798
0.022888163346408974
0.097351371720317
-0.0038974688181781345
-0.024461218832895235
0.004702011987367065
0.012965687470100679
-0.0009449313743983486
-0.0003486971231215577
0.001677553486945672
-0.011841089997388338
0.029437376087893215
0.009450133683770325
-0.019373233635737078
0.00027507697535027555
0.0023955367815724797
0.06547372734974381
0.16814751732637673
-0.023558796066260313
-0.0423177214492207
-0.012489209777585213
0.020054235882044757
0.01998278343457891
0.022469470848089344
-0.006085532171569015
-0.002044646156752579
-0.009629419907019125
-0.025575074736582104
-0.05482873994382185
0.04162511258889535
0.043497373798814264
0.011692144761937964
-0.0204387000980073
0.0023788381299823616
0.021834182979613977
-0.046533360373283546
-0.007485900356291061
-0.012407125970763494
-0.004538174217270733
-0.016680866031530586
-0.01443540841216728
-0.006713257878936044
-0.05152854125748092
-0.022902649892713015
0.02373694542185068
-0.005868967367951824
-0.04020358374423067
-0.0372179774393002
0.023511264764505116
-0.020794513470550138
-0.024540369703490158
0.0017740304504877237
0.003837465436015344
-0.014183766138632644
-0.016399351016525794
-0.015322464565647096
0.03796926134613016
0.00586809744496068
-0.016891647286157482
0.01694791508379787
0.0015601454468495703
0.009430804976032521
0.07601272509814921
-0.043227912031219284
0.018205792565865606
-0.044927259894736615
-0.07423321397856449
-0.008907620528942523
0.03441080862348879
0.020446213305468808
-0.01484187311374
0.029062306796954835
-0.006271910246383014
-0.026649832774477404
-0.01660238863587618
0.011617266276822403
0.012154409078067183
-0.0283566384789338
-0.004027096563938495
0.002914601965894557
-0.013040295426328822
-0.03225756313785331
0.026282415721275768
-0.016183006904472753
-0.008306236833382509
0.010181129452502763
-0.07798233236554437
0.01281805769340592
-0.019980439231369326
0.08394347098253682
0.24286758983439025
-0.01827378034056616
-0.034415950120115425
-0.01682727633201941
-0.021883515028243827
-0.003488905847042997
0.010887186084590668
-0.005958744539280661
-0.005567158512569325
0.0047409206855838154
-0.016299764321720745
-0.020325362458008228
-0.033551054618035016
-0.009043874878502172
-0.03908196575381929
-0.03738005616024042
-0.006221214917708644
0.05240305607948277
0.17676089867959993
-0.030382030577639083
0.025409975695386226
-0.009470178298892122
-0.03808233062836969
-0.024358774480828738
0.08678015611050796
-0.013799667495656302
0.004531797811598167
-0.0712979389045188
-0.04005692196895434
0.05677089025500547
-0.0444958617068013
0.00846902952866286
-0.009983550408336291
0.003441514052023877
-0.0029937190325111025
-0.013894429196448494
0.09076521803640368
-0.00736382544703797
0.008126867975802123
-0.020907171385727355
0.008932457839539977
0.04385285760502683
0.0024078373529914827
-0.03736486427270437
0.06962390960501143
-0.04708729379474436
-0.0859792140460528
0.09119961835137164
0.04808735344671715
0.0314979938693144
0.005013335410356038
-0.009858299815751752
-0.004706686302994858
-0.025402566306780606
-0.013977717524481957
0.001532444189645156
0.013539404005058495
0.02315347058079852
0.014932178512773012
-0.04204189746125512
0.0004102994153350385
-0.008364312376402585
-0.003120507880254437
0.013096512829964971
0.0004375175711956978
-0.03319689960427261
0.05079025741255286
-0.019864172410950273
0.0337871126975809
-0.03912535996183024
-0.2318776642461517
0.033605251363810956
0.013752840666546503
-0.013937473829616716
0.01679091513278987
0.006947649535467221
-0.008965594606095067
-0.05447216299669404
0.02788674732981871
0.03177382305424808
0.13597039423445145
0.03970817251699897
-0.1556839220063828
0.014916587668454826
-0.04274162192995083
0.008662343143456371
0.003744030804913614
0.023073925367757923
-0.03079060921161072
0.010085791440756385
-0.028447881654440562
0.004305054782834703
0.025903804985432106
0.023378412090319118
0.007387630958562855
0.012949470283974982
0.018632030779635822
0.00409514296154319
0.01095255292041084
-0.0511988353749833
-0.0465636652134994
-0.02846747584526577
0.023961680919762897
0.027336169995247395
0.005941896553896645
-0.007493443019615367
-0.02053924222325539
-0.009887924812480721
0.011465038094236444
0.019167062333749554
0.02241150548510196
0.018149536804450937
-0.0022494561503170825
-0.04743024535306827
0.05706635461784759
0.0028223171431544475
0.06061431079530187
0.02920057467638007
0.026233008258390932
-0.11740413843594111
-0.06620995136680029
0.0552477945884102
0.010682527610881589
0.03257807946971178
-0.005414989673530131
0.023898197053661772
0.03424577086473538
-0.04670563652275298
-0.2281347355383581
0.035505258780994024
-0.003635786553055174
0.07593566636099856
0.022109023312849876
0.0066121856275142155
-0.010895893698116202
0.013354992530723815
0.012485663302682292
0.04412589376506896
0.01157975240734378
-0.015817209501247036
0.027702331894382756
-0.019032701778474728
0.0019465963188291396
0.009908003788795484
-0.013926976336742737
-0.03059261788038867
0.03099926196080975
0.018484116215047787
0.005086135658838905
0.022063083298481802
0.0020527753798798925
0.007118207035787163
-0.0096776340431189
-0.02252048039247162
-0.01697804487793198
-0.01009564478906061
0.019341270997974933
0.02856990778101035
0.011307163072390327
-0.03313681494258419
0.02313993707545827
0.16583338148662144
-0.0018531158151786642
-0.015664343433470167
-0.027906644907153486
-0.02069248370543303
0.013187467694613436
-0.014352186481379526
0.009157716178248522
-0.2074398530262075
-0.1725307638947064
0.029542845195271568
-0.0203953441945622
0.007663957201293418
0.006528709916708526
0.010438127643773533
-0.015690198273601727
-0.0007174593735417569
0.005462114621507022
-0.013069833258005013
0.125509989660003
0.02557076244259489
-0.006736007316897105
0.010514184686372366
0.042943387651847714
0.0348491849336853
-0.04712610691114114
0.003919640019478179
0.027472525993841833
-0.021850173126686346
-0.013021779446828046
-0.007832635695251191
-0.08040152727168574
0.11001944381662641
0.06551688743558166
-0.01451359146649714
-0.003075450738001437
-0.02405269395857073
-0.060622368663765636
0.015328357728668201
0.03523282095784552
0.03552706425178838
-0.010446945096995945
0.05028006874576088
-0.010509477565509573
0.010032390583842562
0.011269979297217661
-0.002803906804459949
0.005405071570899941
-0.0020223894630245366
0.021371229469666613
0.018934342178003633
-0.11137725491655316
-0.003139556879140307
0.008199521562068414
-0.009422715042965126
0.01831286290695792
0.07502154244588474
-0.027918909258208224
-0.052362893373946166
0.0023687214264833055
0.0302855089687083
-0.0056667725003323646
-0.025234229679742093
-0.02525474294421996
0.024659453144300816
0.03755919557635174
0.04487284097693769
-0.0013409809736666194
-0.002187601630299266
0.007227188704749558
0.012911358074316169
-0.06340151645526995
-0.05693872490848159
0.011697402611639623
0.0019831740164825344
-0.03212870525530701
0.03805571927288527
0.009664788027466039
-0.03804056174541332
-0.06012277084815892
-0.029311899329854407
0.024499335973249377
-0.006027425696760439
0.00020935027520154316
0.017469527552595412
0.05231282064128956
0.052705460495968595
-0.021182918199391793
-0.04024871748271102
-0.04169467144069479
-0.014082750710323746
0.018873840839337755
0.0037933278342172877
0.005200370811397835
0.004801656789996288
-0.04636025311313515
-0.018014737390502418
-0.007730193281678816
-0.015271535747198264
-0.028318339579788313
0.010303818095781932
0.03541547808495318
-0.06276651124327444
0.04359735174342032
0.06998396026743542
0.02272936092141428
0.029673669581651265
0.008371701197693829
0.034005540895347006
0.14938156199995783
-0.004637727828862116
-0.08187756255035462
0.042021435051548886
0.022946389648185486
-0.03010817706161816
-0.05345589682842241
-0.011538080654388095
0.006304573270685004
-0.00859626689218349
-0.022722579196929885
-0.12020507715607623
0.009963955918218876
-0.0046328563001274145
0.044904119257968084
-0.017292392202309954
-0.10859373145484952
0.03999869637537812
0.017024487265150923
0.012530225883414632
0.00958612676908697
0.015746279472127284
-0.020777072503729645
0.017193222326533558
0.000614420073590095
0.0174083670060657
-0.00017676456323264113
-0.013309705531417167
-0.0033210152903164303
0.01927130966838817
-0.02592833537594056
-0.014651400129073554
0.010702204533409298
-0.003707765719283952
0.006409248477779392
0.014753444740506138
-0.002055464194753271
0.00933342897085855
0.004521245692147989
-0.021684129950733686
-0.024843071838716257
0.023538616933268024
-0.018357923772791454
0.011833609278068462
0.026290480984268658
0.015212489767150143
0.03891692070504044
0.03031342471517807
-0.0664352171816204
-0.05742290368498452
0.020065622146500504
0.0333663441492038
0.013918357213018512
0.08336082957864943
0.0601667026248112
-0.007198142362073488
-0.012151851358220365
-0.009787423393958829
-0.020073300654790786
