0
0.03907261621595448
-0.007871675529587114
0.025597397756458574
0.010207297368122793
-0.050313514155745476
-0.03111464358627026
-0.011886926376993767
-0.0006816716342917997
0.02339847523655976
0.018556697643202693
0.027954399639194893
-0.009906428156109098
0.04924056820367122
0.11915511813010964
0.022814767425368015
0.009732163882278216
-0.0054643307046589925
-0.01865263072767696
-0.020285797957761708
0.0031107105023439074
-0.0149392417390807
-0.051678021035126524
-0.004385822881814357
0.008867655591189252
-0.005588440443899136
0.015554311504544532
0.0024398876194684296
-0.031186795255871078
0.002089724580484363
0.009318183128226621
-0.02065983840929982
0.001962576416962196
-0.010217381030614375
-0.02429192993292226
0.020663903468424668
0.00912472196013386
-0.01987675669845138
0.042968505444511244
0.05148763339376073
0.02608424760103669
-0.03147391424843271
-0.024893597238300723
0.00021345291158970272
0.010786421039030335
-0.02229204852407759
-0.025094771968320467
-0.05092347867021998
-0.03766086380185539
0.004605659850188661
-0.025353085819682483
-0.01076119761926976
-0.002259584726475403
0.08325381581939535
-0.0025721657445812855
0.003180443838942752
-0.025444564377243135
-0.028377652966740607
0.09002331658648233
-0.01151960510028396
-0.03920486434869398
-0.04398592765286748
-0.025459636732255004
-0.053706401414152144
-0.041921415693926024
0.09643388097228839
0.03229066061099037
-0.013369329384690353
-0.006792430594814192
0.018412174153454357
-0.007907611232666896
0.016901337057067818
0.08332935659428713
-0.003803903257388976
0.016860934283762695
-0.04542946144317724
-0.053608907811842736
0.00044863201884623644
0.004620643615256996
0.009319387773973639
-0.07153130115995872
0.12175328244098539
0.32847401778681684
-0.04228222574309849
0.012464941711938533
-0.0021111348332250647
0.010721551438248104
-0.005089036341546103
-0.058289160726522474
-0.07134964520565176
0.06821449012201714
-0.043791547667238764
-0.02552548503649022
-0.021544849913127582
-0.009570113866423487
-0.08589250760170897
-0.04827603624637078
-0.011098780540714942
-0.04034742449959015
-0.08507125415784828
0.22212785632656765
0.09274199902410507
-0.04327983179433376
0.013588181388522082
-0.12424890258531239
-0.10984631377243664
0.006145594228080462
-0.01355159755998077
-0.01612779537414663
0.05312892476441913
0.13784198467545541
-0.0106775126233813
0.015824810275078444
-0.026266685362616952
-0.023652091852393968
-0.008279004440543428
-0.004046638945020685
-0.04526691120307832
0.006349803686247186
0.1566007448845404
-0.010989548976437113
-0.028055671246397913
0.008106205619204271
0.041617439590760245
0.01338059464263556
-0.012155568948023141
-0.0005836323214993479
-0.002212483710581937
-0.007920144646374219
-0.09706777211180634
-0.09951756584541474
0.027490820213247384
-0.013052231743497794
-0.0403186608813035
0.0016016536094739088
-0.04397646138348667
-0.03483157834369349
0.005653785006626164
-0.006401280157493419
-0.03126010677867115
0.02573976478644662
-0.015752599974048563
0.027314951377598543
0.13439267567420082
-0.059611942121643405
0.13725777663940023
0.059017107530147765
-0.040082302090803705
-0.006686037313758943
0.02382167493996633
-0.006837087917934769
-0.007479664615656112
-0.041147181492099616
-0.021951867303926165
-0.013524206643376746
0.026079323452932797
-0.02451261579415604
-0.02571272746840823
0.021529735677447454
0.02903282315865939
0.0043997936577944334
0.0026593679042272076
-0.062035115850903086
-0.03131785278065986
-0.07318945897396888
-0.039551513985219
-0.04891323117262767
0.009931394112563895
-0.019416347096471696
0.16060913338977809
0.11405520327880017
-0.05398201219506119
0.010617362343173476
-0.014789977132231907
-0.0471343414526484
0.0019734129938446623
-0.053738537078932426
0.16964133471409093
0.1199556735831462
-0.05111325762493914
0.012795308682148109
-0.061103906543477825
0.049460189086331596
-0.03462459879466144
-0.027155997378621094
-0.0389602247847208
0.01308780680327128
-0.03590349557347752
0.007617549450298499
0.02738263525034649
-0.012448419487147507
-0.0325776008467384
0.15263526617662565
0.07923216535438954
-0.03455876306858614
-0.03124410882533308
-0.02746782620123571
-0.003783196387870383
-0.045381845032155026
-0.08871283454006683
-0.025677322813909224
0.002670704418917772
0.003398748838814571
-0.009780387982005558
-0.025319642952935553
-0.06329790284458528
-0.01564752915020723
-7.304183645889064e-05
-0.006201557643912029
-0.041409550869289505
0.0002971038495603607
0.027391541088048657
0.10816226719376375
0.021340486106950184
-0.12504649032052578
0.15332529713850554
-0.0012187101134353792
-0.0014013713490547777
0.001647502299770346
-0.04462192863337777
-0.03359563920802077
0.004260946611250746
0.008842601887028912
0.008598399002262424
-0.019124390724557433
-0.019506748423767928
0.018512897726093477
0.07064722260460633
0.03866733093957995
0.19679372281128743
-0.008350300544556714
-0.06699495514772455
0.10317017995626535
0.023056186422040804
-0.011105268171376057
0.004296417123104592
-0.0005863085562813728
-0.04165235731934444
0.0007214793113490045
0.025252604785043705
-0.012246212029391714
0.014644408104564462
-1.718341957833846e-05
0.009016552565694395
-0.0070323398597118255
-0.04312808687011931
-0.003933437646308546
0.007907466732499563
-0.10077589393651734
-0.08338181562806472
0.0015601546045689303
0.02269684691571462
0.059471618147325815
-0.015527941141192629
0.02020769334992878
-0.08992075363548925
-0.16751280736457816
0.03175066914422178
-0.053163146404668515
0.09783610046534254
0.05092806098846629
-0.022022513414442835
-0.002943521949500921
-0.00898668538707862
-0.02141519157241419
0.03381136298408653
-0.029641369130174594
-0.08937366150029365
-0.014706863053394517
-0.030777132496763913
0.02239919729696369
-0.010712542353120686
0.014466399512647802
0.04987618056077191
-0.00672286302842802
0.004718050820898743
-0.00630817465941499
-0.023156176542417237
-0.001730431252333949
-0.02316113553666749
-0.009341895569196838
-0.033303037541852036
0.006150551552401318
0.04689193329770666
-0.005299883936553676
-0.016345173252231032
-0.062297210876351365
0.10120514228242819
0.07227594501600766
-0.017130367497805866
-0.02693788761202709
0.013750278899626097
0.010018027698692138
0.021006795666888674
0.004316619169419714
0.05006770622033697
0.017635867779598587
0.008137467599620071
0.048956851671358916
-0.028977107603671226
0.03711309997447027
0.05529150500951352
0.009276434348530723
-0.0173072826511299
0.0028028135436254215
-0.013488349847016893
0.022006346110077766
-0.02709947614019125
0.01258862047065249
0.05136684070400789
0.10250897049909692
-0.04685498648809878
-0.010662343255098251
-0.012801223158491859
0.012486892603528272
-0.01856656929185902
0.006014687840562577
-0.028829323321661958
-0.028506249643078296
-0.02884796720757569
-0.02347199106587386
0.01619981614042657
0.006929074027623616
-0.013110096588413226
-0.01727624659523558
0.034264077200445456
-0.004948295036431938
-0.018075159900710194
0.03301297573521473
-0.03903644463930745
-0.03622349231846165
-0.00852554821777545
-0.020399115508256533
0.00976367343633248
0.015454406922688829
0.0013084774026145306
-0.020716163551873095
-0.033527907262290754
-0.0034875772633693935
-0.025842750333070184
-0.021513252520121373
-0.0064327516465471826
-0.025005686406252378
-0.03530438597576625
0.034958755225878484
0.039038925074734304
0.05458993517093334
-0.020105842353669117
-0.0159256770045348
0.034330986737182274
-0.01835255866773262
0.055993363024577185
0.0702682478050455
-0.03170100538028159
0.0824480701642256
-0.0029980537704073387
-0.18818735491460595
-0.03659217279546025
0.030981526729207582
0.010662124193630617
-0.044407266192144496
0.046687798607596205
0.12745200655595493
-0.1564078747453384
-0.2386918604161583
0.031553365383585184
-0.03777047011482235
0.03026482437721459
0.17749000126190626
0.002255823939886674
-0.014504776040943187
0.02677901867214361
0.1803435058771619
0.04315958330417842
-0.045882833372775676
0.004914585924607586
-0.0039273563393050276
-0.009432781868432749
-0.03591389617511911
-0.06170940765454094
-0.042148348779389756
-0.004922093008389571
-0.012263891859562911
-0.0036697287488079624
0.003111838781972139
-0.003095307099834957
-0.035251337421573714
0.0691065355632012
0.022166643339393312
-0.01843147701090186
0.05646096220507403
0.05574472970311821
-0.021670321850116907
-0.0007649897135987905
-0.03245519838723044
0.04281807057279775
0.16073988463070824
-0.01931277121845788
0.013874036019389795
-0.015263262156562029
-0.016603350167050012
-0.05713009846077517
-0.03120806553101094
-0.0164492178812611
0.014352008940669084
0.01991962922236757
-0.01917679153071328
-0.015053815217185487
-0.029214404303349564
-0.00659753269948239
-0.02774172114580211
-0.04487144188710465
-0.011472483243191675
0.0010189758018070278
0.0152461299861452
0.006999976949999847
-0.005532538528082249
-0.015611399807601185
0.003656343953561404
-0.0005976748596940887
-0.01289927503290143
-0.03450576174327655
0.027451489146783702
-0.003436461680599789
-0.0193497268326744
-0.015835256615203106
0.022409482882792892
-0.0038749868536406707
0.01189842287858726
0.06216712696518133
-0.015610646577468142
0.05422541478730135
0.07702811184336096
0.0340827138688497
0.02906445288508077
-0.044742015581132034
-0.0010775229752325148
-0.12215028120870214
-0.07983792689563107
-0.014722068023128334
-0.11578612112189335
0.012929649976966166
0.028191543875506275
0.01112253047545874
0.0015952187820419087
0.02528766376645848
-0.02349069281862232
-0.009764943738807092
0.0180314002821754
-0.000833803103415297
0.034168795291473715
0.03273194969405569
0.08843032872173968
0.11331750014874808
0.02089287004530254
0.015295019341616452
-0.01617168089442393
0.01164511265264362
0.0004615366227708875
0.008266824916926176
-0.06985967648196324
-0.02541620727789724
0.00024557814349709104
-0.034417474193408924
0.016593169750966696
-0.005188319973979103
0.008833901097294719
0.006345885435189798
0.025259043045757358
0.03208749482456286
0.003923114027782594
-0.03167103208040759
0.025593781432731114
0.037117260959802265
-0.05893730811453791
-0.03086374244006675
-0.00820946093007385
0.03828843150558496
-0.005659274600891792
-0.06729410228585837
-0.03680456450860444
-0.00454581614842491
-0.005615398415325243
-0.009220829521582366
0.020337059687899006
0.0023189368989795607
-0.013043462893179165
0.003263494301740601
-0.015737785127268537
0.0027280123074190925
-0.010055441139928874
-0.04615122081887309
-0.05152269742834288
0.019156017492323964
0.007045279462121475
-0.023501713482077448
0.011801735689743622
-0.000592129852755661
0.0476235224467407
0.0516141772742587
-0.017643809880589202
-0.002170517630334018
0.08819353401787104
0.008840357818257066
0.011393479670327335
0.022113259696772677
-0.03172520975255086
0.01806933551805421
0.02317248441816563
-0.007707868008981857
-0.015162107825386803
-0.018768455712607702
-0.008138828394319115
-0.0167509764871788
0.024515853023404695
0.019001466510011198
0.0019002141778671424
-0.02392380012769314
0.004111176944272521
-0.031963288311928295
-0.06335283915038956
-0.027272274661816392
0.03398085066309326
0.013833073752410259
0.01742169883462031
-0.05313264186335162
-0.0446227780262439
-0.045528191203718954
-0.013693050438415816
0.01955230021219511
-0.01769163846417887
-0.014890096511943543
-0.0017592538637883034
0.01955399083109771
0.005960709404847718
0.003811807825712536
-0.0067029888662514915
0.002661204166155546
0.04037063207934283
0.12699521402139288
0.042003568950774686
0.026902287163186114
-0.0005199658366402521
0.017928623517191624
-0.02566687594457916
-0.01854390660293198
-0.03839963919192485
-0.000891679082766875
-0.02447006332786956
0.0707827990588427
0.05845746363916078
0.012624045124470453
0.04680821403036518
-0.03012570828229543
0.05244825294622301
0.014250258652706436
-0.003919234520033378
-0.1864002744256953
-0.20842775726988455
0.0904529655927739
-0.006078887943896336
0.010075828272779625
0.05778636644388692
0.0034319828577724
0.015515543581625657
0.008079074129886671
0.00729794306382865
0.00558026640589379
0.05066044409491186
0.014855317762377578
0.027277255140706266
0.04016575831264006
0.014404698332070117
0.024257401321319528
-0.06614822402452196
-0.06235834825010319
0.007437697393826503
-0.008182705245270216
-0.004552844351126901
-0.04361111598845143
-0.0016327192604946063
-0.033538271944589734
0.013244911470928178
0.021940448302589583
-0.026149268373583452
-0.059760735371805034
-0.16823568354390184
0.006806646111620372
0.005765651808051706
0.03343045029514894
0.0066212127617028575
0.04919863693892426
0.08889634445286135
-0.025309236229316846
0.02355582173327553
0.04575966023848933
0.23597499069326963
0.051470050976995335
-0.07977647364744751
0.0009698627351565777
-0.02786517283318692
0.0008235696844484876
-0.01560725083607378
0.06715162436923544
-0.038099713060727715
-0.06794757432110497
-0.051640335365752986
-0.047634105522348404
-0.0043280896595800575
-0.10753096943734937
0.048027487180563384
0.05340474780634193
0.018554678139318513
0.03119365200832306
-0.008953796985002432
-0.01430211967847981
-0.01230910049022133
-0.011133980579094484
-0.009870874479851025
-0.0687719739387276
0.028265238432676615
0.03525700521429461
0.02942727643858697
-0.0497786467386844
-0.0459732403458697
0.030082205387946665
0.00891713841748955
0.008699684386506158
0.017710165426465363
0.0140000093982252
0.043988345387744425
0.0023241645218074086
-0.012085761886462574
5.28325634206189e-05
0.0008568191763668852
-0.02298299456366944
0.007163040275712993
0.017049596777767614
-0.013176588986693443
-0.029724609351097928
-0.0185659285569009
0.005713069146121288
-0.062140226823691476
-0.026263880588999797
-0.008267013671704241
0.002270366976523543
-0.019723367221699473
0.011611727058613965
-0.026003289773000583
-0.04187460669922979
-0.032877010956524934
-0.010153608604453563
0.018284104623187525
-0.010018927722514734
0.04683973907602674
-0.003535139594138016
-0.02970538355723449
-0.040498776525433135
0.010843799092972789
0.08970041312907968
-0.014768842463124071
-0.002992834727420332
-0.0011033115869291661
-0.022133151099093664
0.01109223536891107
0.027243695035412078
-0.01404609764688605
-0.05386312262458004
0.15503271914017022
0.113800707874232
-0.07625727343701919
-0.0013861909682507136
0.00938530604045791
0.02731161379077309
0.005984847988986961
-0.017162724497813846
-0.004016626876144339
0.012841060204704009
0.03246815361414637
0.0017075309490157142
0.0013199132964161727
-0.016044589502062008
-0.015957922667785892
-0.07030447682631147
0.1033575517987399
0.2445115229323784
-0.02796671912609796
0.011071420874541368
-0.006280734344812676
-0.015263742315342818
0.007614027157265925
-0.010804393128153577
-0.08300923541014117
0.024744634593533408
-0.006668501390598439
0.0676037621979697
0.06948026038672481
0.060879643108174175
0.002565354832829103
-0.001100635847889176
0.00021161835140836379
0.007892448577995521
-0.00790681579150123
-0.1485307174718292
-0.012123816201563106
-0.052704534003041294
-0.04521534545849922
0.009390019113185714
-0.056403166588919855
-0.011589220494058763
-0.0375388771273637
0.0005292588563348196
-0.004194361107317368
0.00958820273703937
-0.03445893355967101
0.07561335613931834
-0.04539543476236685
-0.04456669057902551
-0.049694362246111394
-0.03175882650689543
0.03266868087202209
0.0034229769293752216
-0.02471873563838786
-0.02786033850683936
-0.008169421590180751
0.00705370726645584
-0.012368993241598208
0.0021493447477282544
0.008116413248565173
0.017463656358382488
0.007869114492662787
-0.0025736927007887055
-0.04543257892562071
0.0071637472093396826
-0.010268010525891347
0.012351075193638823
-0.013976426970321008
0.04179596651648017
0.026418784683762075
-0.018876360390262997
-0.01623270375856974
0.02572380912804669
-0.018093609316020928
0.01212242291876317
0.0019235955377968266
-0.008701590299138836
-0.026471233297136448
0.012685168875733966
-0.018253456009754816
-0.013711053200435091
0.07737101572765069
0.031660615707434454
-0.0928381250555069
0.011007354704713914
0.025316689706996874
-0.011307750345203264
-0.019235042805199932
0.009219949581242294
0.01716913456601233
0.036685840320673894
-0.05084015980080466
0.06542974032328129
0.07214485437336784
-0.01299343820730632
0.037317437576824326
-0.07577017617427358
0.03324160516169342
0.024447066703604674
-0.016897951789966715
0.0034731740028549154
-0.027182965713984153
0.02240488634898522
-0.01010146501780469
-0.006151244188192349
-0.016127753017948526
-0.04393098487415051
0.028981396227368304
0.04577479714756261
-0.0453811552630476
0.08591231960524136
0.11204313268113368
-0.01601435967253346
-0.05162799826481651
-0.04478770181082588
-0.00877795268468675
0.0014430560648903859
-0.0637610056154807
-0.06733534061956316
-0.008791755571225229
0.013161355652866446
0.07575281637593151
-0.02986591100034177
-0.007005254675120583
-0.0051729167808715875
-0.021992200342371593
0.01940042039966132
0.07601980160278736
-0.007397774865625252
-0.015944148580916837
-0.002234127218813834
-0.011346691927412049
0.02505012032126388
0.018235943406496775
0.003962350712844194
-0.02119598206107367
-0.02475216319855112
0.012737859474458345
-0.01345956046726239
0.0013211033358494367
-0.0010694606116919093
-0.07577289833698192
-0.0045878560219873325
-0.03859369243895463
0.08037553460618926
0.1322740660813304
-0.08450967098948797
0.04291876816290362
0.048191722473475126
0.07593622958697553
-6.300789950031915e-05
-0.021387588441988275
-0.004897993443188542
0.0166204765182739
0.038412781736354984
-0.04861351071575836
-0.06055686405099149
0.04382400142737209
-0.016896303231114074
0.021397031575603447
-0.008694359767941097
-0.01164858965121688
-0.025142834642943812
0.03386128272243237
-0.03329288760539408
-0.077047127394455
-0.06867712982080428
-0.04850187680992692
0.0009942786284686733
0.041336268343042194
0.02834810957168017
0.0050072872099044
0.01599312267221761
0.040378228352627825
0.001340079619907213
-0.00754209331099027
-0.01603218722284262
-0.04226774181015954
0.012077843027962493
0.17987913450229967
-0.04982497091177033
-0.041536491931186845
0.02169353489353564
-0.026132912460972577
0.038467759637316364
-0.003393832440319993
-0.032361961063143194
-0.001604331633721799
-0.013193751269361516
0.03215580436249664
-0.024360902198724645
0.007392914418707122
-0.16324400751370619
-0.0032493586239932207
-0.02904072905803994
-0.03498255879429899
0.13740319206804963
0.049482247205563254
0.0013785277854494885
0.02612849989935036
0.0064322207776116355
0.0221715176300402
-0.03800398549528675
0.0844436579195533
-0.012344869583425623
-0.3020692430964256
-0.04103671421118726
0.0021535311134900925
0.03276730925768818
0.058538153157532385
0.05549077342585955
0.008305364040236102
0.02790459104854349
0.020004300710458337
0.025050614479149958
-0.0019813861930434353
0.03768858404841464
-0.09770534869637115
-0.054778821466424155
0.04774640687587639
-0.013440529319167432
0.024684842960861448
-0.0037138437726432494
0.024492566423548745
-0.005438881270665177
-0.016840316419694298
0.007183854344085981
-0.0060804534537971895
0.008907619839626109
-0.004803191223003977
0.011645914767841591
0.006689179573268477
0.004661052959440617
-0.017044049151645254
-0.004960860089352847
0.009823414316174625
0.009849060283390637
0.003942532016807324
0.00574164271106124
-0.0026194789694946327
-0.010647103770383498
-0.020363826290480513
0.0007996423304115556
-0.001499246283560167
-0.014919387503444485
0.006526145474565406
0.03144770401420475
0.01116906052486702
-0.02205763601448312
0.032551093078349184
0.01914777935625074
0.032397141936404625
-0.028140097535623083
-0.022428424784825467
0.009188794522184972
0.040152886152209605
0.15074842146451928
-0.002809470799482482
0.005720573268269359
-0.0014187570607950347
-0.003568925567734932
-0.003644415909623501
-0.027190584813258558
-0.0546482853747943
-0.008488965126049255
-0.022946155945194707
-0.006707077197500661
0.010795958754052279
-0.03557752503415533
-0.01454482156453795
-0.015439289946357081
0.021078028086464598
-0.011070246928908017
-0.02942326609170263
-0.0012954702847936261
-0.01156564598425341
0.010924085039507762
-0.035050653948598985
-0.014025634187917906
-0.03052768722815347
-0.06925267714911014
0.10248780968370809
0.08895348556049754
-0.026181243665560128
-0.010104282741510439
-0.002835090770545948
-0.022058779196523576
0.0346814005865589
0.018092938915485232
0.022951851335169724
0.02802661241788073
0.0003369722740362048
0.011280464502807322
0.012246184710125048
0.020799856013122408
0.009884842361105168
-0.0003337075419537318
-0.002619651301850122
-0.01908849049130444
-0.044323788953000584
0.029698904626954317
0.006793085872748178
-0.015390547872321667
0.011292677835024564
-0.009795253624673596
-0.05181164685901878
0.024300738397010434
-0.009374770082893292
-0.13459176836837436
-0.01872335146774617
0.004613971658760544
0.026673881189004274
0.007963306170352404
0.0133667648900213
0.013148155549861271
0.001432576225642408
-0.016433684842717657
-0.0052601617073054
-0.04762494837171395
0.002114039490662084
0.025267641833216056
0.002715440216994163
-0.006591476658810156
-0.0062315403405075135
0.03889310771777166
0.027074054251947186
0.010447665051999896
-0.02066299413922811
-0.0026601064408392763
0.0154611394266551
-0.012447726723609925
-0.030577747422816364
0.027457641408141983
0.015817565653440686
-0.002317744887297231
0.008171854103271942
-0.02370985390204337
0.020410740012311565
0.03753487509204749
-0.00842960866500787
-0.021351227903851376
-0.00968835625218256
-0.01659323506797439
0.019707413642614056
-0.00642173074282143
0.030722657741387414
0.06162785838914554
-0.0019037632479553023
-0.038823941010706145
-0.06668332563686659
-0.01504458436280217
-0.01397336674159557
-0.018634632630072843
-0.0012673777227549053
0.21913301550423228
0.01935088702648504
-0.04893353120198995
-0.032181560102552735
-0.005916725220461962
0.009199566570017227
-0.012873210195248426
-0.030482944304524678
-0.02276915484675974
-0.03822979044050835
-0.028370537937709366
-0.0069203701047613145
-0.028697718042653034
-0.02504509347528235
-0.001640001395648524
0.02981370666437999
0.15481083165789605
0.09379709560787738
-0.04133432356350982
0.008251376258424956
-0.03739469032758655
0.006368417428335868
-0.011838742482586801
-0.04454803999970227
-0.011001725152481337
-0.025809753926420608
-0.04129477313779049
-0.040790807215724645
0.06014780059135977
0.05325048706161168
0.0186520394774231
-0.09285021794764478
0.13263304506175005
0.11593731468302675
-0.04100319662724571
-0.020775155068513643
-0.013335317108656937
-0.05885128047951168
-0.03503136918234664
0.009825094576865706
-0.06044008239240404
-0.050529384773204816
-0.05100718139366882
-0.02142233190093678
0.023312924179123975
0.008815233060577217
-0.011345509056257216
0.038179223739496844
0.0015754049984008603
0.001412532633457703
-0.04104214391071062
0.06750063156332334
-0.02582806673725601
0.10700372703699607
0.16303718595074876
-0.053119786274258396
0.015760639812056006
-0.02613396138517636
-0.015637017341748733
-0.013179787795451559
-0.0035875622910910687
-0.011613836132794184
-0.0662522363760334
-0.0990840283170278
0.017625801054226797
-0.040453080289114034
0.03807665667973854
-0.14700826895710906
-0.12306159042360706
0.06936212180571702
0.023037984395314803
0.030700819648583472
-0.004321521589906315
-0.01619939601565695
-0.04268059137078362
0.17082585655243906
-0.05104305472905906
0.12302923804307914
0.1681270341724492
-0.0025036889209586973
0.02940006668675097
-0.020902936340610308
0.00967258041900285
0.03521407151289973
0.025747848672746567
-0.032091661591982894
-0.01628386857292939
-0.0180880241421463
0.008831258603476496
-0.02014809781250298
0.03072529870372746
-0.03524299633526854
0.09612065755207522
-0.035074186032471984
-0.08529954698738665
0.00390762807860934
-0.016579196163371585
0.00338387218449132
-0.008092392702417822
8.862250274445107e-05
-0.029330108705111515
0.0040586300858927405
0.02331106608251522
0.019372450959015654
-0.00035295635901512354
0.012730330004422606
-0.021429699623036307
-0.016428656642538696
0.015215543935361219
-0.01371235997955016
-0.021703507878558667
-0.09668956656455638
0.014003634390285855
0.006049254457465205
0.004494756538151878
0.02816920928893477
-0.004609172631366065
-0.042151361208796624
-0.05725306063923706
0.0017440157790191034
-0.013334454488675068
-0.021531483463660614
0.010122504741569041
0.014353459266854746
-0.03248211284497043
0.047794304819602895
0.03092419608042697
-0.003005773606154233
0.037873217406426754
0.022878154822842386
-0.013512445285454464
0.02857960798981986
-0.07005485243856654
-0.04807490639147073
-0.007399791543227346
0.010748469122236
0.0396468351062857
0.040262604347354146
0.0016646794297088285
-0.024314648294741205
0.017258020565761915
0.016200829108475766
0.007855676452663996
-0.023968054327232854
-0.07611762929922725
-0.015908697676228097
0.05083844466815999
8.196961340484729e-06
-0.016273783779337785
0.038612253469627475
0.01884470925065879
0.026200488910021066
0.03167143342941872
-0.005882919930638523
0.008406256026583122
-0.014173704760012297
-0.01041897738302619
-0.03863498846773637
0.05004575810565537
0.03202524566906881
0.0694803000642488
0.0898602120955217
-0.00757439024710788
-0.0013846523020051389
-0.00410805568799424
0.028683611217444626
-0.00800365682117021
0.02340566701510579
-0.11671964712151235
-0.20533358882289474
0.03914918768896402
-0.04855229949051107
-0.09037621962721135
-0.017152905887818384
-0.011148304475680089
-0.018092996895111037
-0.004858704369638725
-0.0024444406722396545
0.003371034598428355
-0.046071590957892025
-0.0038792271307265145
0.1193126053075858
0.03699891811818034
-0.023174373336168227
-0.009967875739378651
0.030823209108145636
-0.019697440057586463
-0.04112632003743256
0.01154125610427785
-0.008105581409131594
0.029175754643428822
-0.04088084424655181
0.14205688798704172
0.22278826731866666
0.012571892593508521
-0.20692558945870093
-0.228892577336998
0.16480734897740226
0.0450865593600623
0.02824303576340325
-0.02124991526872778
0.12349297398276693
-0.0033219643861260475
0.042135769596235134
-0.008053673271275465
-0.02701385666016543
-0.027545832001454478
0.017941719410688155
0.012755932474073584
0.0006181620029818141
0.021459885181546668
-0.03751706630070317
0.0021191050994278865
0.1583394045619309
0.028583629952707454
-0.01818450182940526
0.004285443834094541
0.04329383345356903
-0.10790853668154307
-0.1052828533782077
-0.0695302346302176
0.01497928494919595
-0.0026235709613966957
0.03108438305478318
-0.020772879247342002
-0.047560456127867086
0.011512713412107469
-0.008139326753598675
-0.0018064950421892258
0.03185051097311947
0.030047851931550008
0.00629872834103388
-0.005834570833848813
0.005860967317804524
0.007552364522953685
-0.014165474457924031
0.0008780800891261346
-0.03759469639251706
-0.054935729841191654
0.06498421708862406
0.0015074521895845725
0.018659812900102317
0.004207169712738973
0.009747836445983324
-0.02810061642898269
0.025673444544204775
0.015234334440163443
0.032293273184413135
0.034779389222975375
0.04328905977425714
-0.03396692084398974
-0.0028963560252179923
-0.06531856104001559
-0.004857089665717385
-0.026094978670000393
-0.13354582055652062
0.019912533403103474
0.016616290423670535
0.06350954052132174
0.02330579756134679
-0.04726862050134735
0.003977612948637009
0.00042589340766942767
0.020813356902825854
-0.026424358404354666
-0.10396915584452561
0.003363265079822643
0.002254500002346905
-0.017901430402708005
0.006582934529460572
-0.020119478080320673
-0.07336054714891228
-0.006617528933927923
-0.010500485677996392
-0.00768929579835873
-0.001340396544539064
-0.02204656444694109
-0.017483296692721972
0.018646689165976886
0.036799173650051184
0.016286619396179824
0.020369426225330944
-0.004811875648438261
-0.0014119294337289763
0.06059678280325991
0.006986437880317048
-0.008310829865427723
0.014703448603952153
-0.03051761416047024
-0.011623628067020064
-0.027514002286686243
0.11098609037025663
0.15629910614583234
-0.048200716090937804
-0.028274695459927984
0.023340187090833645
-0.03384901055580957
-0.032723480488042675
0.04402205400423143
-0.02341887489317275
0.038470400730509544
0.1383328674273476
0.02981695531626034
-0.012012451713383384
0.03426019143820366
0.004746399913545064
-0.04433816043569297
-0.05499540051711632
-0.02486510806107853
0.002183808952518995
-0.007339261533955347
-0.056073060238123563
-0.02949155463624144
0.015270467470397753
-0.014935812039518206
-0.0115763363360438
0.03246237124794353
0.008465132864234006
-0.010603213189814178
0.00017354209498046536
-0.01590499516648409
-0.026477293616667712
-0.023530444909181297
0.039479661795853084
0.012493482500274463
-0.043808219773614814
0.010381192099376938
-0.02335748442711115
-0.02359716413013782
0.08805352052211889
0.013734488675800878
0.003659104611986843
0.001271936825452251
0.0021567878407203938
-0.03431095873524416
0.007450117782034406
0.038665358419943625
-0.001934510605935968
0.005788779110821643
0.007013506488856739
0.04357966815078424
-0.03327523641313767
-0.03537519012148232
0.00836743694525584
0.00011457993122726379
-0.047172777319650604
-0.005072266990205968
0.004211458744542363
-0.0401444736127986
-0.026214775037327803
0.06745069370898922
0.03507710083417091
-0.01693562071276372
0.02235637509402882
0.04499587060398803
-0.011312509821315226
-0.07179313554723829
0.015846197892977986
0.0300288995343651
0.03795652549675611
-0.010058803833214888
-0.17237810136963097
-0.002881348832124881
0.001570032733570606
0.03358045741311425
-0.029955828449697987
0.030383445581660482
0.09014655806045553
0.006878864164148226
-0.013024086808192123
-0.012001730230209211
0.013127340592460816
0.019107806134098987
-0.0032161682430052567
-0.006382018564661242
0.028089386318947012
0.0014779086841188633
0.004785148808512506
-0.016044755135832135
-0.0013598940172298124
0.006599836163909268
0.00013486357275441766
0.0073347335359289475
0.035478757839351636
0.008721937725717081
0.03162608978827449
-0.009147708877981739
0.06889983888817582
-0.13563996400430367
-0.17251395775631312
0.04942111141420401
0.012255460404736004
0.023653090280072328
-0.0009870245449944283
-0.014476729906453328
0.0052818163759230435
0.05214938150179957
0.003133443248266841
0.008288210441845714
0.1426455398925414
-0.041851878810248246
-0.2311072031432936
-0.020387737067242714
-0.05568195206763371
0.003829521882592067
0.028582627964949474
0.056259131477451645
0.007053266826274503
0.004341829479470719
0.016377865336579856
-0.007041802857572822
0.07257837076047231
0.022619197688549694
-0.033023636140390784
0.028013027531711344
0.027339897208673705
0.01525885270668
-0.004187826100571437
0.027773500443377265
-0.029141103797900213
-0.06398144184537016
0.05827450810292258
-0.031871339128557795
-0.0032760971032737207
0.0698476001688623
0.05351051798405746
-0.13594849132235692
0.00016480733288734968
0.02478763499132178
0.011048173677250405
-0.00011079433838638008
-0.06480157254957124
-0.022099883030331315
-0.01564457597451573
-0.018160804378901156
-0.03525591652807403
-0.023378782139173826
-0.015158001441753681
0.07149626396027059
-0.05480827419200501
-0.07070501849079731
0.027102420776775424
0.17514582939286233
0.14294650242588722
0.012970942913076091
-0.024898789095376208
-0.048727131861615175
-0.058310644848233756
-0.0401735150530548
0.007090803975203436
-0.007540595057895719
0.018048173604223866
0.00012351023168402067
-0.033329100215269115
-0.01860617229790206
-0.03314455574266232
-0.055455147291822146
0.0039029996457181242
-0.03591524821887063
-0.0056081944926376845
-0.025740409605355438
0.13445851282848356
0.07538333806969452
-0.04913500758399167
0.013441048221653944
-0.008225372206699635
-0.01959702831984721
-0.009550388707694467
-0.011921402930813006
0.0031076240508700692
-0.01576240668405723
-0.00528988967963314
0.03802625984264901
0.010756105269244715
0.012700010390991688
0.006126613516309249
0.01580754651683721
-0.018202643995091406
