0
-0.010954218387413946
0.02903940658668945
-0.020489689737080673
-0.021436223293243475
-0.03841697147590068
0.06248288423442153
0.17648290916617995
-0.1357817360400322
-0.012143249682970822
0.02081456604684274
-0.0063848528795594165
-0.052479700255956704
-0.005527601669229043
-0.0052093239428831865
0.027006983954749098
0.03643408049702266
0.028937200554458954
-0.012336186987629161
0.04103425101734134
-0.08566978324690872
-0.0887242690675997
0.0702006025214376
0.11184324737192516
-0.00993054505329113
-0.015997219682228586
0.005984075761683758
0.03408485916456156
0.026309185166048174
0.011951111548823352
-0.03556614525639147
0.0119177123910981
0.007406959028134944
-0.037106696673620515
-0.05507830360923884
0.030079856267035614
0.019153570725333857
-0.05095061780980073
0.03351982520983242
-0.0058961175381616205
-0.020818093964969638
0.013422808032177885
0.017967853592737358
0.04657288675284002
0.04685388529488675
-0.009190611771538747
-0.046780978859964704
-0.01219573046543978
0.05511057560288572
0.08366402142809504
-0.08882576451821923
-0.184169797365723
0.014298823248682467
-0.000577334996991221
0.00616361947070847
0.012400641977759802
-0.00226431441674222
0.01401208662127321
0.015485323411810376
-0.009405983091924508
0.008810544494520208
-0.015612970147813971
-0.0321978552789214
0.05845930584327406
0.10507141351367211
-0.03456118440344579
0.040305919818361374
-0.034323633781742906
-0.003727834277453746
0.035866241968389674
-0.021825940978308415
0.015879834823804916
-0.1164204156160507
-0.020465331975904173
0.014921161261508062
-0.01616445098713942
0.007667613827388397
-0.046854167803833814
-0.07445540827541892
-0.01254480028517373
0.033541451822312905
0.050364228950337715
-0.03795107961228861
-0.045630457199199434
0.037412628576892135
0.0031441854550950175
0.009931314805293325
0.14823525298575035
0.02577219497943249
-0.008698372187758267
-0.031221027251188856
-0.005139459983720879
-0.019131204341479708
0.010191073660441667
8.02235611746776e-06
0.0034246537288090146
0.017363002505081635
0.014867489505567025
0.018187747168966033
-0.020107228665385238
-0.06691257224777276
0.027640723740259433
-0.0137160379008734
-0.005541717334807973
0.02017624076624562
0.038765063104462615
-0.024226149604902908
-0.011692583600519118
-0.010186224017515589
0.060409111202892336
0.07052732133862007
-0.025750159603629093
0.041284917906327344
0.004202686257693972
0.018250546946461752
-0.0008205117669385128
-0.03501681352674979
0.012471374692711855
0.014348587904685838
-0.013381657780103489
-0.01971115267179152
0.008780587052144856
-0.03885871189278086
0.006096437021903839
-0.010746554336864278
-0.015940547274922175
0.009417106301672336
-0.000511573219599928
-0.06227473462581645
-0.08929491296821745
0.010389258066535545
0.012608563472041864
-0.010740602501506656
-0.045030039499905625
0.03430719334561777
-0.008826552950665145
0.03414680862685156
0.01996371697466159
-0.012235501707726651
0.03664433939911308
-0.0017499801371987293
-0.02623662974269977
-0.004026188957977805
0.053100399633328875
-0.005253849373854876
0.02306478389117998
0.004424060732201037
-0.020161660737637855
-0.016885779716009585
0.010051886054304833
0.023697515372609522
-0.007639120527103341
-0.011131293823792434
0.00950476379689406
0.0008786235923316844
0.016890328844863172
-0.03648260236790612
-0.029045427899595782
-0.02330731160990561
-0.013011499924319865
-0.014381739877973936
-0.00036455325157762694
0.019096528878579416
0.013850160708707478
-0.026641855574503815
-0.042059884110220984
0.032132684186437305
0.03900351113735184
0.009407024011013353
0.003650047210443065
0.005520695684337134
0.006779555401450276
-0.0026733590422590636
0.006849139014753466
0.020413727016617207
0.011543978855136331
0.024994585528568508
-0.020759088528893566
0.008487868479616797
-0.040007534494464606
-0.0034278263783521887
0.020817549453169656
0.05507339802106787
0.01114219083945269
-0.0017395473066822416
-0.04797845990570082
0.017282199280708045
-0.00935699154881019
-0.0070275555968097045
-0.02647727145942835
0.026226205836102703
0.014330700064563924
0.09104692262510801
0.04755993775001566
-0.05535020827566166
-0.017545940021563695
-0.01743478115975791
-0.06284177657859757
-0.024918745029375727
0.02357090498274445
-0.042060008636688996
-0.024261652868092
0.03394370153060269
-0.08752690460179921
-0.01414353411072501
0.012889102856564333
0.019830134891624343
0.04746825884047678
0.001756828996628883
-0.018968236181888653
0.04752061391049305
0.028526683478285474
-0.044455968498699636
-0.011575803755906515
-0.012203244982750818
-0.014391072782416664
0.019918672940001998
0.012489663282162555
-0.004629539850122766
-0.02277044514481971
0.06554642226473131
0.08884450897195818
-0.05076130986176494
0.022451863203226195
0.04237111917076099
0.020167791367099303
-0.0011158101606787915
0.01539960169128641
-0.0474909036229848
-0.07206008697743833
0.006400506220099034
-0.037732163863390185
-0.039094158680557364
0.01990397994112991
0.009985382708577701
0.01763025712956882
-0.010708856383020545
-0.022944782935461167
-0.015029801898588047
0.006614262561526568
0.07152743292967959
0.023902965127328032
0.0056615079333159
0.02778125834126273
-0.0043264007170654125
0.011668764905108943
-0.03802726162577431
0.01744163929791928
0.009127060954704546
-0.024867185899499534
-0.019764952317027837
-0.025344619810486566
-0.016906835891946026
0.02329034495994079
-0.030055997570997427
0.02074558226339187
-0.1318822697894879
-0.04994664231935157
0.025992728133763927
0.00721339652240561
0.012004268307943393
0.003234270474728059
-0.05645927951772674
0.017806538755176956
0.010513256620204529
-0.022060085904325986
-0.004996236532972921
0.005830651744726749
0.012748648497401675
0.06303896248996806
0.11856244902143381
0.039496348706952455
0.03522654848607176
-0.00536268555412735
0.05321044471343176
0.019519876536561766
0.03624875661422891
-0.10582261596142988
-0.05448769741143263
-0.0117154168201264
-0.012026797844395736
-0.024676014241808826
0.013484982420321685
0.01942251429068889
-0.04175221985151175
-0.0028556078681567865
0.011664518915903215
-0.00020857154170741916
-0.011513168611506632
-0.0061707666437312006
0.008572471807022015
-0.018796643117412602
0.04370918092641042
-0.004808867316661867
-0.04843875002313101
-0.03726858706376592
-0.0023767880708058116
-0.009285237569829888
0.028413296723728085
0.03139614363138226
0.019163930195730604
-0.020957806144788475
0.017248905487250672
-0.0016498829660299941
-0.0064827158774027034
-0.009149837387282887
0.02422775430936125
0.0034581768520594186
-0.030532692297341315
0.0001884661007521541
0.003125683603104039
0.046360855058904554
0.007034335608367288
0.002337422920845519
-0.0062076931217108925
-0.011123334399510083
0.007335719926304448
0.023294658220817853
0.021163050833595674
-0.028863698531162853
0.020252044603616896
-0.03130568807349972
-0.01217202343373932
-0.014768560717305524
-0.024820605731323993
-0.0006186381148987745
0.042294843318415605
0.021192786197087428
0.004896220419035839
0.015670433061777577
0.0014289424132359761
-0.02244171531952912
-0.02740332716566484
0.03562001683845317
-0.0006249105865134184
-0.029195662585746587
-0.03882572586500455
-0.013746334100118331
0.017630234850627636
0.02753231473876644
-0.005134041838399081
0.0077898981968430175
0.01875597220972237
-0.009486734853899998
-0.02885523243221242
0.07480847879087273
0.0027284925267326834
0.01354688747873763
-0.0047011647398216465
0.039085410857026374
0.12112861409787652
-0.02367652452310442
-0.0005356545421062702
-0.01467012074515713
0.036312477893720115
-0.07728987256882781
-0.0794792191178818
0.023411532527361004
-0.06007229668175541
-0.21774437351939235
0.028304903481422502
0.06810504871810648
-0.00832284628409677
-0.007283700315764309
0.03480910194535264
-0.03149923949767502
-0.031207691125706385
-0.07731052439860975
-0.07314842778459187
0.029720008361021354
0.048590255160679566
0.06183957481513876
-0.021917347560476048
0.00976703549605125
0.010673311666476153
0.03124773142860099
0.05024831947556999
0.04638539432601505
0.0010614782009832346
0.03138834617437899
-0.01692185182910144
0.03667217693822889
0.006562358111452334
-0.03220510939078729
0.00021855018785787842
0.0014061579029862076
-0.0357114156495525
0.03009199590308921
-0.010620013750658498
-0.002280024110616705
-0.04852148417895924
0.028273965719160007
0.05653681097165675
-0.03797135751219153
0.023217073602079214
0.018424046033020208
-0.028060804851147918
-0.0311060505083999
0.014962155890828385
0.06332268850715786
0.03449635623826535
-0.0031394538788762252
-0.03245372938201959
-0.0009196423308872275
-0.027145537344633208
0.02785438795971951
0.02376836732220355
-0.018734600086447204
0.023845097476119254
-0.012467300350749484
0.026082074502937234
-0.005355285197797017
-0.04046673057635815
-0.0033624381433946244
-0.02150336194993448
-0.00698769277298399
0.07622138140034122
0.017781950974721385
-0.0864097486454325
-0.10880352518903755
0.01994706006974121
0.004829475517126604
0.05573920953943166
0.00642812202853393
-0.027559068041742272
-0.008210322080679998
0.018552637863420936
-0.04544723194632512
-0.03593638283523361
-0.019099272688789876
0.2190396440771527
0.10507524735158735
-0.0353814039821825
0.002700167367418154
-0.0036905153662336373
-0.13780619211163905
-0.11434900404736188
-0.05115891274831534
0.02282288556955416
-0.01038983810603541
-0.08716555613601897
0.10217989188269137
0.03784376925366325
-0.00895051296208223
0.02303521904301404
0.015389693517304452
0.047606435450595036
-0.001436682663327515
-0.030243535445129307
-0.004888290547727831
-0.013706274258361706
-0.03187393367242479
0.004490437468352754
0.008549943914943252
-0.03269584525330125
0.11992258335015755
0.054292155157477213
-0.022270947450805306
0.026960015381515573
0.031156282506141452
0.04549946571728946
0.06884892016496717
0.00864211794991388
-0.021363896119622593
-0.0030039915944982524
-0.030832239707590935
-0.022535016929117007
-0.028690130205631933
0.012981531404586506
-0.126514622579442
-0.12384229308400979
0.049772773003548466
-0.008662759411281636
-0.0031511916596192392
-0.0276828085901391
-0.022950195904343888
-0.0066387909919734134
-0.09371234413854251
-0.02843739362842656
0.0640747496313832
0.18346008241840112
0.02564752857107468
-0.027896393137345633
-0.013200283945057357
-0.022370445113726985
-0.012598986454648436
-0.004630557983351914
0.02869956040757862
0.020671338406130123
-0.016269565839672637
0.005587724336569283
-0.005346593015356637
-0.033851291939754634
-0.0038724723850416076
-0.061635829408148386
-0.033714353920437014
-0.020611451279143343
-0.007806111907411764
0.0438552300293447
0.12447784943379549
-0.013984061589176608
-0.01714854461371769
0.08333295642608665
-0.004935189761313691
-0.019098453466035628
0.028289253251328285
-0.02123408382925433
-0.013846307764284985
-0.019345951476078312
-0.020258372073164915
0.019409635213912892
-0.00673096161942486
-0.0265503849628752
-0.031068505324442296
-0.003902772127118517
-0.0712817360055103
0.04048489102093603
0.06494788421367786
-0.018667746404999297
-0.008146655913507364
-0.02243075258429987
-0.006074358263194576
0.011606299224170369
0.00800843386576836
0.19402686920605186
0.03241486194680922
-0.017544973963064453
0.018343428955680474
-0.05248724942201737
-0.019463043476854177
-0.03247502674702107
-0.04952263329469585
0.14609261037274657
0.06818782063503975
-0.036492853106383887
-0.04832271602865141
-0.009455265637993279
-0.039497136964987585
-0.03966792381078202
0.003399424625148851
0.009936166174616986
0.009369672923496294
0.04771006876574911
0.0012495849783363076
-0.021211136700946064
-0.05039977078948122
-0.03702484045992237
0.02345531048906261
-0.0007734186586205135
-0.028609726746190275
-0.05590886988468644
-0.005808379109756047
-0.017008323760957417
0.04447710078724718
0.11045832683254203
-0.03286822588380803
-0.003283337384422791
-0.008613339163700108
-0.0184857504191934
-0.022768921022439357
-0.035545686044315676
-3.920262834858913e-05
0.030124099880787812
-0.009738684738135708
0.016344748536883027
-0.046869659854998996
-0.020883789956920154
-0.010100919587367809
0.0814564889482742
0.0310711222556879
0.030121488035280756
0.020430293094388062
-0.015728448665455006
-0.030679128620324965
0.007452600061416381
-0.01037944145093332
0.06931178365021919
-0.08058955537200747
-0.14995779909209542
0.13060161282985094
-0.035476002763832046
-0.03350529678021463
-0.012621523703700425
0.01762322040846813
-0.039653670688877304
0.021770926218056968
-0.006465989858441778
0.11131072617203269
0.11893369971845667
-0.032073364206998786
0.029104983014255178
0.003095338536873785
-0.012604034334516939
-0.12476481885456278
-0.03755983379403949
0.07714009967405204
-0.04231398910270771
-0.014421051199505427
0.018617654590920435
-0.024571074416498615
-0.04623188179995589
0.033560316585268854
-0.007713410977550297
-0.0035531523045242625
0.024159190594138045
-0.018388645930400654
0.004762504494148719
0.021332566349669638
-0.016856200374571632
-0.009409940189796196
-0.027134399098992366
0.05486685148274596
0.042361107918237176
-0.0018322263909008906
-0.004213978400358989
-0.001135665410662794
0.02377862521301054
-0.0203776711622786
0.003695123375697533
-0.02315085182013772
-0.00271429282480367
0.010352747529042541
0.021730640492509112
-0.0022428473551794675
-0.033487489321312375
-0.0021738445213913596
-0.03349261683879111
-0.04478111993525742
-0.03681924339905239
-0.012989963537144449
0.002766145160327678
-0.0586744209386234
-0.060676307204729336
0.006383276968271462
-0.0574395639406982
0.14356127086135106
0.17012393462339878
0.022996914495318706
-0.021790762827536572
-0.029362945384686392
-0.04789310584946075
0.0678408828512494
0.14454338245320336
-0.03810064447727504
-2.5084873331272286e-05
0.020961357107918587
0.004332831674283775
-0.025145181080433707
0.03196570714315694
0.004307933818438679
-0.04082197451925312
-0.026881246946031803
0.019532007689730038
0.010933482700376137
-0.08761854104145766
-0.04255420420029258
-0.0043702615088134986
-0.04854476122250912
-0.0017204487055145273
0.0006412394663547978
-0.027417153133409113
0.0454197680769121
0.03221652977275925
-0.012775856305439504
-0.03543821518693516
-0.010934818929503806
0.06203080214923346
0.038045476971088996
0.11204877320924445
-0.02184139775112826
0.032516393762799745
-0.009714360907973953
-0.01441910958939376
-0.013828913454463833
0.003240368459928506
0.02961762965141374
-0.01741509761870372
-0.02837259207566546
-0.02378420175246099
-0.03880293529257832
-0.0001146824027981946
-0.07414815407322534
0.05578671273119324
-0.013137242390791438
-0.014221813905409914
-0.006709091006118426
0.01627726283675705
0.0164305657136474
0.007384176336632817
-0.013508236679089392
0.015246123548088833
0.03401094032256441
-0.05674796601804709
-0.001235081209582656
0.02870823716969277
-0.004146785385895471
-0.014623957762386631
-0.007575923022711992
0.004028306658132844
0.03587472383906995
0.013485518130168623
0.0009638260487157817
0.029158660161057323
0.016446131662218633
0.013393990596348885
-0.013515585335045304
-0.0199777933419951
-0.025929254464997935
-0.03474740426544329
-0.02355563709974155
0.013354753217180897
-0.013619038928190282
-0.023915453888739772
-0.029601044640057503
-0.008184809010033678
0.03371128408865534
0.01954267718745666
-0.002306256564066774
-0.0399301935697938
0.002104123209668131
-0.00023247222384888773
-0.008711160183010193
-0.044992253393023596
-0.021581339413793657
0.05989325992251254
0.0576765988542193
-0.001647951347914802
0.03859672863323034
0.0293650932139168
-0.01995874573876702
-0.008339986770273217
-0.009748697862229963
-0.008768441030188116
0.018402217697521234
-0.038316767294384685
-0.006559056086465301
0.009095855969917943
-0.00039197990673729217
-0.0010893614256985717
-0.025487772191460954
-0.007785042473177661
-0.026478702552437478
-0.03449694199803226
-0.028330604362741662
0.06768940347178305
0.1346417320665378
-0.014388761377443706
-0.01342033846205181
-0.022406318699457965
-0.03218231477785744
-0.003856539160042167
-0.011141543076826693
-0.013974902881204189
-0.002473934182265316
-0.009049794567863359
-0.03323800265611077
-0.04545063642346752
0.07445752052331303
0.09193116755697218
-0.01978576861514839
-0.04942921221288382
0.005748358933650724
0.02887166940130728
-0.004559622012529375
-0.07285109534806807
-0.03286698119156074
-0.011153091577127395
-0.014188765368841508
-0.0061334896054841374
-0.03722382196862351
-0.0021554411910794753
-0.010506687720667086
0.1680922661842365
0.05748901924943995
0.03619291093789998
0.027990571669830898
-0.02513244337803126
-0.005287693563707497
0.016300887001715992
0.01593215404087123
-0.017318707485942098
0.00889127189759598
0.02817925775292708
0.0005080838324560512
0.007475264008072918
0.027588036951748513
0.01837036435147431
0.09434433655519953
0.04200718172108426
0.0009780302658675335
0.013122827058962918
0.00940215371073969
-0.027482461227375868
0.01906405155681059
-0.0006269715528158523
-0.15972627242940884
0.03248323661918252
-0.005770235662747737
-0.0014430542587078128
-0.019932608688364224
0.007362944659331697
-0.05405663277807818
-0.1974574058192255
-0.016230567815620798
-0.017947352988838438
0.006832110620170825
-0.015852010081813195
-0.0368655518277321
0.032434072797677814
-0.10516427202305603
-0.1028128503687163
0.061298802716245375
-0.01125359736203759
0.004007875589602111
0.14931095042641895
0.059037828951798155
-0.0033730034068618847
0.003617131461639105
0.055384993858173734
0.03134423148396858
-0.03115061337584497
0.02901180800760502
0.011606507107834722
0.007733781434984145
-0.003788552004804046
-0.027607390256298724
0.03860338917644009
0.010040845770826902
-0.024433845071823355
-0.03638464203618886
-0.049326253926142136
0.003066776778773481
-0.01949859541785854
-0.004407480459364552
-0.03722979463593552
0.008725564020159659
0.04396839280690286
0.01896226325369213
0.013305656443343637
-0.029520017589388874
-0.006125519454566497
0.060308050509487225
-0.017380712922296607
0.006836201199274227
-0.018307458183852227
-0.011089084731221952
0.027357444827163013
0.022527009850539324
-0.0020735944703245066
0.028825711061710866
0.010081368477812344
-0.027818518530399138
-0.008488625437796897
0.029493941402596317
-0.020003397459245377
0.010501137423772396
0.015068269488745902
-0.00814901187287324
-0.00040456421297284113
0.016166622526702958
-0.07192659457813524
0.0077123441670918875
0.03534211687407764
0.04281554777907094
0.004633055180561554
-0.02142217736826234
0.011121745039981446
0.025144523388551793
0.003974291349102744
-0.037040889361129675
0.04769054097766209
-0.03751230255437594
-0.08393776849679219
-0.009572586366827411
0.0008192947726001496
-0.011092148318670286
0.059005107182746395
0.09277767960540204
-0.0013345761929743172
-0.02117667744291585
0.025680307885855267
-0.03246742874470148
0.042081957885520424
-0.016715130922711655
-0.1017162391031411
-0.013348679859045086
-0.00764867893983734
0.1525803078805993
0.026657763887719288
-0.04779021331790772
0.017888132919839414
-0.02726717923752754
-0.010715756214248496
-0.03672259842260884
-0.004683866561471411
-0.08766899388620708
-0.0965474869104073
0.007987184885310314
0.005357614019036976
0.028082748464780274
0.021340056044232086
0.04890100004669745
-0.0037605999912552453
-0.010286504899969911
0.00559753971693954
0.009404509906522023
-0.020681921929444385
0.039381561617050975
-0.05617599456632299
0.024839671226399747
0.0414925646667312
-0.019181900032586317
-0.08184952562671288
-0.10962010501801005
0.017266006643423915
0.13455052052415659
0.01026491840669863
-0.01470074184694346
-0.01702946729984132
0.002765629047695303
0.004088565781164411
-0.018953128030510982
0.06178239733490235
-0.013671697049280031
-0.033843527775535016
0.0261371503689505
0.04868856768034081
0.01078858221415246
0.1103995261337515
0.000981216728024878
-0.017365093227548627
-0.02916419473692803
0.004464656431765746
0.025796509506198273
0.028476420023076383
0.01886951125754123
-0.029153370100277787
-0.014363740152573455
-0.025014961389943878
0.007530117752795817
-0.021334248932030144
-0.0038328724199374526
-0.09953013654726199
-0.14079578693490474
0.0828722994362807
0.16463778549875688
0.014931272449757626
-0.00870512598828107
0.00971293814154864
-0.016111546907869607
-0.017056995886211786
0.04257650096654132
-0.018570268664834428
-0.049061539126433254
0.009887704598592017
0.017164917572550818
-0.0074723045060477045
-0.042578079317226354
-0.0979820341369855
0.00795587020638161
-0.013773898067209352
0.0018868187030821881
-0.004093977538610242
-0.024358662302856698
-0.02229621849399178
-0.018509620977001155
0.03534393691726142
0.004135155401297172
-0.0718009948386153
0.04915031050203731
0.10094472198129747
-0.008765968990809083
-0.024440786510667247
-0.013662941632047705
-0.006457147532696984
0.005306897773567113
-0.008338415356103425
0.016956618924389703
0.018053746522866298
0.02622727795214546
-0.02610670724646784
-0.004722505574155223
0.04857444930048679
0.027647998219280275
-0.00815800062813462
0.024220846393418073
-0.044216294962754116
0.02439696047208129
0.01871829695860474
0.046097749391117014
0.042305764440122726
0.0035924653675070777
2.9537252164841188e-05
0.001295130065327394
0.028362652535604473
0.0195070090542815
-0.044421517693165435
0.006231247082725303
-0.08587471588428831
0.009291481822977007
0.02902486653082304
0.023680692260236887
0.01117160533012554
0.009252954058136805
0.029982466558735505
-0.007535441985707409
0.004244744153169453
-0.02039970747411649
0.014721998830594926
0.0033784430807694784
-0.033089909111912126
0.01893253747274223
0.020089941701432402
-0.0015807828895079068
-0.009953052211015993
-0.03161735714289797
-0.08017220154049905
-0.006930252454540673
0.005384510881811016
0.011394360365113322
-0.034541206168548694
0.00034822864073811135
-0.015913916042619394
0.01801824929590122
0.004550179757737615
-0.019950106512219123
-0.006291558793744395
0.025161005589962593
-0.015457523926612059
-0.015619671242473487
-0.04655337150525957
-0.04158807950967798
0.04103561930854376
-0.008676306411639934
-0.03370685790358726
0.03375322444187567
-0.05201182003655506
-0.0038463995655696726
-0.006577446851381836
0.021165979474068272
0.0063216031712744186
-0.032526361947954455
-0.00033402519971100154
0.048368190582338384
-0.02323621363935997
0.012569686819892085
0.004181932764814792
0.13995645948796626
0.03077933423675738
0.0008494707011399657
0.018422700573489485
0.06761308504829465
-0.12611006839095287
0.06642527823035971
0.09410454342672356
-0.05525919881187099
0.02293503348072412
-0.039384705471226154
-0.015478205839027863
-0.0003096904029129561
-0.00864132901100823
0.025013628351599884
-0.06218832982493621
-0.055127108584382696
0.00300745072511591
-0.01702768339129513
-0.004062499262239909
-0.0509252934725514
0.011973612789515727
-0.00794487383447409
-0.0007882697142193257
-0.026257228109902275
-0.04764189762986723
0.008051902179046423
0.0887436008182223
0.007188085357939952
-0.05599650081807277
0.039798317083039485
0.0021778721489380815
0.015960349986556138
0.010956891178702783
0.0011837805425817286
0.05605362502661897
0.014807976513819295
0.03878041399693789
-0.022825174255096847
-0.10438460910313223
0.004273881481373116
0.01422241874905295
0.04977175200521929
-0.004079806016598081
0.05952249832116856
0.018486909776734905
-0.0048618871220442745
-0.04508465601118168
-0.043605040416473145
0.01950462365749388
-0.052096249327568976
-0.04711908408828223
-0.050917340085341656
-0.0033059007527928837
-0.013910071581342718
0.018096971651901935
0.005469266354068945
0.00325911465382326
-0.037693159352011174
-0.042402046532764914
0.04310884140854018
-0.022113412365252536
0.008836849507056353
0.004838663488466159
0.03029415426376152
-0.014885744515580144
0.13393342263359745
0.185157932863501
-0.010710210482558977
-0.09008672590605178
0.030770289042778044
0.026562149268070046
-0.015412454472909447
-0.0004704084087085582
-0.046194555455215815
-0.03332572678283803
-0.025430132503053905
0.013486475689534174
0.009331833899667144
-0.018668464662454406
-0.008999890280325636
-0.02844634585828679
-0.058744086094473735
-0.0014488369649718316
0.08059811225757528
0.0635437672888183
-0.030162894201685893
-0.00623429973194287
0.005975505402440758
-0.04543126006183877
-0.061442336931856315
-0.02475204562810548
0.0015647850387985282
0.01753331420241687
0.07270921775324854
0.05255360276546005
0.01844702982974239
0.005118023183766528
-0.01551842949373617
-0.017525063384637458
0.014343899705017515
-0.005719066789259507
-0.04569068564581984
-0.0045890043931988
0.04287604129267244
0.02516485073547829
-0.010347784088334786
0.031355961902796235
0.014785605298804004
-0.0493958850216495
-0.011477165277741468
0.0021934499818337216
-0.057956137157775256
-0.03157343984186686
0.14224974761869708
0.014835523864507634
-0.033990630756253915
0.04016166972271149
0.01174030166179648
-0.05009353832063637
-0.018561556370298354
-0.01189617367212931
-0.03252580764202566
-0.013415838677786167
0.011543622225586707
-0.016340014430679645
-0.0056570091693225275
0.02891514859348205
-0.008412375614005064
0.022040438321950295
-0.001840369264427979
0.012850553899171566
0.033431460957581406
-0.01560128513227047
-0.023290256563583203
-0.025626377529687737
-0.00472364994889471
0.037280446226046794
-0.009816904417908745
-0.016407023773116345
0.02169648511438504
0.02154084097567792
-0.009001878077606836
0.00837342678044433
0.009115399700963409
-0.0052112060939002655
-0.011931149922567044
-0.008862082429425237
0.005108646392524521
0.03108231125843472
0.035875159484236946
-0.02444020263100833
-0.1922306754597564
-0.03851722562791577
0.01559009044089703
0.017252267720850645
-0.013015840643220694
-0.01919046683592594
0.0018266509157237843
0.021014233820922785
0.044570354905418774
0.053751611291704145
0.011909827413332333
-0.014898545225001555
0.05954443531578303
0.02423311569745638
0.03400814978725215
0.07934753595064517
-0.015619115938496788
0.05240192220109453
0.00418523235300623
-0.022053830492820354
-0.022869022510965873
-0.010048331499953895
0.0011336374818491912
-0.06464822655384232
-0.05794427583181815
-0.013448108913187805
-0.10607933199365284
0.03943047511262421
-0.03446493379972645
-0.013325977619675291
-0.004027182520111699
0.012630868786780713
0.027536141690097594
-0.009477931232573704
-0.026774252271726667
0.03810898404845269
-0.0037693421079056204
-0.023940252175028272
-0.027641086919321038
0.022402889440633827
0.038017857501259744
-0.014318180218572688
-0.00033598921508749385
0.06318450317852559
-0.010029476229203594
-0.09014145568987644
-0.06393244452274105
-0.019039265344996805
0.02448219724007917
-0.01008125959688538
-0.01358334157121444
0.0354964904123531
-0.004736917607026762
-0.031375171971413256
0.009561312469056551
-0.00787499044361304
-0.03149797151943047
0.038030428104548895
0.08328581860160224
-0.01564393762037463
-0.020386383713360108
-0.03611723253328353
0.0340792194408711
0.01894127175333041
0.041576466199627925
0.017042963609683423
0.08962778036128743
0.042853245373746914
0.06689895284090261
0.12098291359809532
0.013942494986975008
-0.026180272905720826
0.026725096212094724
-0.06558131704469733
-0.18994471400872798
0.015235333696190005
-0.01830009793686274
0.04220798360888163
-0.01379273408947639
-0.014956520678943368
-0.026213586691454786
-0.06570377119978037
0.004451822530941428
0.07062431075031923
0.01943617616341342
0.015506202742793143
0.0013388545104105153
0.02448691063381264
-0.007866370867998457
-0.01991659631354063
-0.047431460706223914
-0.06668117852225589
-0.0385531550298792
0.01582383470307545
-0.0211200224214278
0.07273943865342897
0.12645732016664535
0.04982071901662695
-0.008389258230758026
-0.03617714027291234
-0.009816655947532378
0.012485749776609273
0.005311363932394964
0.0027495303261694764
-0.03875619491809437
-0.07148825994040696
-0.025429599940890814
-0.058616774743017026
-0.03203538285403442
0.013869196229842357
0.00908754244197475
0.03314232247974621
-0.019424636555924003
-0.008202164551644449
-0.015210353294456684
-0.02014272513166741
-0.02254979177776676
0.06159576643160525
0.007773156838538403
0.10352952498107983
0.1439723551348126
-0.010581996429899496
0.038127385249015766
0.003340934242524239
-0.028655609752953913
0.016763330857496865
-0.010701858752735455
-0.01736241667123489
0.006136980037566068
-0.0015173574001673016
-0.008925782128159296
0.013952782187579203
-0.03251371233943141
-0.07045172569284072
-0.034461334753136535
0.055515738575115575
0.00601906952478017
0.07647307152964221
-0.11491591804912109
-0.06956853780551112
0.029887122806350492
0.005194955603962747
-0.017126009751944317
-0.012101226579844413
-0.010440120741623354
-0.0058052515285794346
-0.005065056213057895
0.03401746388816973
5.6543892572046964e-05
0.035369047711086184
-0.04077085846687864
-0.09173987840650448
-0.008298487361362607
0.006140551005443517
0.006285823717476463
0.017671545298667643
0.021198253196212834
-0.007485863891053854
0.015123784864819493
-0.03252432392305511
-0.026365525663451
-0.06446383291729457
-0.005021323946689185
-0.006572235690722564
0.00817330075449638
0.022959664802998107
0.014920348588299959
0.04032783304311299
0.014214886601778312
0.003752131179977403
-0.003836508432053346
-0.006862667353646487
-0.015457647636588922
-0.04129008745189878
-0.028490236169191257
0.018833787043042005
0.041349751164600435
0.04480216199628277
0.004005865376318992
0.039921568303750314
0.014766509838024777
0.017178671934344098
-0.005357286560933371
-0.01092404245567674
-0.028043187932627438
-0.038959369858256196
0.017397901599234884
-0.010638031274108324
-0.011178683212085988
0.03491966936614749
0.024850307948032314
-0.0019747208106913948
-0.03398873898889188
0.06561315121492398
0.096370384261941
-0.011339695004373667
0.006320799012300773
0.0014828042692632143
0.00342302457736506
0.021324606239306976
0.011693534786379963
0.004608119378494906
0.016406658036729183
-0.01839743787439877
-0.07279496091775173
-0.05025403362794424
-0.008595346615661562
-0.026418888931466575
-0.0019898592557346826
-0.014250808663890873
-0.023023221191372213
-0.05281646128861284
-0.036812996778423056
0.02637420841278787
0.017495898218786905
-0.0019713208575670594
0.07556243187712877
0.05804448793932526
-0.005195373005537348
0.010474694355595691
0.013685253496252239
-0.015774950982969285
-0.022166114528280958
-0.030090604670798823
-0.002917115359899909
0.0179244872660811
-0.018020432350977923
0.02918109016750936
0.07228761913680624
0.02915080713480253
0.008111951962127256
0.02232506428712809
0.001493088251607052
-0.014047431778883408
-0.04528423687672454
-0.11418828969303486
-0.038864925953533046
0.020670578093153896
-0.010055603518692382
-0.04899514143188085
0.0009619389672730494
0.02921892190417345
0.06385867477363091
0.0012020650722221757
0.04532024606466423
0.03513475363666774
-0.016499091689697005
0.0061763953182646355
0.03281153776651622
-0.007501481224718738
-0.01098191115996525
0.04758904928201697
-0.023306725355336625
-0.034786450965688116
-0.031596430216516945
0.021891373201460573
0.005177026676083551
-0.011788890537505961
-0.00219038340464049
0.02309216151667019
-0.0014265464820843188
-0.015227557562003249
0.03728588985436657
-0.036984186911868465
-0.20077608300439712
-0.024534478526830644
0.026451492173507406
0.04169164945984645
-0.02742642030804704
0.004341211058910635
-0.02104015431882276
-0.011920475807973098
-0.014338676898433843
-0.00986558869478321
-0.03394791720024137
0.029172002103314255
0.003083731034919187
0.08170725386219249
0.04610693201725458
0.01235465779436407
0.025423243921043757
0.0696119408997414
0.05393962269660005
-0.027264259078728672
0.02941449961751435
-0.03451609618273274
0.023984240427214986
0.027813785240800398
-0.016283097799305427
0.008361133772494275
-0.03415975169701917
-0.0326398162151218
-0.01606038743372427
-0.02280059202881158
-0.01593746668924047
-0.06878488246990669
-0.020410760998572693
-0.000977637865235755
0.033208811044844015
0.026866491798471004
0.007275594691799289
0.027364459460879162
