0
0.015592792800652821
0.02703188660442599
-0.01165352108442515
-0.013512063634822533
0.0021200298467399866
0.00216158075478062
0.0053674802457958064
-0.024283152480116924
-0.02596384362846402
-0.033039390873316664
-0.07786327405458761
-0.015676862187827042
-0.006740318741974768
-0.013972959405340334
0.18587735599418717
0.06677419362415572
-0.03164201160416158
-0.01858348268468007
-0.03495643294211775
-0.014037808634755154
0.03050929575499779
0.16270637893653125
0.0286609213928125
-0.04402389529782499
-0.008836734943579143
0.01880408411794061
-0.03077864660357542
-0.06307554926668955
-0.05004721347985728
-0.015475883995439461
-0.011765026438836897
-0.005072274950668241
-0.002374752366720036
0.003989280763934238
-0.03833454110946362
0.0028651062607672508
-0.050278095386366614
0.05517178638545647
-0.12436826332703839
-0.09210684739565889
0.028930453112572398
0.05203551424050065
0.05435037507763725
0.021756940959392936
0.033828837396416116
0.010731548582620858
-0.02039875964870483
-0.04006029829510464
0.004214076424763596
4.166448060118118e-06
0.008250458718487903
0.016282198305160443
0.004421446613205285
-0.04727732163363641
-0.010699982936910879
-0.010444733924685765
0.014857769425188398
0.012455500981907985
-0.008116384891579604
-0.004907529612983705
0.04356398873866306
-0.002773233641834
0.0251635438653369
0.02522129830833503
0.04130443427377612
0.0396768697024747
-0.04034918852027942
-0.003766655763167297
-0.056094812062786194
-0.003960261347404155
0.005957520728248
0.003011432839685446
0.012784278999910777
0.04483133153195068
0.03752957898812795
0.05177509216270551
-0.11561823787888478
-0.19489410119157885
0.016295635407551967
0.0016229080607841253
-0.0170460054812247
-0.021574923142199172
-0.006796138652398879
0.05484863534400932
0.13591817855872057
0.055430698912691936
-0.004259326480309003
-0.021330149023998123
0.04151487159609181
-0.00795972841552566
0.026552786723144164
0.008779099466355515
-0.021720467839421626
0.005132071383756706
0.07092805426070788
0.026353822397522035
0.08435743811462763
-0.01834619752961379
-0.023600461605424523
-0.01420198336429147
-0.004056849572111646
-0.11065695680284926
-0.10243442426538958
0.03375456575220076
0.04039827916477799
-0.00809115498372674
0.0073194764194165225
0.022046372451061405
-0.05753447188822676
-0.0004125584827010916
0.08195756167320409
0.03341411496500752
0.006479658732897628
-0.10095483697390617
-0.08518218194792067
0.05748811220565761
0.04435458650077144
0.008947493515108438
0.007673569717113034
-0.04351221406217636
-0.051861718884166484
0.011985122215862207
0.002111330102836327
0.026423766188252606
-0.0015357715770718259
0.0065295788469546655
-0.0037438142267657614
-0.0018294698867076756
0.035580551409201064
0.011630031879927187
-0.011685140129302257
0.0031252354662441003
-0.04045231311850145
0.007223258764306896
-0.09954589076215577
-0.09211705712826003
0.039255218854015714
-0.011666791414282708
-0.018714009594857917
-0.010679900325619813
0.005887237575777901
0.010759266019933302
0.024738481371763647
-0.01099015213622822
0.024357526310996688
0.11776239403084444
-0.03407723856471825
-0.031036714985527274
-0.011567284455648882
0.00552033607688785
0.04338767895053945
-0.01080070832018014
-0.03652256154749747
-0.002793790608760799
0.0039436914376799765
0.004564586758411248
-0.01775177944106082
-0.0025195181315243362
-0.0902966899965252
0.041938035118336145
0.015027012231895268
0.04453250701511187
0.015091515745731249
0.14655309267300282
0.059708521177327646
-0.01620132668269223
0.053183280116342484
0.014100591654527515
-0.054691148505966194
-0.06011961982905308
-0.0016245951282726249
-0.023868029249782843
0.008042379182689907
0.03227861293994277
-0.031187694366699048
-0.03231768811731773
0.0029853047041577176
-0.02225988044900977
-0.038541753055115195
-0.009194414420654115
-0.008219890979844612
-0.12084661559059919
0.011985510177556637
0.17270077936216696
0.010282298535933007
-0.010639756403889518
0.033262259806500716
-0.045786567181972715
6.407139904768117e-05
-0.0008649858738238866
0.0024451919324549854
0.005545540070403473
-0.037305597396768454
-0.008161763137827323
-0.006734452503686645
-0.0005709907407352611
-0.005311114140226211
-0.029457449518967053
0.0045962954774673775
-0.02479838046423129
0.12279762313348386
0.07033173968369336
-0.009310027210243963
0.007728542266108133
-0.02722406757251899
-0.038747114866783734
-0.05207307502358539
0.0005364925954367997
-0.02822244291118802
-0.02985704725850159
0.09485764818864206
0.02611559781110992
-0.02151335390867479
-0.07348986766718897
-0.07433529181655414
0.09664137846661218
0.12844996919391097
-0.045811034622461624
-0.004638369486667235
0.0037010657377361603
0.022936972764174616
-0.0027716272275117846
0.0268822321392925
0.004328700892200893
-0.017387697617108268
0.010793546198583609
-0.01095839776170654
-0.024082097553213614
0.005442542002510809
-0.014519364987516162
-0.04402726788345979
0.0008032999917058619
-0.03252469906027567
-0.003621417587251014
0.01810715172018721
-0.026993955361549173
0.013408967270176094
0.05021598648285358
0.013116712493845611
-0.035640612372737177
-0.013707455711512925
-0.024730484650572232
0.007004453577744388
-0.05899294936392145
0.023823446075043546
0.15792034454642062
0.005807332127434796
-0.021204340089513843
-0.015124997004812173
0.05407848907882177
0.03781122303424438
-0.023874812302155907
0.02775520065730318
-0.0018686322509057383
0.01857811173926109
-0.09469157253469065
-0.05300478366017476
0.02531123500964738
-0.026866832134021724
-0.005915037442709158
-0.0925499517495084
-0.14077127341597734
0.044821683760824474
-0.011884199283203613
0.02475819126086489
0.04279314928254307
0.020649709324678984
-0.017523276197715952
-0.028322146091598194
0.022604472898988204
0.01578749231315152
0.01789910499266432
0.0024202860454224672
0.02768555194625514
-0.009939968051297956
0.022215103583563843
-0.014770915966266182
0.051341458838136685
0.07068284229722219
-0.02140447368760501
0.021654822402344277
-0.006385259758559764
-0.016957764659027437
-0.029310390771222352
0.03777986159707795
0.0059020417232273446
-0.03557521938778962
-0.01441646845047477
-0.04309449094752539
-0.027406815377572172
-0.01771614558613773
-0.0026219020651707062
0.033677970037124846
0.01341247127274525
0.005845952870389092
-0.03133243733333814
-0.03497840211240219
-0.012015625063532029
0.02027539947436884
-0.014836707740094794
0.0348162609501357
0.01111985583149893
-0.006498165984953553
0.038138650866095476
-0.0008820052987157579
6.373717488417853e-05
0.0007441962306209058
0.037143740076760884
0.03781317619693301
0.07046020561605468
-0.02082256241207299
0.0002339239955936869
0.014810077034436486
-0.008460906287727084
-0.030116445375322272
-0.039376769862284625
-0.012580548128853104
0.00978991045579083
-0.053279169440050275
-0.036078285544371064
0.0003167245624620273
-0.013046601827991139
-0.01446826559098568
-0.004319064894993038
0.0422106187639922
-0.030867999847144667
0.020784083567095685
0.02640320632680454
0.020710118869926165
0.016511360039097936
0.029579640007252717
0.0006580356852011038
-0.010936614962161561
-0.014204598533317176
-0.04528409601511624
-0.009799704309930496
0.019195981436657676
0.06168780229148776
-0.019671386978757303
0.022953669659200024
0.009440197315481727
-0.03636044337086224
0.006005737648339395
0.02002498559730831
0.015425611831184256
0.03214936798196452
0.02859891934367289
0.008028440159724983
0.0013498219134609082
-0.0009691570973224575
0.035619675281250325
-0.10922388507744889
-0.04583485654775419
0.007549897898228062
-0.011107782229950028
0.13514058237997317
0.07259930172724911
-0.07226805213169558
-0.01770572668612744
-0.006665036625391414
0.022109196559123842
0.011026544718112584
-0.014849551841621886
0.004724683360281413
-0.010482542178813876
-0.026473831017878646
-0.006669974211315386
-0.043537074424335236
-0.056322879862131164
0.01382363228158834
-0.005808279403824881
0.012290158447983427
-0.02279786566698949
-0.0019548460647375596
0.0003056022380473799
-0.10634726602432298
-0.12416507165368552
-0.02017840306968014
0.0066307343530990995
-0.02740860371177691
-0.0034089238968295246
0.0290938937064633
0.015674317158598298
0.011388822729595818
0.0402275528862262
0.012643386528616327
0.05609748700122715
0.015174866886603735
0.031328550744823776
0.09937556210572372
-0.010096135155979258
0.03438317552833534
-0.01957281209120961
-0.02330323782020841
-0.02772608917930069
-0.09947275605903902
0.004666517567828954
0.04169229453108849
-0.033037455758772254
-0.03436304285772722
0.028501707800806343
0.0454205612214031
-0.007285671326225313
-0.011443298516897201
-0.0874760609673909
0.1331164285811247
0.12321557136016825
0.012272585562229243
0.03908005923207641
-0.009518074807260838
0.019538470621945452
-0.0420267441418284
0.008630091263932273
0.026226092344104293
0.01022014806073303
-0.02210370030899727
0.006699649803885405
0.011975159138973334
0.0014161902164446388
-0.04406580393103873
-0.03124668836986206
0.04514028477585035
-0.07473146226148748
-0.1049707796505285
-0.010124647465154655
0.022274267334822753
0.022362603114719604
0.010973167518052614
0.021418683849244734
-0.017293832874547273
-0.014880379225367286
-0.007493868761552428
0.044948166683534636
-0.006681756054178951
-0.09179594656466751
-0.015318539833287547
0.024297194618321322
0.00604662058341426
-0.0332696473164266
0.04717688048079009
0.0012819283366172552
0.0485984923199146
0.027085892849953604
-0.03690744101207585
-0.00997373540589747
0.030209031481392173
-0.022854863265713753
0.0009838483562498925
-0.007302120932452961
-0.026421791348623574
0.006089255845320805
0.033504389705635705
0.014407931965632191
0.00391415919549017
0.027871077648760487
0.04462295262818851
0.03783220765516321
-0.042204208310229294
-0.023923588752977468
0.0023165190854566083
0.06364238834529784
0.03586820993915026
0.00043609898197328025
-0.019064676018208684
0.018931589415780572
-0.004474602379241587
-0.0031219266184648086
-0.018459522832464315
-0.03167435372150229
0.003960279055361152
0.005008003061546559
0.025613727005662335
0.021528923438001446
0.05015043942672921
-0.08633528830123385
-0.07109375442853533
0.02082966656057475
-0.17368017798522983
-0.04620073893738768
0.009141472308332113
0.009626844276072785
0.012948636786173369
0.016488660558336473
0.014506326153404919
-0.01734374874329304
-0.02738691745005736
-0.013304094868146762
-0.042087431132032775
0.010298835721909795
0.007391007610986855
0.0015581482605538217
0.0016472713384314808
-0.02059205506618833
-0.022165296834935216
0.04506860044763833
-0.008390355490045806
0.15633203836458653
0.05163434692939594
-0.036679310642093704
0.04818366895141661
0.0029857564374500736
0.03860012216805267
0.010450087097124444
0.042417183384098965
-0.0024667465615332428
-0.0014089286220468334
0.003772508015779401
0.01754099952870926
-0.10065914714889165
-0.06880245760505212
-0.0064331328836622625
-0.01434878018333431
0.007406566066929444
0.03168528530169261
0.02977037398290918
-0.0033186556255105403
0.01598039898877438
-0.0031930093996743146
0.01670814617619103
-0.039447963765279634
-0.03987629287708275
0.012871217640269465
0.050716858357958826
0.006371638750103872
0.04282060978591639
0.040696314442766654
0.02405196447371764
-0.03464231666262486
-0.06786563430193915
0.009443397456783706
-0.01040449696394287
-0.06242783563801359
-0.00957046047073589
0.045799017966061895
0.027628584662117626
0.0155276659119245
0.004415905299645884
-0.03385710261530288
-0.029047823831550135
0.019597809424681246
0.03279542122388062
-0.09059599318677325
-0.03613232394532816
0.021013160005562914
0.014416450505856633
0.0027167330326331625
-0.027722325087777926
0.015244383940425456
0.0026429444890004906
0.008712540447718901
-0.009348163722818485
0.018740753465126395
-0.02658695903431352
-0.01455977087079799
-0.051954698646505745
0.11887222442735915
0.057646336789063814
-0.015721359296428095
-0.00872354914295941
-0.01847203561129255
-0.002342406904678994
-0.018301046313533634
-0.008891185796158727
-0.014996289259426707
-0.02692150526536498
-0.0048507660939867735
-0.025598750271876643
-0.0034828589485272955
0.003580733663571315
-0.044694347215011324
0.004759396921248238
-0.0153776389778151
0.01673502833426205
-0.006178067603453692
0.01725409023361592
0.03220956639654603
0.04586625864563436
-0.004605322563694502
-0.0022330745864993073
0.003759787399479946
-0.00016711321375321948
-0.014437473488052974
-0.012748817591458995
-0.0017435646027780592
0.004151176488820587
0.01859174039381938
0.009796789141216662
0.05290488238720394
0.003480890051134633
0.04264159058122846
0.0049179023624049125
-0.02234931532444075
-0.03858052816986692
-0.0148313534308678
-0.02346868250770378
0.04482223592374648
0.046082997830910015
-0.01225006668648344
-0.009170876447580877
-0.03181310053061103
0.0014942004240285237
0.024592249854006508
-0.007799011119218008
-0.0024651395663475924
0.02542685394506041
0.027001389679427897
0.023679910780638937
0.015257281643070945
-0.010648755632662788
-0.018132240207232718
-0.0038520729260999235
0.018319018122256513
0.009488528528770857
-0.00610311528885553
0.021654817354863447
0.022897749593560175
0.0414732085578005
-0.007523002656190752
-0.0032669266320689955
-0.017320728560443137
0.024543168691097475
-0.04623688706592925
-0.05857111526034914
0.021305892430719623
-0.023930038979390496
-0.028700592716427272
0.04451877339753438
0.058114737212106256
-0.024236078465156383
-0.005632626169557772
-0.02479346792784444
-0.002749055945688629
-0.02197599978821271
-0.14103441705067077
-0.00643975361580305
0.020672110110115844
-0.018650359287978202
-0.1423756785693005
-0.006670937639910986
-0.0009892769824213477
0.04277815013309467
-0.07749065027427515
-0.005925764812040265
0.03643832668768164
0.0255077458169245
0.010123443744137314
-0.011852651642841803
-0.01614324881655779
0.003302215442184164
0.08171226783380163
0.05508389590312011
-0.014031029528882692
-0.020613940969349077
-0.016779967305354648
-0.012178664105342319
-0.010577573182019845
0.04001822536436459
0.02623589141917293
-0.017476230551017383
0.029406761232383248
0.06781348813792926
0.032661724188776206
-0.03333850333975382
0.01386737705822743
-0.01106899793104168
-0.027335648566264976
-0.0005339302916856622
-0.045040810282798285
-0.0048554013703454146
-0.017104007444658273
-0.028387013040694176
0.044957571345146184
0.13406160176468243
0.005459991334822814
-0.009522200024840317
-0.02688600769418934
0.07659158241390487
0.04805737713703436
-0.04066193937666267
-0.014862459411718015
0.007352142502345844
0.04873549467581145
-0.02289867727957161
-0.03842213460872013
-7.3648434538267035e-06
-0.036743100156715953
-0.0055826856923912645
-0.02312299637601767
-0.0011728497416799864
-0.025781924728252886
0.0005260742336691208
0.09259985599297507
-0.00032372425954756
-0.009698413547819647
-0.006398820317123557
-0.006164190297203776
0.023058929688335277
0.010823189254158821
-0.014307596600108649
-0.012123580523748213
0.03941002552594749
0.02905988173580596
0.004502344722980692
-0.0036943534097548785
-0.001425042811369673
-0.009526718654699262
-0.02861626031199434
-0.013673488977556367
9.714250960121786e-05
-0.0034775005535889595
0.0011058668179140007
-0.11287741379744487
-0.04155603024623676
0.023314404617290802
-0.018731574789503498
-0.002602379816306685
-0.01874297583185093
0.014826858277869129
-0.014096675784903333
-0.009190450151634761
-0.02388884014444626
0.010915449883055347
0.013645451882647385
-0.026258009446750084
0.008584640063245129
0.0008179747231277975
0.07456617015014327
0.07867042145339875
-0.036689431186618285
-0.02337315093901281
0.018141466804201353
0.012165548553264021
0.01724396458143984
-0.013786027026715879
-0.027929126542558837
0.004049035098573521
-0.008450111742290578
-0.015108599298806619
-0.024399123795713483
-0.026850989093701313
-0.024856824386395224
-0.013886608505530426
0.01389161122009025
0.0038064029672447886
0.0032841490161835836
0.03017558209173021
-0.001985687658176878
-0.025532936572756654
-0.0514319290526053
-0.01862874647297037
-0.01690839920231239
0.18112958703113044
0.07373697899017871
0.03455417301883996
0.03168178085444261
-0.04950182675037091
0.012302743572300451
0.021275086771151856
0.037204897375560604
-0.06461094309135365
-0.1008073832492851
-0.020846646147405938
0.04684946377635085
-0.06255486590784372
-0.14340292321245396
0.02431866272948497
0.0748757548209288
0.05380523097793872
-0.007419830440601004
0.05283993077092063
-0.00011650516645683235
0.010644168475942498
-0.0020949257517614206
0.011211823928117898
0.02848213634535048
-0.03504597360266999
-0.04311564277700869
0.0001300593650565503
-0.006263514690066394
0.014182117763157831
-0.009758619366578033
-0.030963129372909744
0.02213519539030582
0.0759030536295391
0.0006564274184846959
0.029677939349644765
-0.01418192130373755
-0.026364074874399516
-0.016811333152849106
0.026824068842755476
-0.004679172807398226
-0.020593869857553182
-0.028284510357796142
-0.004294962139449497
0.028277231678628674
0.014312920388185855
-0.004915297439197708
0.0024126352989964415
0.000793750122646353
-0.016198058149749665
-0.03801780799268463
-0.003822689481753318
0.024431715421333728
0.01007710911537942
0.00514208416082964
0.00896686949855638
0.006756601279517584
0.020917222571814425
-0.038883837292435705
0.0011281554986963737
-0.035973338196629526
-0.04315983571174229
-0.01741893463481394
0.028358459266061828
0.003879344075475034
0.019685217083883058
0.008491343444145167
0.027632354666362765
0.0073532351247050385
-0.011834231869622052
-0.03367276667132683
0.0270015797373898
0.023404016886893208
-0.01758670738816601
0.007010255290454731
0.027000165690500438
0.017197844547163454
0.020118156691503988
-0.004265536988856411
0.022208007960028458
0.07047872829344813
-0.0592536411925485
-0.0023794121407086605
-0.008017154385627195
0.002393378390460031
0.021211434933965687
-0.05413206580451063
-0.04454924206574605
0.04681000062276057
0.017707266521538586
-0.0294098818436506
-0.012346838245199129
0.055426293076825325
-0.00429018451778443
0.033209076492744675
-0.023687383670994686
-0.1792417440861073
-0.006965863470732885
-0.018227958266070484
0.009599280847065902
-0.030167330101546482
-0.017016635219309052
-0.016325152965139096
-0.006231734020433557
0.0007181987847149701
0.010607607319774198
-0.013216301295662675
0.03428069826683471
0.008286078586020195
0.018024245219037453
0.0505517871317284
0.007212166599374109
0.03001698200876168
-0.05633776118980195
0.00887793220304917
0.04554742409251278
0.010733760004386838
-0.052078597810128247
-0.027100538551574876
-0.00034614274306963736
-0.04592690539929981
-0.038779327482622736
-0.0037882191105254536
0.03798977223253815
0.14928354399298377
0.0033759821303309236
-0.06365859684297594
0.13739111824115766
0.12562451307413489
0.05255182467940777
-0.011557339535359793
0.008104210938712915
-0.024434905252469608
0.025150114145772205
0.00014111405316150213
0.03415654241874129
-0.006338727195226772
0.023703341814561636
-0.092860921013608
-0.12963329497463744
0.024330485236696685
-0.009347655036677397
-0.0698230773600219
0.06177824437371621
-0.048217304367997794
-0.10943616430064732
0.017255024866224423
-0.002507467760819518
0.023452319985697485
-0.004560524937318541
0.02675013534225042
-0.0009978323050286665
0.005936963326922974
-0.021012972465280458
-0.030731865076122654
0.035193098734781984
0.0039239690814467845
-0.02795264811910861
-0.05801811038225791
-0.054411224148455645
-0.03918788669022728
-0.10728349582432044
0.009961789725811541
-0.016108715807284176
0.030175443089735767
-0.016048413825493303
0.015640611467401425
0.022183296022584346
0.004317009526349806
0.10246335204772852
0.05055824551569485
0.00771025651481191
0.09794582532088632
0.12396499015856237
0.06509252086249026
0.0521834379222062
0.009690599131917282
0.0036226927891780843
-0.018585341222071755
0.012399492462903063
-0.01935853737390493
-0.019746408067103156
-0.18660840149180835
-0.0010345379490031578
0.052400316168083536
-0.07112342263200763
-0.04560140004843589
0.019899979262952654
-0.003223521039244085
-0.056251665672693456
0.0019414318757392068
0.008506523541525344
-0.003163378072856509
-0.03976673398586643
-0.013691493818751238
0.011023184702819024
0.0598087735379541
0.010546298555735403
-0.0040242405519598
0.009982994069570348
0.01419171597818694
-0.034096597308899246
-0.0022169849206045253
-0.04496495684544922
-0.06052549733498417
0.04067418131576728
0.1693319834934917
0.0021619675087708266
-0.07141081055875213
0.006469173302347865
-0.002977994883130461
-0.01939529634158583
0.019202051997247626
-0.010524234413612934
0.007465907252320661
0.009078930932145356
0.009047589616438936
-0.018355904257495816
-0.005183855154305313
0.06542854902630722
0.0011428403253384888
-0.058174272106488685
0.028823022099305894
0.008473229658908826
-0.014846070833229317
0.01817576690248609
-0.025773869003695712
0.008472232534346763
-0.027981346930975443
-0.003931798801111446
-0.03538000225800965
0.06234770794275645
0.04187889978983277
-0.06674173218857299
-0.027272552307802154
0.022627010532388737
0.02500989781154045
-0.00704776450545877
-0.031127605330157484
-0.008297636590695587
-0.04163730803039942
0.029908643438276126
0.02091852754618567
0.03985340243960455
0.01492569964063082
-0.01485486653199109
-0.044669277986259484
0.04614820770745245
0.02403874547452106
-0.043431078878578014
-0.006941305822300021
0.05838796061316145
0.0674809256596492
-0.04838140624312373
0.043173632486699864
0.003784187799856992
-0.015714149877272817
-0.016446980916914645
-0.024007718380073914
0.0016639375457685327
-0.011835731370635334
-0.025508105192760817
-0.019004792059366053
-0.03361309396457013
0.00827072058747312
0.04346812460026025
0.00452331277368059
0.02426198305161471
0.020513185407187336
0.012932816819625772
-0.039724408907668846
-0.024944051487483458
0.015324506287773883
-0.02690935631499657
-0.012005515063220524
-0.014527266880358658
0.01769594802575418
0.04730878257747782
-0.028363729381857
-0.003952009863423821
-0.0019763452045276878
-0.0032039672866155215
-0.0037552784182663
0.0034746245074629414
-0.022461903488064795
-0.0024837844009608498
0.013457166149593651
-0.007041087932946304
0.005754014970929413
-0.0008027601017310315
0.04029242809598746
0.059557389282504564
0.013117944590113182
-0.03278041247730899
-0.0011622519943829165
0.009124165167383005
0.034352389366734154
0.07384910054866661
-0.07410403434725062
-0.048233412849348144
0.00987444018472389
0.0055718370125619416
-0.051917050263471
-0.06259825436583537
0.020745303283413258
0.00042232406037075057
-0.010536314188310917
-0.018625631873446253
0.07142587836099822
0.07395447446536127
-5.2493504192007196e-05
-0.004261257490609436
-0.0020039448335677297
-0.018905554585848753
0.004811106424476029
-0.027164089058938162
-0.003937447734839381
-0.022712797102726924
0.03510635736815821
-0.029423278085036902
-0.06029041535397128
-0.02987663976096556
-0.022700058761015766
-0.0012657012057264395
-0.004463413985479184
-0.008592211370939278
0.02846302316918126
0.004263571827622228
0.005494193422556505
0.03075336029396147
0.03901726513240703
-0.004401173498015127
-0.04029355405031127
-0.00801933863918847
-0.012596335672004789
-0.015725152003207513
-0.034980417592539746
0.02427293413871336
0.01869064549718577
0.051546190585279754
0.03474650861689133
0.004768476563566982
0.03315699356187596
0.0034601526185496006
-0.07816774923256439
-0.009612467788370686
-0.025913237979004047
-0.031670308539421745
-0.029335946823888983
0.023889293414907854
0.006409142195501279
-0.01221721197476785
-0.005875919182691303
-0.05608932573508473
0.025987026547395424
-0.03011727488476328
0.014789841798489536
0.0916241077398945
0.0010834325265685304
0.016893567720789423
0.046806352944511284
4.0959379432152376e-05
-0.01597621388993915
-0.00686575386633387
-0.013428148302330073
0.0008494274328731087
-0.06539741435243099
-0.007362453325101731
-0.013822975409528844
0.007747356580935053
-0.028599975572322824
-0.0022992553410465266
0.052749399937220255
0.09666752929692211
-0.01822245546608484
0.0023835226921785388
0.028970125687289915
0.00017509716281774803
-0.00784847973155186
-0.01941287112210464
-0.026554563099121988
0.028007997314564954
0.005710497761879933
-0.015517288288044957
-0.01604659309743897
0.04591661114286418
0.07531621923047112
0.0009096482562342642
-0.029367566636776574
-0.02937712065568035
-0.009140819455471995
0.09121260284129916
0.038513473968506906
-0.05736043102543592
0.012121182062454673
0.005970682939328197
0.025731958273029567
0.009505848035033194
-0.0005496591427569548
-0.0037470325335272987
-0.0071924695497306785
-0.050991771670750405
-0.040167936167724544
-0.029741633780537378
7.260016724952275e-05
0.0052629202599577705
-0.026998134782237306
-0.0009382020092874487
0.018200381657665195
0.028889690564233163
-0.012590877649244265
-0.02414824354384753
-0.022480227961264268
-0.03370399473724777
-0.01855017852408717
-0.012432948696721829
0.0701740706223645
0.011888258148554537
-0.009541520989751332
-0.01387078240072116
-0.014014605496148903
-0.00747915492010807
0.0027843490412783056
0.013905775692361129
0.035120135854680976
0.018321409556578055
0.004979088109035579
-0.005191983274969124
-0.008150832980009569
0.032639205851421486
0.005360340998841972
0.006317587712566838
-0.023266426103742372
-0.05585506643977368
-0.019537446121202288
-0.04041108331528725
-0.011017191889533642
0.014314596360983412
-0.012712970867113725
-0.028647149083291357
-0.0025737578741009035
0.04601699433597226
0.021609944828295004
-0.021455672102018937
0.011039113471054834
-0.008153764121430011
0.02891151168155781
0.0357082485707348
0.01362238455468696
0.02806601455150638
-0.03169171363347447
-0.030701182717093916
-0.014894792625121367
-0.025626318104841932
0.012384132983261456
0.048736232326204644
0.03911504165387799
-0.021789863800298563
0.053645903845339585
0.02777651590771821
-0.014375709783286514
0.015161374311473906
-0.029858812087879827
-0.08539841833062256
0.060197159839788045
0.034490835524486375
0.005497777415213816
0.036482464309040806
0.032300782711909656
-0.03934465128738184
-0.0044494663277721055
-0.09345656329165684
-0.09235129878536763
-0.0030334697630930003
-0.018616216122762635
-0.021722156884864837
-0.018102421391910033
0.03732563588299352
0.029923992020657368
0.016058687997768113
0.0003867423014002941
-0.0002972432582667157
-0.020316335185122297
0.019220816285441047
0.00845557255500752
0.0060443184390208465
0.02437162467914015
-0.005318175262073994
-0.019146379335013404
-0.012998280758577575
0.016489417803550684
0.0500432271182846
0.005745891056747635
-0.020957978157868016
-0.028651335172892117
-0.01172644163893362
-0.0013261161215795993
-0.011163751184049364
-0.032340507421135645
0.006406451973001822
-0.003370870008083332
-0.010012434783537152
-0.007110176250726127
0.03429695068331709
0.018368625763452127
0.01998254427731033
-0.034845416457031875
0.03847137956547641
0.05558242241435288
0.03539061275362072
0.03716110538155985
-0.01434319991502716
-0.01717614957103636
0.015117434377814662
-0.02722054714612156
-0.0180265277403745
-0.02725801523579527
-0.07680235163267689
0.11533537169905432
0.048770924761956234
-0.0020351465685259948
-0.04787927173416275
-0.07677126146535036
-0.0029662590906524722
-0.01924938767169225
0.047375169860007754
0.024755979774287087
0.02642337776539989
-0.010165593000325554
-0.00042681827098366913
0.04067191072885543
-0.04265723441229549
-0.1316982916837737
0.017595115154459526
0.02820177361553631
0.03719259285322539
0.0076971752937972995
-0.016148567374467345
-0.0030198577709407265
0.04392456464319412
0.020502026707306744
-0.02536817698851589
-0.016043153986176603
0.009762803454427755
-0.022113193501771777
-0.001588485198805163
0.02162813078718732
0.006099023373264912
0.012009194595657626
0.007520623536725252
0.006994938293437943
0.03129370861351335
0.0041545235794583565
-0.015690028099672244
0.03165540073163736
0.010966501393373483
-0.00860600039505518
-0.03755673552508727
-0.019550230758038585
-0.02991056774460933
-0.0038909822490662983
0.0271887454384916
0.03013767752986946
0.0036223093783630963
0.04742200252001628
0.00031172815087754195
-0.021862298210306358
0.03354551752369927
-0.11032757001070165
0.038704032095457544
0.004897644096231831
0.03699208569973283
-0.21129440516415998
-0.08867245195069405
0.03616486839327238
0.010163044439995186
-0.0072516305983935225
-0.0163440487988286
0.029624916308032864
0.094759156455514
0.044962627556949256
-0.05685124428956491
-0.04968659374303735
0.03383336828299504
0.006731835551189125
-0.07450300904759509
-0.003400011163103956
-0.002344862243738574
0.06849675605133938
0.0023166511719655844
-0.014342844423776634
-0.0014383368486553612
0.036504529337973025
-0.03691539462847543
0.03292058542992754
0.07447315566780939
0.0022308786907043205
-4.007096578837878e-05
-0.00015484394910313695
-0.02780088651600594
0.024873737937213966
0.06136251256504351
0.02332779566495817
-0.05159187706431339
0.01014556286022913
0.021349523664817165
0.01991076049840675
-0.00809515109626199
-0.0070425086052855945
-0.03650478458410361
0.05346463812425519
0.08381720793962207
-0.023451931576320903
-0.024192939410491554
-0.056832110706270075
0.0045304981952250765
-0.01224413155467235
-0.020364639871688343
-0.027033726005257854
-0.0051366060868514776
0.005318636372949055
-0.017467734527419846
-0.03301988863749912
-0.05867453033824096
0.05110701161267904
0.02399438309330682
0.0008125440974408319
-0.041738069196366176
-0.0344597210702767
0.05986607940123618
0.037195696770644264
0.008707544230155243
0.010563113236866177
0.05478848128294633
0.03693965234581067
0.05260186990442121
0.010166599458939985
0.0015737048614754099
-0.13010739916464156
-0.021521131076933795
-0.01628288687649055
-0.04013440909839804
-0.026779684485902223
0.01479818685501581
-0.016281611032925677
0.0007758508702863442
-0.015027668835829256
-0.020195345937374702
-0.050523041084035804
0.05300562733929086
-0.010555988632695152
-0.02649922912372957
-0.012411946080665278
-0.022633805147593604
0.06281685124086495
0.06465447736564921
0.005215743306500655
-0.011718085636660424
-0.0008308517567497089
-0.01623303592325021
-0.030120876141140267
0.10387686715180144
0.15016539474717933
-0.01115787357974642
-0.004075435327183066
-0.02723113618819773
0.011474741028791249
-0.11606811473329993
-0.05588888162093677
0.02649453533509519
0.02574387169370752
-0.029866158801234815
-0.02515060264410756
-0.011534664730166197
-0.0005580418845283092
-0.019999336309562896
0.040582995801146805
0.1497203944703232
0.04609925731653495
-0.05154489425069315
-0.1518620920758242
0.0025202122147110957
-0.049343402630819655
-0.03680361348323107
-0.048935128460140975
0.031013909125002515
0.08982226436776883
0.02168080635873338
0.014742697344008047
-0.03039840255149702
-0.005722200651907995
0.0005846712635371175
-0.006779102225046772
-0.006848007138643473
-0.013869088165982367
-0.019241943825563716
-0.0071286306392427945
0.16249282066567736
0.002374224837281091
0.0019599480887674946
0.019307887479147908
-0.031081573466922603
0.03926951351190274
0.026076277544308
0.018576972511113333
0.10183201640905061
-0.0639798730065919
-0.0023804656111977656
-0.02653591115638247
-0.06661841146068206
-0.004421276773059749
0.010027088197999467
0.008180661811680813
-0.0028349497397426324
-0.04198097474377377
-0.03451080622381109
0.032632991107324774
0.01683704793101814
0.0016576753809629747
0.0056435111967733445
-0.0021788368875567286
0.0067563269099340795
-0.02711683195515745
-0.005375053080450651
-0.14000460797843475
-0.04325796136408799
-0.06541322662596016
-0.030081762855913553
-0.007318139319498942
0.06776404434467762
0.09112921990726176
-0.01437983754167664
-0.01181274731038782
0.026123297080823914
-0.008635792837317142
0.10444216230325817
0.07860173266329615
0.004001314142235335
0.0449442387913096
-0.02511390463201121
-0.01673697252809219
0.025797232673290645
0.018542351690029574
-0.04279864016443839
-0.0399312661526364
-0.07370155807851293
-0.0005570825441846004
-0.01579138595745714
-0.00036901909484651123
-0.03767163533904939
