0
0.0034170716823585475
0.002236969562859654
-0.01614693882409435
-0.0034817152756069216
-0.04858761668425401
-0.04060406652209916
0.023498030887196472
0.03169420445697008
-0.014156512959849075
0.005157734734874487
0.006705794775682429
0.004846836626388517
-0.031240466779502
0.04252683026357036
0.04855233663309881
0.022936306510096673
-0.027878496829482066
-0.014956701948544211
0.11962052579555646
-0.013756851377276176
-0.022579185126832647
-0.012076132689283002
0.010144840562672144
-0.031243673531938618
-0.04089538103192352
0.017772627224928648
0.06445232157942958
0.016609533186955208
0.04074067538058118
-0.020973583531175077
-0.06678925457735355
0.048987767518750426
0.06467713308618078
-0.009151938393800109
0.019741061984426787
0.025509241606859634
0.038907109759997234
-0.11280871527226802
-0.04190521186642582
0.0001474460245527094
-0.017679508023009657
-0.028989856216022434
0.05401124547678281
-0.015955892967812812
-0.05833215792167214
-0.006225388754898642
-0.021534951908696785
-0.016840040536909934
-0.00643119646336901
-0.001892688660855352
0.034305429521384816
0.009059648635575911
0.001135862493720213
-0.021017652553603626
-0.04459893190443079
-0.024696409219852587
0.0003344412092164654
0.02656298297987464
0.0026802167357974594
-0.022061265909438726
-0.00523269999215022
0.010316377575631771
-0.008921550727857872
-0.002438529403631166
0.02820671167886104
-0.0037667229387046146
-0.0029895857514954166
0.019552978782121106
0.009591173683252237
0.05503434942500332
0.02639521895330178
-0.02342750591478402
0.010840413130116328
0.015920696645128105
-0.010992477400135656
-0.02894759519039366
-0.04941835895903299
0.03839272424677686
0.04668631096255523
0.005950655047123949
-0.016604338087616098
-0.015648146614370802
-0.016558595526844355
-0.020979166368404245
0.006524612335260353
0.00425802956433243
-0.0030953468465677934
-0.006544919543379169
0.05258457033819298
-0.0003802692478011755
-0.015240813840694355
-0.011132372556270193
-0.0023260688146142764
0.008137821928119036
-0.02583158116384426
-0.032323915049722284
-0.04951362452972477
0.012318060248989439
0.032632441421060046
-0.026745603540631376
0.03143067605177709
0.010639468772864561
-0.008857689699237647
-0.0016314007009971267
0.019207327202354463
0.01232327415341401
-0.011436288876350066
0.00443686747517167
-0.056815311044017734
0.029464223241054435
-0.014086401515888722
0.024002568047738915
0.010269112839834869
-0.014486891151523558
0.03456281836565346
0.008925668932523391
0.01950985838837751
-0.010090179115451955
-0.0252603173986346
0.046286008775012655
0.02248070003938629
0.040746896376260396
0.05222613264694288
-0.00603797850315613
0.009263574464641001
0.0009923693763695693
0.03303478740502096
-0.012413833184105971
-0.0024580027896847208
0.00011047118998005691
0.019471850820070285
-0.10806953597575536
-0.0489251813306973
-0.10551201911627939
0.046859897273845284
0.04176137754203362
-0.03705522178439394
-0.009165157640000579
0.08219186753584626
0.05948216641323253
-0.04163157250699992
0.06168244002382377
-0.005210235416781877
-0.00635254833930019
-0.14564414767721318
-0.041915596341830216
0.005055723398541615
0.04403683954101241
0.005799454194055915
-0.049746242438857564
-0.015669194926254338
0.0872672018394678
0.04522975636290055
-0.0005219279845275069
0.027204028288781032
-0.0011852849534205766
-0.016327975439349985
-0.041778267843424324
-0.10433537738070613
0.025353236549768204
0.012391870150259188
-0.039210312375079985
-0.026797075208672617
0.03939759530941078
-0.01310370315873852
-0.01910009508055479
0.03874251498266756
-0.033279240195543056
0.04362401173924409
0.06685956549477871
-0.040047323589396784
0.02883628466771102
-0.01056469891112751
-0.016331367558345116
-0.027730758534895393
0.02179176272745645
0.017381337970924355
-0.0062093316006315005
0.0018124323566774845
0.026392382309261102
0.016091553135170102
-0.013684317238783411
-0.0016762801059792883
0.01803979671831477
-0.023985519972422754
-0.004059407664868678
-0.004853263901872541
-0.027435056159990454
0.0003778953780925457
-0.010791831796052656
-0.028746294012640294
-0.03219437773017034
0.006143976012060528
-0.012397355558265983
-0.022658965218922154
0.011292737403431936
0.009082259037505699
0.020546504632625792
0.05358644862339163
-0.039852685950900295
0.062288565663781575
0.1375845289507133
-0.00571492761524843
-0.00019116866218777504
-0.02036676785784369
-0.029280855591058946
0.004702112854734767
-0.0035057967996787094
0.012017650605114335
-0.023048827138584208
-0.016405803346986794
-0.014504212897196344
-0.02156334341907136
-0.011429389730517889
-0.019389812027854777
0.006882257785704908
-0.028778801809695408
0.03765205894762316
-0.005397226055382726
0.14530602905256096
0.030500945867120738
-0.05986230367389243
0.0016273109496396626
-0.01789311936219017
-0.007761970779346861
0.022524223862233506
0.0047173534241955846
-0.012130874528937494
-0.07181141637444032
-0.030347307041995453
-0.04795954753086263
-0.0014138711775578269
0.034818508540447914
-0.0049012365745098
-0.04164174343044575
0.018742120712775805
0.017002368308164827
0.022643242337720346
0.007820393936888657
-0.011522740336344175
0.02454786815870163
0.003848003876877021
0.004621746234294589
0.02940107857681894
-0.03549337401796077
0.0008865838094981031
0.07584207007178115
-0.017198606727718526
0.009537099294964964
-0.038181609068747034
-0.044504892408577586
0.039394374392540205
0.047523263291452955
-0.0064649355504776155
-0.033008062387174075
-0.013701498254751454
-0.025619603279581425
-0.019456404507728998
0.05111785684254374
-0.0030735566857719035
-0.03108578679254237
-0.018585818357116198
-0.008514033606086095
0.002030272515001016
-0.015561080299603116
-0.025302426292849036
0.07999336666816165
-0.0025876608163139542
0.018150526762933817
0.016923764414573925
0.009710769483735584
-0.007206954110179207
0.057664317558758615
0.020771254561166963
-0.06530084089310824
0.008246958252195034
-0.004318580679459916
0.011836193093490422
-0.012659242184485869
-0.01034370698015882
-0.04829472382254119
0.0070476043701385134
0.04848504095978801
-0.0021332540556745555
-0.020167671326434843
-0.04353490852279579
-0.0498957181831677
0.007743180557570683
-0.04108844983854316
0.043158721560572086
0.01134324781513593
0.0018139414941770256
-0.012303299792600147
-0.017329373173269914
-0.03646038916693021
0.013128642554571567
0.011778573821655857
-0.019177810205603267
-0.020281702122001255
0.008941883747381139
0.038786105053809874
0.01138687689027847
0.0048665610991696
-0.026469078129894193
-0.004846918188133209
-0.003444083174139864
0.026330595952435035
-0.040139604007036776
-0.051383120647300405
0.029632031071304583
0.035411500078311765
-0.017897129368749563
-0.032696818855974745
-0.0023798975764659147
0.002704536848933421
-0.012235581072474907
-0.0005963118518362034
0.0015359956366205192
0.019340955919339597
0.045408134076201874
-0.046442409216030205
-0.008879008721846503
0.00796576821726073
0.2340376840730317
0.11120211337323788
-0.009901438182412473
-0.0021403781725074155
-0.0032415852805345218
0.04737178070677777
-0.03719907641714325
-0.002737550695273697
-0.05771787331838482
0.00011282058952685928
0.06810678868053605
-0.00568998320031507
-0.05872343512573389
-0.008526878456919972
-0.024495890998901898
0.017934292275834963
0.04563456138155196
-0.034687485304164045
0.0052108847381057925
-0.017624996419303495
-0.0840548450276898
0.024895068798933682
0.06384902485599508
-0.04402859954241271
-0.03480995588881043
-0.0034130936418176354
0.010566093841200323
-0.05191786319552996
-0.033976826000459044
-0.01340035014747163
0.031083462497275144
-0.020351748695025887
-0.03205852721840212
0.03988976079889409
-0.05015641770849666
-0.015283139207414797
-0.02551703499211807
-0.03726260001884158
0.023581130025634736
0.016834049217548334
0.018090138037169093
0.023400079799249355
0.005589965305497573
0.010083653903482722
0.03852364906559384
-0.018019364759572117
-0.014772972226538682
-0.11126207978771419
-0.05395676933437796
0.016360743710071162
-0.016923909473797745
0.041516209733200665
-0.0020271696238938854
0.016889964569496922
-0.01943339034134832
0.06119323782650097
0.1362068086342742
-0.03497193984023933
0.03701959365821805
-0.024143737109167302
-0.04296732667502155
0.08096012243086663
0.060463305091281505
0.00831813746800583
-0.026167399122905277
-0.032063889827475066
-0.022867941214564612
-0.024179347919255568
-0.031146632283998225
-0.015561025901606606
-0.031648732334233445
0.002555783968317256
-0.030741827496662842
-0.021768890132519904
0.007379794601348487
0.03981515973573381
-0.03653438317232588
0.1299479599408258
0.11557540705160986
-0.017666073585119464
-0.06709264774439823
0.04670264184509045
0.06528708018748543
-0.004140904944260403
0.03739382878364532
-0.03959126624076127
-0.002447102091104033
-0.01734127327862376
-0.010146271818106447
-0.022360332337782104
-0.004267151690047015
-0.0034812812324526697
0.03220526753663721
-0.01140696972011119
0.055895378798411194
0.006549363256675437
-0.07538201241430957
-0.03226591005691579
0.014397479714932096
-0.020284005574052976
-0.012479398710895716
-0.033438521761770736
-0.005175379180783636
-0.0023553817422974797
-0.026301231353458934
-0.013812898116299472
0.015396745671698348
-0.04829769280307574
-0.0056227895162911925
-0.006542973638841828
-0.01193964291695634
-0.04403831435285091
-0.022266311584187744
-0.03244826508033552
0.017442770448976838
0.04115561990496975
-0.029698978106044653
0.003088731955936958
0.008786850597439014
-0.020869029651316564
-0.04008172700826765
-0.005603352575029628
-0.025756061116508598
-0.017310550047588226
0.12208049571371582
0.006441494645513676
-0.01740296515899819
-0.007240149294047977
0.013873640116539151
0.02839920396548268
0.021449459294059704
-0.015612856201529988
-0.0313166804257541
0.004222033846099066
-0.021213772210654402
-0.028229877824230084
-0.02804612469690316
0.032838046528647996
0.2691486315545177
0.09668657475674271
0.0011632830308768104
-0.03938276239664461
-0.007737852807760639
0.037936436909786514
-0.034399118189779206
-0.02109858475333718
-0.028692122804355576
0.015012646562763694
0.017677877924078093
0.038427225400645575
-0.027355224653195887
-0.01998744330950787
0.029728115898395226
0.00848158047232666
-0.022368408917644286
0.009095990499968239
-0.03161338560019653
-0.01133775566519241
0.039883058737467045
0.012250417096436346
-0.06431673967369243
-0.02582674154208696
0.030601681948219342
-0.014016836682780979
-0.013075746467696889
-0.022098131170011335
-0.009789848871901995
-0.016280208924471188
-0.01977733507942468
-0.026311863877061224
-0.03982029783288906
-0.03617294317136953
-0.0009396059323677522
0.06560116334644639
0.0842395727427234
0.006660206360685381
0.002078234161469388
-0.009497914637842995
-0.06280977911434259
-0.005561308953420391
-0.05682212198330353
-0.04180889501998955
0.0984864437853312
0.006715075515449984
-0.02799534750493531
-0.01594062799056038
-0.01646236445281654
0.0044650635905276554
-0.0007501703401408806
0.02829110087900707
0.010133843082293656
0.04181882825602784
0.009838336868015395
-0.043077852328005546
-0.0252021727721114
-0.012587664168404965
0.0021203519154658107
0.002355212806241652
-0.023713388942110395
-0.04662398715652186
-0.024507961457794176
0.010393037260710952
0.00788253324116029
0.03404576465148698
0.026203292945442463
0.010748737764499392
0.1039859327012237
0.06264618227224275
-0.08259838621220461
0.007773695010106518
0.024104558809990042
-0.014844027386995778
-0.0380782966459002
-0.03356410748361017
-0.018626703169331415
-0.003659057339317363
0.00629809097627219
-0.031790378366947626
-0.006038757755394001
-0.038172458716943414
0.002403775024851746
0.05070520563961714
0.0595965407955583
0.0007471672870590769
0.01144612326786844
-0.00397117788648849
-0.03813187793296704
-0.06024083145386502
0.056053870198361624
0.02291474720445316
0.013953041760995351
-0.02008852495381573
-0.010476606044350233
0.023644992434488397
-0.016315213799696797
0.0009130238602308412
0.010679036974142648
0.028951376992648704
0.06141690598631523
-0.011589359489940543
-0.014177583967096685
0.003401644144370273
-0.006224499062172341
-0.0073693208836832615
-0.002965554740194748
0.008084418351945346
0.023987023660679715
-0.03612331904195372
-0.004231114154279637
-0.04386257376680616
-0.04297066762112178
0.007141205595943692
0.027746146305989497
0.015127603256966287
-0.001431333198918257
0.0035994760426203117
0.01785803219845022
0.04140153215159954
0.00562182263371751
0.009491226823600417
-0.00598576292207546
0.0700478514739503
0.08341860932522774
-0.012575158256962222
0.02402644124193346
0.02472893504363226
0.038666008292387595
0.013487406836845597
0.03909706029524752
-0.0213181761799729
0.011216070965779376
-0.015262091705602122
0.030569438239156112
-0.17720323572616611
-0.014390842984849238
-0.0645264105034631
-0.04230910308514517
-0.11130228818492463
-0.1611071931995871
0.006321165919066988
0.024701843306649242
-0.002664480340341512
-0.028546631118840732
0.018141348349616147
0.0442753596678547
0.0736776110083441
-0.0004288354800384933
0.054122606180968806
0.02366018649978839
0.011198018244462498
0.013060279641817725
0.0132373824811383
0.013134653453141212
0.003878687616185733
0.058101837076485655
-0.1400879827219112
-0.12230009391829975
-0.012291487830047944
-0.02058442128656007
0.01294538760267244
0.0004824808933081105
0.03812775116145081
0.015011032438727633
0.033299517320712804
0.03002156206297549
0.05592825347756111
0.03163215791483767
0.04666151236504583
-0.02031548347924865
-0.06412750476678525
0.0023575745437643333
-0.01263804244438207
-0.1626987649800941
0.012948903729854383
0.006752350106311239
0.018314547067707174
-0.0029594696401194676
0.0017328995441499206
-0.04363510528679357
0.06156139650301383
0.1673485472159232
-0.027239892271069068
-0.03305463638860746
-0.021800971498646286
0.004905295811841757
-0.02285906372505118
-0.0056097505063427535
-0.014645592090180588
0.011525891056185775
0.016047213044781104
-0.0017644350800527437
-0.002802480990226677
0.014236338878762276
-0.011658839413091478
-0.0018689170415421943
0.015331422435002785
0.04845751477987594
-0.005391737795320651
0.030163464604034577
-0.008554330036090034
-0.03508161640852689
-0.0028656299493566603
0.13224565348924788
0.036481952603000224
0.00039547296492207937
-0.0031526720079103746
-0.021585912137344038
-0.02710048479100176
0.0039333086634144865
-0.012274197473617772
-0.0010231210749257794
0.002429443931978818
-0.057853800202699715
0.004725882415482903
-0.00785272549143279
-0.004629450362380547
-0.002708794009527215
-0.020222254960539848
0.03754945580147165
0.01720442067214198
0.01354659488218543
0.006033313285415922
0.019954170697180355
-0.015323383959879913
-0.01955520855895809
0.013929129821461451
0.03138567241789506
0.03507571122044024
-0.02866856330295214
-0.08980965258317482
-0.00864805368443282
-0.02411328586784199
0.008823595772820067
-0.014463007626957916
0.0013313289612274931
-0.00758172105857528
-0.00028129457609145706
-0.01838028065300863
-0.028494378715950792
0.009426858631445273
0.03989654865921213
-0.011811343024488725
-0.012228973068923045
-0.03480201085802313
0.09963864917143664
0.041587896679012186
0.02132819113042336
0.0025115040775765657
-0.032065864972068446
-0.024816758272484543
-0.01886219592880887
0.0157475824046525
0.01882360939168577
-0.041568977189555836
-0.006739440794738528
-0.012041100869490914
0.0514054929865013
-0.06618913613844324
-0.10602173860529118
0.019281271611357037
0.0019365078104815955
0.06299339009340266
-0.0207028014981321
-0.017186056003880113
-0.01581637999739931
0.030112798300624796
0.03304279922986938
0.059464113141911266
0.002190996242957935
-0.0201299716926793
0.004010119089550721
-0.014689177269521887
0.011723782317100867
-0.017601373436224924
0.0018450402688091245
0.020609525298965575
0.00492971995213297
-0.013101217435348032
0.03349869965869676
0.01806807366251617
0.0028335780278358294
0.005466384821844374
-0.016514721583223205
-0.029589115434022643
-0.016212700120129746
0.0075523032382732724
-0.012332631571613652
-0.012225595979407271
0.0016096351961271997
0.007592984703747473
-0.014277963618695544
-0.005997747223093725
-0.03200120607208194
-0.00608157525265881
-0.03360996699717121
-0.011363548688733219
0.000984123807705262
0.024397522461313288
0.034028613334055914
0.0027890052828489554
-0.004450517343341806
-0.02528164004445083
0.030268652586797656
0.05733301245358115
0.01876083173938955
-0.006180823739125284
0.00389882059127605
-0.018174309587512972
-0.005139830608901204
0.01220572921939796
-0.010269749796776018
-0.026678308837216426
-0.017348795544246922
0.07226036259270402
0.06354482883554917
-0.02883638495558545
-0.01462548202371106
0.026570121612201385
0.0027425426355627384
-0.018624059179966276
0.01597767372699997
0.00449617548946177
-0.01004112459445301
-0.0007600164587468312
0.007736585625575272
-0.002766112777770367
-0.021806610076958142
-0.01709363799674048
-0.030124107699260893
0.005588909871489632
-0.0036254123426169064
-0.02058521829126128
-0.006875495492943891
-0.02339932925426054
-0.02921740613280604
0.007988998402458458
0.07650138166883189
-0.034774442210852345
0.012239992097243241
0.03588460997742748
0.017697883938967165
0.02306512123859178
0.003072276493531278
-0.0354793711602752
-0.11600771110050666
0.028518191139850137
0.03071848340622703
0.024455046901502128
-0.03162636121892577
-0.027130722753246284
-0.013182034738555401
-0.02368499986960363
-0.0010036945067364205
-0.0841022583855299
-0.12264044133094955
0.043153438959967455
0.023668252864784783
0.03156011097147269
0.1187836603834538
-0.0010972264616480776
-0.06516773394996705
0.12357145669608774
0.09729501208584122
0.025463406689419658
0.04119454155052137
-0.01810845044419313
0.020253451552921412
-0.016815703252625165
0.04292152734953693
0.013954529752052603
-0.03392118639650318
0.02776817065102257
0.005076682842496217
-0.03902875670117301
-0.009579719968864723
0.03295726323983346
-0.022170037244154037
0.013801188231826848
-0.020523155819584322
-0.03441645754517296
-0.005841914525512173
0.03898739667505526
-0.009050228864622931
0.014967628112504539
-0.020209419133742693
-0.06437005977534863
-0.04051782002134003
0.0077848291985494235
0.004022503464750701
-0.012851822658630042
-0.052620586593245096
0.0019703625110868267
-0.007834819609369669
-0.03634424681055516
0.004908373356243032
0.019330755657152424
-0.00019370136102843364
-0.03560705524674971
-0.0471790420728345
0.036625231420501954
0.006321412289704557
0.019192349060815225
0.07644326657511685
0.019134342327362285
0.03375995525814405
0.0791590040749164
0.03328925735517149
-0.053226453208864516
0.02011196723526836
-0.028859279609916164
-0.03347242826166474
0.0003691826023774975
-0.0339002043773641
-0.016085955110206617
-0.01752745273747862
-0.00663815077142987
-0.003603922146419927
0.04241553300984891
-0.04725051084380285
-0.09489435564506965
-0.0034445636033468385
0.07952409929472781
-0.06965580675429779
-0.11283172873197754
-0.016667475474919362
0.006069463618157119
0.06498816278291539
0.05602969909168062
0.03641260810041964
-0.013623160086571984
0.006324878873093002
-0.007988025508646537
0.03654274495060144
-0.06571000067366832
0.0058894905759398625
0.02629576256868126
0.004169432097540669
-0.02327695335367007
-0.019441935662682073
0.0021283654998674705
0.02101756478821503
0.13912783749914845
0.030978000748999993
-0.017766101945205757
-0.03429804458506098
-0.05072346983223736
0.04513958102554925
0.021615292198916936
-0.01954815937654748
-0.04855638145176971
-0.024308899507841476
-0.013944256428553773
0.06956115398613054
-0.005776780072122668
-0.17245873993756747
-0.07385466074794811
-0.0006845531895892164
0.011878214463640796
-0.018528654473039606
0.031097875236998952
0.2571248127979976
0.044500347900228894
-0.005010765461040951
-0.007157722966794886
-0.0066748535830843635
0.007865660561374867
0.01801916982904279
-0.00793719055895086
-0.0008538499276715303
-0.0025304384763696675
0.04487233709025799
0.04312690729973568
0.025768172814091883
0.016364764538042684
-0.000230357876437393
0.008128956538308097
-0.01250956748674346
0.09346577921743672
0.03280254211531947
-0.05422063909419363
0.01826065232817455
0.03126851787785624
-0.008731349615423167
-0.02864506921607513
-0.007353648348694348
-0.11312449940115893
-0.07926980824388852
0.01578225066146551
-0.05002048078120786
-0.1140782820064515
0.0003558407999952766
0.008449507493180658
-0.025032422928363926
-0.002603957068120474
-0.060214172874273525
-0.05173602223742237
0.059681508105703
-0.01312146307905741
-0.009827839364825583
0.0021745376552782963
0.008918424527413578
-0.018767981423154743
0.014339872330590904
0.05878848148891515
0.026715403230653297
-0.011293696077269204
0.029145939281634597
-0.011489572101295446
0.0015899362218078754
0.011560003757116497
0.06399687198644065
-0.07173429549945017
-0.018815686587943137
0.024887123555012138
0.0023054829890333845
0.06519018646614583
0.13508845275882284
0.025357170301543157
-0.01432657696846126
-0.014820578571633953
0.021878702049805427
0.0069757959343981
-0.06827634126159081
0.061652682727477356
-0.04954730924484123
-0.17478048491545062
-0.006395941599512708
0.005089288085406843
-0.009041147747584494
0.008053360955012343
-0.019436195084009837
-0.02277161480071051
0.02838956590762324
0.028493669055317025
-0.008296970612228546
0.011169785036860872
0.02048112739806461
-0.0302089089361187
0.051756655327189365
0.08597943545156181
-0.02323737489481123
0.02019951060689229
-0.012742352423170625
0.035990157754308645
0.007296517638652062
-0.019447965632538002
-0.003210538333947297
0.03927877019445973
-0.01859695517525345
-0.04612282923792741
-0.08288626696198831
-0.02400323200414564
-0.010260701133741426
-0.08355814548520842
0.016308879895517166
0.0002589678455581224
-0.05212953387669223
0.0355184521267033
0.04784292271284464
-0.01562884001293635
0.0034709376321108015
-0.00367271736925294
0.040149344229541854
0.003963351392074011
-0.04190656601847746
0.044274662437499224
-0.04140941277111633
0.022439792559195405
0.16696058485976709
0.024517311104377014
0.05892730260364267
-0.025378728873265387
-0.015148523901606354
-0.02336089549905948
0.038649755557064146
0.05425069331591284
0.03264261838722961
-0.012687610914201961
-0.015160113163053946
-0.16115182294917293
-0.11033239146039672
-0.09367451607813382
-0.002849940556073497
-0.02235901245858648
0.0038219147256550435
-0.015349193289336899
0.017234961730389395
0.048231088382703284
0.004075850494177226
0.01962297007304531
0.05318722230457056
0.004878548689719549
-0.027704490345912134
-0.04091826522080285
0.009720159365597496
-0.0019674946662560163
-0.0006816545567678436
0.017773587656589505
0.0213213591795496
-0.009981509283132234
0.001378896033435398
0.030196632655491825
-0.002587398972909696
0.0371163660487831
0.046343748412651396
0.05798331944225269
0.019914259119616175
0.016245615344728116
0.02936396478231541
-0.024091469398629762
0.01678867938083712
0.006866606422069118
-0.13206142913122496
-0.06996388912204704
0.010562469978292128
0.01626195428927397
0.02132817174705792
0.03609120602935287
-0.027899378666544572
-0.028280298086514513
-0.0012244385322055353
0.003967189624272555
-0.0009126172791143049
0.015495479250031292
0.07151615320273766
0.021574647885054612
-0.006596478292328414
0.010553214246165584
-0.01750577305329328
0.03512763165832395
-0.0011861918536838633
-0.01596708633842454
-0.004188547014477388
-0.006466291438063606
0.003443645537514
0.027916174609610937
0.060600376899473736
-0.00028308145799543636
-0.004122942389419438
0.0008975729976958393
-0.00431127416429974
-0.028399730044974123
-0.053190052682708586
0.01091221013320248
0.011340883256331155
0.011942664418768074
-0.030358253078313868
-0.007286081776695386
-0.11672149068253004
-0.07015031345651557
0.011288541061419948
0.04357927338522458
0.03149833522036187
-0.0045547380020293845
-0.08241189683576669
-0.10252337935724885
0.0860608352309847
-0.010609508850149055
-0.019997383020346125
0.012905994820881816
0.0029009568969624155
-0.014744350027357711
-0.00934551157186075
-0.011264061460394312
0.03792627844536871
0.007186635680447918
0.001696174957445938
-0.05332626404624192
0.008381826629774108
-0.02716372114907189
0.02428435077564516
0.03375200987443953
-0.025882181221227336
0.005550188306673142
-0.023923824676563257
-0.02734067814167001
-0.05973897835270499
0.09537309570664283
-0.0008298227896945308
0.08586420079237238
0.1989215191560136
-0.002307155139661744
-0.0012080272157716657
-0.02382211465351536
-0.023758533725157564
-0.01018318810752382
0.013345009945490115
-0.04100702573342152
-0.025894034291029076
-0.011518958600921276
-0.023261204720383535
-0.014898640809729097
0.07788519284600876
-0.026669173989337963
0.11765583623059808
0.11907478387616369
-0.04315513519718581
0.019821300565184517
0.006745815149059631
-0.024139312512987152
-0.04517335180464693
-0.004472082718856797
-0.01901895897303216
-0.02043932902460404
-0.048246496246958495
-0.01027910876197453
0.013686039121669654
-0.012275802114735319
-0.03154092351099255
0.025999659914314997
0.02493082029833855
-0.016806539459397224
-0.03540447914841601
-0.054440447227499834
-0.004783972927698243
0.013451083597723805
-0.030442615229783705
0.00871489327444436
-0.03663603815639263
0.00481697655753924
-0.01704421620773915
-0.02015485222453708
-0.01617939789513561
-0.008643875665446922
-0.03655824230442129
0.14992499617917307
0.0842835755870307
-0.03995151699128406
-0.020149779033590342
-0.030019895313274626
0.03868194113155318
-0.004613335700611132
-0.0404856283084453
0.004549685955809133
0.038996337207405585
-0.025428845966582868
0.02331432686120128
0.0028105230357187774
-0.013948387861261596
-0.01968250815212242
0.03341556811129723
-0.04223665075844976
-0.021631754846433125
0.08972495963745591
0.0031497795976787673
-0.028880938280422448
0.00838105930176573
0.007874454329718878
-0.011189151576181928
0.03544375471349144
-0.0051165767309843705
-0.019811215865883223
0.015364723121823673
-0.00599616784770474
0.02431581115826084
0.013385298180286788
-0.02712110310311115
0.025285762804069675
0.03143498294535506
-0.018413206632497996
-0.0024420028158498802
-0.0150313199164983
0.027301678053736376
-0.04330792345371716
-0.050748505728121195
-0.017076312453568596
0.025361556341244304
0.050594434184906195
-0.045518510433145996
0.007606159770658795
0.02570580090527701
0.012737040709222398
-0.01671234291675152
0.03105679746380927
2.5327350696585358e-05
-0.028902486423029176
0.013807681730596131
0.008481000380761538
-0.0060955219233950805
0.008221802592550283
-0.040286681851016116
0.12360160517253815
0.08960122582562677
-0.11416666973283716
-0.010353073932193809
-0.025379347079471454
0.04298004885966062
-0.06300327376532616
-0.0027309237371637616
-0.0635937972358
-0.020099275702933225
0.045067267170982875
0.061288754873409235
-0.08199418925785798
-0.09062576833193407
-0.05141581933468877
-0.017908545472317097
0.018979412412192725
-0.01837436232285361
-0.07192577830582098
0.00331676075676698
0.030876093280297882
0.012698577011060872
0.014921148672939092
0.06131725881606751
0.02210718992014086
-0.024878419052207248
-0.0007080007177562301
-0.010770833039704173
-0.018955346674160385
0.036994979577779044
0.03647231350113038
0.07736814630631167
0.018039430320216387
-0.025472943698874557
0.050108536589320185
0.04731123402345805
-0.02012192107117353
-0.01921705904675108
-0.007891824930119992
0.152253408045928
-0.0727890246626536
-0.03666698237642008
0.023188872555101266
-0.10252823944920413
-0.01444348743351102
0.0029188422435986907
0.030618973945612988
0.001167567358534607
-0.004256516639405623
-0.013233840675807282
-0.028509734340238995
-0.008261852132054395
-0.00721968956377114
0.032926620079640846
-0.007201639342450092
0.010452587694026419
-0.054555669830931026
-0.029596378725251726
0.08243893049818839
0.016324713684989584
0.01449941253519164
0.025465211097829663
-0.026183717645100333
-0.06662515766828783
0.05256337170490524
0.007851726760618327
-0.04875061145333253
-0.03557667892421677
0.012596650301529727
0.08021004441041894
0.013056673059676135
-0.012613562212722725
-0.00959513508428567
0.0014068015444108134
0.03339061875187931
-0.01901672211289698
-0.03150024326747476
-0.038580153648847954
0.02570704556586601
-0.022680115790351778
0.05037542868799673
-0.11320403133661615
0.007870750112190569
0.03641378383944562
-0.00438918945442416
0.0012097634046743478
-0.000715387567030473
-0.0433030031485973
-0.045231063941322494
0.025433411105379063
0.04633440510291978
0.0014196208137644839
-0.0010886963202921187
0.0015741618071855542
-0.030682750167063285
-0.014293344620073211
-0.00831094891036544
-0.011909863237182034
0.0014554642134105636
0.17113966824492075
0.02561486518789223
0.028412195123389546
-0.03663514894891594
0.01348911649576491
0.0625908935135962
-0.04622418439687352
0.01962235546436322
-0.009110740280837705
-0.06182487822158479
0.046698054985688894
-0.016267396469929963
-0.03046956510131543
-0.0037087171256328564
-0.025729495655081674
-0.025360101094966454
-0.040320648598987305
-0.04744539896121688
0.017635783894148566
-0.00934119076727571
0.011677133361635806
-0.02229928777925854
0.029733015070514672
-0.021914646734768294
0.006992146780209559
0.061725874900181395
0.013844740853230522
0.03023291484195132
0.015115764635834437
0.0024597823506657232
0.10557306177409481
0.0984981493290114
0.008677570091694233
0.013954712331008905
-0.030002031490542713
-0.08298807998196608
-0.045673553189446076
-0.05006799332837313
0.014301782251571409
-0.03905417077537805
0.043116896160007114
-0.061519120028237194
-0.131448351925361
0.04449806456392702
0.006076301300121045
0.013905293971599965
0.008593577213847074
0.023469963375490125
-0.007538301932966639
-0.06682968172951723
0.04103638276043209
0.01126489172322398
-0.034422147471967236
0.006807183038133351
0.003089099177922048
0.024994279981485262
-0.01682077688328202
0.01771845537530873
-0.015486715730152275
-0.001306275298620268
0.04285978342061139
-0.03796058450019456
-0.13832081901777235
0.04788489260609437
0.07068126344308397
-0.010349763558497834
-0.04698759819370099
0.02741323063793824
-0.01769129617097468
0.04907385453153332
0.021087223209448256
0.1440936946820095
0.04528023838405026
-0.06484700155386662
-0.0032144941952806537
0.0006878794652387123
-0.012324744320994643
-0.005720576078099033
0.008207824061245875
0.011975725957981407
0.02663129351710004
0.011650725355045057
-0.04562288755633228
0.013898613813108715
0.004189053839358657
-0.013761165713469572
-0.029059897115551653
0.048722411284933785
-0.08026223738065029
-0.16468597460868337
0.04980848423879984
0.07377651069263828
-0.008687276659612804
-0.017401103830661478
0.0067716280473353666
0.01771426973092429
0.015536439803397273
0.05559651601204753
0.03686111654657055
0.0011745970968788876
-0.020655408929123206
-0.05436888841431623
0.04651969775186631
0.01278445163947422
-0.026243681011703174
-0.004361575320542904
-0.016144388468395537
-0.0063766968933770835
-0.017808059583640342
0.0061693969038954365
-0.029410119244891706
0.008224530272594555
0.014392135938846997
0.014900021717995196
-0.05865892482949802
-0.06173613098064859
-0.005202165432056382
-0.027478293493164774
0.01742935467316001
0.0042163801720266365
0.0008618095315512126
0.029057054200877563
0.07364707713248404
-0.003945304962291034
0.028209007098679347
-0.014091906894930202
0.08012173895192877
0.018402214972372672
-0.039544295475622694
-0.003281007945420444
0.005232196566811474
-0.017026770481868344
-0.0014698078425879888
-0.0016256933359287576
0.010666252214340626
0.010145157713832295
-0.04991854408982296
0.042768067077621603
0.03533367595250244
-0.010009649899660824
-0.013952976933989749
-0.016979544623693523
-0.0071245220238084295
-0.0470080658844162
0.016272553765292744
0.0005241070035312142
0.004675879342321187
0.015715009507179727
-0.017309399109693924
-0.0091175551953022
-0.0007434225557668429
-0.0072875230404992825
0.02632770475915918
0.0060756697496598495
-0.0008013606953989696
0.009638405496813243
-0.0730486045163873
