0
-0.004362055599906965
0.0016717516882765004
-0.015848967001621427
0.032166612647006876
0.028191609720778808
0.05508238684251249
-0.0548468290802152
0.003931343032695214
0.0297392959225406
-0.010731704103966563
0.039547773071626914
-0.0015407408783771174
-0.033062877280886076
0.02362968941800517
0.027408097568107612
-0.03334359537834733
0.027946186734087053
-0.021152047799018567
-0.006709235538930683
-0.04220029342408065
0.03266085788888395
-0.01631031440783765
-0.06207133747667751
-0.020828535162181805
0.020138740305364573
0.019007487682578168
-0.0009043228677841997
0.02151201968721479
-0.025461054035634534
-0.02679140643462973
0.027152172968471593
0.0011710732729717885
0.06469372483716206
0.02678798937069525
0.027273125789613287
-0.03521167796128263
-0.07251896531457877
0.0632083183041575
0.012864887573314943
-0.030495335838590404
-0.0472211124612747
0.0015009988241952918
-0.020268292104014117
-0.09053876053051454
0.024257741735378105
0.025769385575845016
0.02682066640997733
0.00341606040733313
0.019582437364115492
0.024906527886884133
-0.019117736892606024
0.021124994880143202
-0.1044480528380311
-0.01922244653680525
0.010882357023871863
-0.013856086148923892
0.04161964938368109
0.10059102165118591
-0.03717938970526151
0.05021816696963484
-0.095436522276466
-0.08064110740779862
0.04490758133083733
0.06541673668556285
0.04627590088803965
0.013169511806615544
0.04753306594962736
0.023368575035322955
0.02150863508127163
-0.019084671294378085
0.00014140784503620217
-0.01824933343956411
-0.006966934697386491
-0.05280044133496093
0.006558284753337629
0.01740365689346741
-0.017982295343828603
0.04504295278679711
0.019797953918887033
0.006731140378135938
-0.1557328836735455
-0.04350342980421904
0.04151992443575336
-0.008291941331019157
-0.009680962077012965
0.0048913649658224945
0.036247094692582194
0.02121225154685906
0.011455999467004216
-0.001281055261842691
-0.0038938294035286733
-0.06882799298020793
0.0025062144191708227
0.004123805897123887
0.051186395969969156
-0.009622285431562507
0.06621484881454631
0.062293156157036254
0.02196160260946494
-0.002826478088984848
-0.03496328701926254
-0.03121111721419505
-0.00728689268177859
-0.011518671985345955
-0.020404774540863122
0.0059978039673044894
0.002325946532176121
-0.018756475452595598
0.03389131182893021
-0.009495904582527843
-0.011881378469635433
0.00287043306255023
-0.0066394079580710435
0.005263773613585761
-0.03137663275300899
-0.006498686185962208
0.02992237392578257
-0.03555109802834486
-0.009311334212931524
-0.006259360232862734
0.007543939773002536
0.014504426698359942
0.04401260584260943
0.05093020636281209
-0.018141178286473634
-0.031285243194976164
0.017293439239065407
-0.10344236899811331
-0.04700850125857997
-0.0565854152863315
-0.06941099121175259
-0.0019951286799654525
-0.057474977460432834
-0.013215637787419698
-0.012566947051073828
-0.013639176730711277
-0.00607392114767224
0.01393133507630875
-0.01730641957587658
0.11275646454622483
0.044298911339612286
0.14525784487406876
0.05820779830798586
-0.051101261894281755
-0.015135965499613433
-0.015655038058867244
-0.02504101945431866
-0.009127321975041697
0.18936282795789344
0.11906498628468928
-0.03793932965011566
-0.03531992203731712
-0.011726830028771321
0.03542391825599809
-0.03688512063298158
0.031677389686129966
-0.0040411182673079915
-0.03154315580790816
-0.01538617810857987
-0.02031118416902706
0.05848208170291313
0.006836421590307114
-0.011069815085238756
-0.0034588163214346605
0.009907049278655235
-0.009799801749335918
-0.06305061620856668
-0.025783582045708325
-0.08491924214618916
-0.03564149351462031
0.023937223522140106
0.0381981839004356
0.04278121581557445
-0.004248739000814073
-0.008979468225649443
-0.0029266081946886396
-0.01642861577664617
-0.0204362082760663
0.011750082413802649
-0.03444247424063369
-0.008617655419355344
0.018867720709755172
-0.01672208820801432
0.014304713848280042
0.0013753013080341255
0.0774700657545788
0.06343730488600265
-0.0067098636017912
-0.028543783427510048
-0.08202329505407004
-0.024009845851705045
-0.014509695266514652
0.0022571794415944977
-0.008389614349943016
0.00020724046279189603
0.019830587925274396
-0.005075410402913213
-0.018615786720086146
0.011679778635748157
0.02967533491503934
0.005342359595765678
-0.02364497787411476
-0.015314861480969829
-0.021107750572139213
-0.0020790059552478167
0.009493183442876951
-0.004600640673758096
0.012855970169997361
-0.018169347172673767
0.0031496606349138948
0.03160453737263967
-0.009315274251351783
0.05897056600974271
0.0012201812856263514
-0.011522137949129879
0.023784259956594715
0.014493171163893107
-0.03426974407753641
0.11705705686996976
0.088880913375909
-0.055295842066336365
-0.026656224098199403
-0.021449494896802836
-0.14823401510385628
-0.04878283291583898
-0.021231540288367858
-0.0008551187295732742
0.010344994639384453
0.05472397684851167
-0.011899353597329925
-0.04385159731092895
0.002879293685032425
-0.011640556517029901
-0.007990047546107718
0.023471818761268092
0.02022343282622956
0.001195858503365456
-0.014112679016251791
0.04198832233297382
0.06900271971274081
-0.009186740959150572
0.12820821865017662
-0.020252782004292334
-0.021166837102468833
-0.010343964459395191
0.023191597700796495
0.05688418308529595
-0.02287399819229435
0.0521892154377473
-0.058488190262084
-0.05120974484716899
-0.01293369338884585
0.004981068183663144
-0.007562500300665991
0.005487924528769888
-0.03401594707220942
-0.012303668897902147
-0.0350134151877278
-0.06638373603602005
0.015814728611449242
0.01634578869452215
-0.004877697516742815
-0.04520825237906243
-0.012448198859716365
-0.031603213666974654
-0.0020467886766086154
-0.016320222908003553
-0.01702235370992179
-0.008687843820322337
-0.009545885481864894
0.04735894149596198
0.08883417570185671
0.02102497129029925
-0.06056266256079644
-0.037271099734812366
-0.02742449928724051
-0.02448192504731727
-0.01754432767841773
-0.005312561423657817
0.005169134018471684
0.009134766722135746
0.01049589445508605
0.02710030206419645
0.15320345269204536
0.03219626293146905
0.078753686635026
-0.00828300180082616
-0.02147577156329997
-0.06609202392922532
-0.01237507722593487
-6.968499672599965e-05
-0.005700912262182334
-0.003019361395742972
-0.04164547484695814
-0.012148322788136013
0.01223420784885009
0.05097144987694675
0.02332030817465101
-0.021156271527024782
0.022729683560943275
0.016838304571930182
0.07096630906486891
-0.008308601435725134
0.02380607562105242
-0.021668453445277274
-0.0017514502559657372
0.007083343860816662
-0.025780838677194138
-0.14170755428323156
-0.015024634520480216
0.040947899742175047
0.005202723988375209
-0.050576346239333055
-0.025263307310571883
-0.017695458358490276
-0.0036446286984500474
0.05504365045234269
0.1418424208744368
0.0549697897334115
-0.015057297248463707
0.003106713861053102
-0.014160640027371075
-0.01400713461715654
-0.02511426171421936
-0.02682369703048339
-0.012574702151667602
-0.03515272865129694
-0.01298705999288969
-0.00010088871582106315
0.000978998917933511
-0.016356596112105402
0.0035082645350495464
0.012790913911668018
-0.0012362070033452286
0.0339759081101344
0.02687744093733426
-0.031180528591231504
-0.012133529005241749
0.02223161733294319
0.008678406624789916
-0.004997161385027766
0.05510932311303144
0.008756608966380364
-0.020169405859491132
0.05938734963385267
-0.0018332314890868093
0.010728798499970372
0.007398158902708803
-0.03863632393672433
-0.04868630488101942
-0.06888526073955967
-0.11623021646733192
0.04296388182929059
-0.0002937857894691001
0.0017798863323424138
-0.015765142618071448
-0.012082133161238543
-0.030126892481264916
0.04926889929772533
0.003754015720236399
-0.00027286223534712185
0.015580233254905039
0.005756318981858372
-0.019370699153950968
0.010031171587899065
0.018957077901084342
0.039698945923183175
0.05302607916396125
-0.02479088847280354
0.03839907428796494
0.10482347760770842
-0.04596074843955908
-0.04100476078312671
-0.03008881920627694
0.025039654940041567
-0.03840046732467553
-0.040708398507027024
0.0333178581929707
-0.009892835114588803
0.010986857868950215
-0.018336122409987717
-0.030409812900442527
-0.050354699263705296
-0.0052341831808035335
0.02668800671680454
-0.02870075135309843
-0.029829922111351773
0.01477686206937615
-0.0013129292424529633
-0.0020325677004647096
-0.011972489941392618
-0.027112122137306106
-0.008120115229710276
0.06467759118402894
0.02732295124035598
-0.0031878050294293107
-0.0002459792969891484
0.02342325610239739
-0.029509772739171106
0.046931894131852545
0.020377203503234874
0.008085190772193154
-0.024460267259257568
-0.04445370809499079
-0.016246557189782265
-0.020717454214831975
0.022598180034755905
0.05784382194039284
-0.015875858088905893
-0.01906658060826904
-0.0020646915012380593
-0.05987710560826339
-0.07683839347707436
0.06503905903709535
0.01872021012208119
-0.013338359365148869
-0.0007311642496376627
0.07363790435247333
-0.01632241371538147
0.01186184097348321
0.01769473955720638
0.014975656147683503
-0.008172756389239404
0.023474528672634
0.04318611701772489
0.02437487716920973
-0.0238332906061323
0.03898905907309772
-0.013067299383176884
-0.010573720872744809
-0.00875343205022131
0.05348561249315232
-0.04600830242181298
-0.046599414380173176
-0.02193600169148344
-0.014963614630419486
0.019713194951489574
0.006131928028376988
-0.001424455731112442
0.011036174890058247
0.031274067716335126
0.012425150470988824
0.0012763402098999346
-0.024153124879130055
0.0172901162552411
0.0036358538663034843
0.024613943679449104
0.0007699924137020683
0.015929524633115366
0.011421850788623521
0.01678980794794108
-0.01146103629150284
0.03410853285914741
0.017972172249535488
-0.005859205358370475
-0.012398012446703029
-0.0029313831852895546
0.004075018920128941
-0.020934632869553754
-0.005588589477851616
-0.01892733925374659
-0.021525129575614064
-0.07950464195266807
-0.009355589793363728
-0.018896610594792237
0.010144855045419796
0.016841891703906382
-0.0262638900317203
0.03540499461025346
0.052977656025290566
0.0002318342391534634
-0.006125038418590542
-0.03207071783582153
0.020963534586897696
0.010625662330528366
-0.053551742546611374
0.011479328807476834
-0.014531078248359829
0.011182849479589783
0.02458111916854156
-0.1003746843289754
-0.02050122641828842
0.01965851767776402
0.016571505739322947
-0.02664817313220035
-0.027760017863750364
-0.01451276739115857
0.0021786507192256533
0.06404514536408547
-0.035177896680256504
-0.03487513290293919
-0.015872118296709866
-0.04713058649369791
-0.00676393521924543
0.11316811956970928
0.013990825075255767
-0.013819750449796688
-0.007935656909261218
-0.019274354543673655
0.024360736295859182
-0.002375248197372409
-0.034298294953853156
-0.003689466146352606
-0.034287827411314434
0.00020238070119997783
0.016718050838378334
0.003068926370648196
0.03604727586838679
0.005178971838092808
-0.000269081552077138
-0.04209138135749716
0.10607286900553481
0.06293735599400728
0.01609548436882279
0.004092418076190103
9.85566809535876e-05
0.046802567741279257
0.033346759721039385
0.06714449039177636
-0.03770718212927974
-0.021150199808347415
0.003822282790914256
-0.007231193955535988
-0.030771064959482376
-0.0014404850481428268
-0.004216175663658839
0.029756330967858614
0.008557518890229402
0.02357811927033217
-0.0005426600614440764
-0.01837569464792743
-0.006422566370075149
-0.02787980346479182
-0.006618250447929582
-0.024877888898746092
-0.01504884837768162
0.03595518781867533
0.001809775905043708
-0.004605174350814027
-0.02452351260774242
-0.050061812504647286
-0.09369284282156018
-0.044834148433986906
-0.005964197250948341
0.029032018459973587
0.024906808915909934
-0.0070074227773038456
-0.054124890562735416
-0.042607235300148816
0.025470121007583144
0.1538325566473879
0.040531343295845595
-0.0038239137150215758
-0.007796755522213487
0.0012077169562855219
0.012473043221291518
0.012560793692061402
0.04945871833555003
-0.0018731594690454914
-0.022451132348771847
-0.001523937359698502
0.005042434932768464
-0.017705847568192407
0.0006893454263998984
0.02476128452857538
0.011695255269814554
0.003817667525923716
-0.011350853898459143
-0.11408409238947546
-0.017675636395582856
-0.03332638928970109
-0.020614871136638888
0.044737483182020234
-0.004985458780229324
0.024005863841585772
-0.06727718847178864
-0.08603538328909958
-0.0004180832160253595
0.003206039231159737
0.020608196097017493
0.012855205740687251
0.018186567419815197
-0.0037100789546216546
0.004454477446367449
-0.01537378909118304
0.03966188694255648
0.017077775731299302
-0.010690619375887141
-0.02658845990262603
-0.032952742937113075
0.005424532330891924
-0.01777630587456225
0.053264353686839995
0.041485028658141826
-0.013223245813703025
-0.011488951860116049
-0.14564646029904668
-0.0025143784455834177
0.09339722646179363
0.00030087603981677406
-0.04202109927073752
0.00784617895699576
0.07939516572324812
0.15343452119189882
0.01955500530339681
-0.01223611406518304
-0.0010505622454980935
-0.0004436333196453986
0.03162868618902501
1.8805534385298084e-05
0.0814750285890612
0.05684315226317593
-0.07554670191665985
-0.02299386094932537
0.00516832230853495
0.012196877034593757
-0.012356444980058333
-0.0062088290200748575
0.011876453760714186
-0.005038221536448997
-0.006856850773892733
0.0035525786449222677
-0.007236947493345298
0.08222464320795034
-0.10453403954298973
-0.044531211095479126
-0.02749162116913271
0.005838801639787119
-0.013539997191435395
0.03162430267272525
0.014675455250987018
0.006948725670654239
-0.008690085375532203
-0.1739458711984506
0.006582583467682383
-0.01703732203608322
0.050881325065893684
0.06407550776431488
-0.05224505417115022
-0.011733831341284086
0.06729834474291231
-0.02624416712683248
0.011191498849935916
-0.02498534678373266
-0.06214577714377857
0.018403379521687573
0.018793464751454086
0.0002772902541620368
-0.013282476484395596
0.01827546238033888
0.051339690107778765
-0.02033573201318026
-0.007564489979209558
0.08065362614946793
0.06704860987517516
-0.022277773069811893
0.040166279492922584
0.008120349527756665
0.003915008498339713
0.01418898686482453
-0.014429527834285057
-0.09166989428114519
-0.028050795139456377
0.07692615808466002
0.008594646031057813
-0.09984569467314623
0.01683679283811647
-0.010370011486181087
0.014609756977485159
-0.010580086223171239
0.02357899983746529
-0.009744956242396017
-0.09078937189006565
0.005055569510439308
-0.02750449831516971
0.022764826317165462
0.010152748100399152
-0.029731411686341396
-0.017117862002508567
0.027822311178224195
-0.08547220213503373
-0.06860411414367368
0.0017886020644433574
0.0227868000407489
0.00544763630162334
-0.018840355695434814
-0.04180812146429242
0.014096929549840303
0.044592256659370215
0.05831352508803635
-0.04309724602588368
0.04514626769051118
0.009648257881680845
0.08381873434712762
0.11001802799348645
-0.040649857671787436
0.0019900485482769827
-0.013634363002401229
0.038721658480174524
-0.012073886926224455
-0.00434777695731084
0.11535449136467647
0.0020027382077547973
-0.023578278453118388
0.028603023406808623
0.051882082886591144
-0.040520318457286
-0.004901808806368806
0.02707162935887298
-0.09163770855363956
0.02656157450790626
0.0009005775166314636
-0.06527778739214889
-0.003007860042398428
-0.02983718666661089
-0.03205521009812233
-0.007365055953757791
0.01882619252702465
-0.03748732642246917
0.011423463701424715
0.03013523210203399
0.03010869125840414
0.021238561406503022
0.012288727637914061
0.0021247032520213833
-0.0023057772386830496
-0.01427933955563308
0.005595648413541418
-0.05142690305944637
0.014966760787422031
-0.011650043769322552
-0.10428885299369858
0.029185827272262217
0.07387497931600023
0.0030312468536223924
-0.017527462817238156
-0.005363883303000729
0.01049756649710745
-0.024636595256041446
-0.015699218674452325
-0.025154365823493872
-0.1029863677395594
0.03184312829683112
-0.01896698316875954
-0.013318456584554552
-0.005836133607638933
0.033684867192463525
-0.001589201971768289
0.020788896432168996
-0.05328682751926356
-0.011738518636534252
-0.006153295596647531
0.03474807029907102
-0.03109690836012836
0.12603368746447247
0.07375575846633182
-0.06916185323942464
0.013594253633459875
0.006157574307071645
-0.020677809835925508
0.004220371792095739
0.049951300799283324
-0.07930032762688562
0.03947404911369121
0.21540152363946127
0.023865936431605256
0.06929715866518518
0.041077030645083557
-0.04876421648819359
0.0006213043350201066
-0.01006774535612818
0.004270385645295659
0.010871215336348172
0.027687335196663467
-0.18351262368697652
-0.05200850605306724
0.07416062691953076
-0.02021153639008211
-0.18317651262681586
-0.03424114333277569
-0.016207788411279775
0.14281691069066874
0.030331787795156558
-0.0619449898110122
-0.017985099235488782
-0.0220541634491432
-0.023805667420450538
-0.015190263178344366
0.011810535460641399
0.0073456864345016835
0.03660081661492489
-0.014795325588937746
-0.034333114425478234
-0.0013061977218731024
-0.012718263357611215
-0.02314012644674372
-0.024677239239865263
0.011520106016595387
0.026795969648321257
0.010359274691966878
-0.02975811418235483
-0.06022734693256987
0.011086255904179457
-0.014882384109830386
-0.029888938010831385
-0.012018014312909471
-0.021708267084060793
-0.031082551935772855
0.025612850877272726
0.003211018093536742
-0.034156794882018136
0.034815388709211345
0.17356390640960204
-0.024094740120867965
-0.043717753561068065
-0.013269510909349665
-0.035051567864271924
0.062036415536535036
-0.0037574426315430728
-0.04601474320252707
-0.006841864510939551
0.011435949540885884
-3.39089203717082e-05
0.05947824365835717
0.18554221141935853
-0.0018931905625230094
-0.016893566040859887
0.12504526748323988
0.03766993783302778
0.007483850352208066
-0.003366340137423583
-0.03530965297689849
0.004735471693215678
-0.013611470561177756
-0.0039685017623772275
-0.02116558848854795
-0.007003577601459462
-0.055170083643529946
0.045638605465179775
0.04189566220197471
-0.007391845479130988
0.013987084762793896
0.03545972295873117
0.00481835133082052
0.01344211792074235
-0.04137558836194221
0.002346272365763687
-0.0427610160575851
0.004760147825350664
-0.04488526798740985
-0.040547348303275894
0.0054704908208333645
-0.024833256307125375
-0.04541265432230413
0.00827392309096275
0.020605881951248167
0.012349142785349052
-0.017353410204779582
-0.04661356370079154
0.01027480420221074
0.026409972676470533
0.07591329742773655
-0.007293453878580308
-0.0376991939581087
0.0008028278877264661
0.011359568018717814
-0.003636626888477587
0.026523013938823163
0.060500898914414965
-0.07277014942201285
-0.06911690470141305
0.0019412459081496343
-0.003874007748499059
-0.057222556309540984
-0.04020351502312897
-0.008143393578523065
-0.021505274884205606
0.0010333177992821944
0.03077209224143719
-0.012463998482442418
-0.03498259824090106
-0.007136092236984666
-0.017439929454834448
0.005942361639938757
-0.016372853812522865
-0.03364572817934532
0.05642779017615955
0.0666029243973282
0.03249344544501497
0.012381815212351642
0.023531613217558957
-0.0013651874144638442
-0.03819408449579646
-0.0063371763862434365
-0.012947105222056238
0.022689170405080485
-0.036177103205512845
-0.015030235626663623
-0.0347631845199906
0.03395041381589431
0.186975090523681
-0.00908672283799565
0.01544101113889671
-0.0169233565920842
-0.000805989869133228
-0.0050316145388824745
-0.01266049421102556
-0.034021641277078775
0.0022820823036529716
0.0034612458819308356
-0.0006064603073135177
-0.019412644984492612
-0.0046813825158608675
-0.008283284219227046
-0.0429719559152446
-0.03291957727871863
0.007091021465831084
-0.0017486480823242433
0.0051922754344980275
0.07511804930477123
0.0035553866208227966
-0.015022304905160403
-0.006842409737087436
0.003118280533348367
-0.02811398047979414
0.08839315209162837
0.020335561901660283
-0.045684972757012075
-0.004107284563481443
-0.011571694844285775
-0.022987018662396354
-0.0011140776240665695
-0.013625095149650593
-0.007927283277879447
-0.031966780881772745
-0.013731755060330968
-0.013477971274451704
0.02315513030196577
0.047900489837042454
0.0027067294696571233
-0.0038040650445541626
0.03278833863870758
-0.009204817799331622
-0.018170205077875857
-0.002112697090621227
-0.011876071212333741
-0.015145984061398212
-0.007850424086073038
-0.023488708408990058
0.0043448700036057535
-0.003229328391981766
0.003815925086228292
-0.00831428043440542
-0.03554388428822581
-0.024151653166754685
0.019767512588665784
0.00812778890878094
-0.018179012087385746
0.04809822987881856
0.01682251661506551
0.02058511828972848
0.011517347253000281
-0.004646672203695616
0.03129725563003036
0.07365319089885444
-0.0276286504510713
0.020484670161895754
0.03659693568933208
-0.011563849599745088
0.10181028842980852
0.046168366093941794
-0.0197833151267891
0.025847386686131506
-0.013866061040649415
-0.003332174296200344
-0.019134561031722574
-0.05186115116186362
-0.019150477584149263
0.06898087694972879
0.08098093280208316
-0.14263998534555444
-0.08741410054414178
-0.03880173066523544
-0.00929951819397104
-0.018973201487713025
-0.0067075612036981485
0.019107331161363903
-0.016076803564399327
0.022821068388634153
-0.004509604136692335
2.599057115544418e-05
-0.02867587262676694
-0.021537769230058665
0.010513408450629251
0.021839976122612674
-0.02636969340499438
-0.0179725881773814
0.00915253123846128
0.047173349715486826
0.03355768046984308
0.023455912898467046
-0.002050686068435696
-0.01658910246286977
0.004113765593729165
0.017917015227603836
0.01982966003738021
-0.028424415067715484
-0.055848468381009535
-0.04926164339871171
0.007689313515317777
-0.026040082131197864
-0.054395722379303374
0.0010068281830990168
0.041123651616237246
0.010083835413853584
-0.014000538571763473
0.009786930937903364
0.029974257094351316
0.01650348924652292
-0.018022531459927674
-0.0400416781501441
0.0037708797543878994
-0.008537592601651624
0.06841732693975126
0.04279306496048811
-0.01223262797122268
-0.014223006445504538
0.010261990941584621
-0.0037636188870932043
0.02554275971876919
0.03454293355117859
0.026182570180991262
-0.015271074163544042
-0.025915942463923904
0.017953768875226723
0.01239628565077615
-0.001734212201595427
0.025591268008097606
0.01117202641625989
-0.017732190519154343
-0.014662950893858818
0.0011841220987759272
0.009037038983522892
0.020069983048870227
-0.024911169013306943
-0.018225371317005603
-0.0012324858143854913
0.026257509647524165
0.007688238112258761
-0.029837320338113045
-0.008241683650421416
-0.032821189427257785
-0.07707031370288372
-0.02162674038560741
0.03485619504565751
-0.006286628590429837
-0.015393417069144714
0.009914912017473526
0.0066228627049441866
-0.007671383848185221
-0.04288970244894628
0.008173736943468549
-0.010951770923032449
0.010356701984311958
0.024854492507973596
-0.004720486077118206
-0.0010105791393259945
-0.0070867275753498035
-0.030071045816057632
-0.051025335471140576
-0.02177002808283695
0.012758362256991401
0.014860812697022064
0.011635609447620694
0.012389688436329939
0.009970331840026521
0.02018058712576075
0.020358017300826745
0.053363366864916655
0.01978713211212407
0.03243420052520147
0.013896591414893867
-0.009216982201046643
0.026536147464706724
0.005379826258334616
0.02256538229017708
0.02570817923802121
0.04093162833585531
0.028281791002819336
-0.04450710256520537
-0.058901487861564926
0.020451736518505993
-0.01086514857976882
-0.01500786300175482
-0.01722622559523721
-0.02250816230738462
0.024209516341884264
0.02312537475982023
-0.04397021118203523
-0.02677328951776657
0.003771951381820909
-0.0058282057347461705
0.0038797659881218763
0.04688662262494774
-0.011027712426477088
0.009349640273208068
0.001744946568084553
0.01659937284455025
0.037846616144158796
0.04077407288511473
-0.0018509505010336814
-0.017010914767725975
0.011058290754039113
0.023948555887920983
-0.018050815510063416
-0.011285994220469574
-0.043684589384335476
-0.029211300122859038
-0.19670930555119268
-0.061559086164514935
0.022441850108650335
0.03369660533235094
0.020585966422405386
-0.007327913276886433
0.04166034216488736
0.01353940549808512
0.0484921809622489
0.04378960683697211
-0.0220601814152314
0.003117671457221601
-0.012580277516559555
0.030546782695474454
0.01372682067600117
0.02588555627059269
-0.045000667495950844
0.0014026386153397235
-0.018999751433791602
-0.02310302879285224
-0.006248928891308857
0.056789936801939
0.027287293904299622
0.00813961763932252
-0.11163609552959886
-0.056898296210790233
-0.003928607680038229
-0.02943973279342788
-0.003061630723272621
0.001298210269985635
-0.011579514743711857
0.027466395022519095
0.01165011743095889
-0.008043031471526105
0.033728332251530435
0.05790216144881086
0.015051327302149128
0.03860919546627715
0.05025365847057795
-0.002181556903251075
-0.004321688799612576
-0.018563230602153154
0.047340052197164466
-0.04390024801037947
-0.070305731892123
0.009300674819126904
-0.0023178036790216404
0.013880516254949038
0.0001257635595371919
-0.007702185226770541
-0.009278030436065472
-0.018129072684581395
0.01824872871320044
-0.018882091357729978
-0.062246595266587594
-0.027799484258470026
0.04835244115289244
-0.014035077364154793
0.06760446020083434
0.07792239655470051
-0.02183703174879818
0.010997753337696077
0.012512806670320484
0.03623617522357214
0.0036098399679815327
0.013372486492370474
0.055131089131267345
0.010481771177663862
-0.019567913760238743
-0.009045682283730016
0.04487935637880315
-0.02703024851869148
0.02605204230125719
0.0011271770837048558
0.04188282931182172
-0.14462726790511063
-0.0932312896613225
0.02695933316068937
-0.04819131222912804
-0.019200653709088425
-0.01263005221935641
0.02636656631998482
-0.013232777809465586
0.025549240826597517
-0.024977052608772445
-0.021981369126564933
-0.03476495100019403
-0.015169248888807406
0.06077933005213965
0.0014860626970589427
0.015976173417516778
-0.009652695114029303
-0.028885713910119445
5.911069987785158e-05
-0.0037745635537722237
0.01655704558914984
-0.006185381603582665
-0.010683024489332933
-0.02526662472823143
0.02856955777890624
0.00677345548634005
0.03302416899556216
0.026083485546774983
-0.015123841845427886
-0.02101813538604472
-0.0036200326458035214
0.02600654629360362
-0.026832776103106776
-0.01101267207560892
0.015166607301984164
0.008769822428944356
0.01833755012801466
-0.009106536901237968
-0.023108626185159107
0.023321265770244726
-0.0152329106104429
-0.010483268494463275
0.00922091130192683
-0.033884505139085995
-0.008768043262560794
0.006992385751294819
0.006884567056627257
0.04512748830732384
0.13767426252516507
0.007924515167336398
-0.029623871052355918
-0.05864506991587714
-0.021253102992797247
-0.009805003468117107
0.01850037276584809
0.012285412659498268
-0.007651441943163383
-0.0007369809362280817
0.0019570421151852845
-0.0997936884266765
0.06245393564921852
0.12988838252669466
0.01814364862844664
0.08198983403064448
0.050435443153958
-0.048116352243439214
-0.062111562584192405
0.02611437700632284
-0.05649871597792907
-0.05718114703675518
-0.022636355382668418
0.010935398993517753
0.00922183526840262
-0.003550181438632753
0.03482280201341533
0.0032488391378927097
-0.05234845792887917
-0.05450502158160683
-0.00508769626973261
-0.029980328636498303
0.012608048088326341
0.045968727228353
0.03253283316342544
0.009317614179638476
-0.02876806425795024
0.014505558440057348
0.014165034050871408
-0.009355042722096182
-0.004543879372024167
-0.016705698178644417
-0.022581311331859935
-0.012175483240002633
0.0013392054976848152
-0.03856499905423355
-0.016805048151546813
0.00799334088970487
-0.01083996628477551
-0.018120156331727526
-0.005917043686068765
0.0060072735538608596
0.0029572691019687475
0.008978141990682354
-0.033024567966857814
0.0005210900422786091
0.09742932925892323
-0.04189491480194213
-0.027585459971073846
0.0433572994821567
0.013729108386314182
-0.0072451782604899114
-0.04161337089718884
0.024014772368756536
0.005955043136615498
-0.0014278419661131218
0.017266389583420163
-0.005126944504549808
-0.030684709301011307
0.016042369066055655
0.01637076157962701
-0.019371920826150107
-0.03223397917988203
0.001701295263625811
0.018392874572106775
-0.026226350149899817
-0.03622079114965161
-0.025461071035492902
0.008075301838744848
0.00961108686360714
0.009264187197457271
0.037301212568408286
-0.02257978237337879
-0.00851380023059467
0.03913169858964589
0.007799371151950207
-0.003661258328683602
0.024417645322175933
0.031298388152460346
0.018948116521903542
-0.0043770508910197115
-0.01759711228658117
0.002258891425882843
0.008546878181554715
-0.008622994172607168
-0.014903479656430726
-0.03673506264662851
0.004461787799825511
0.09878091210711555
-0.01364661506691004
0.011136860645984157
0.00325943680047915
0.02811118372766542
0.09682913641267676
-0.018569767822140416
-0.010225960658694015
-0.013690974431110918
0.0028540302765776428
-0.0077095237089273285
-0.009491412949050374
-0.012322849133427093
-0.003094516253743346
0.007753314690460853
0.05014674288091104
0.01379289766354646
0.012403336693103248
0.030816666418068503
0.009137968685806883
-0.0013464759191561696
-0.0015750845517228784
0.01618679571036355
0.02916188220316466
-0.025519385781754743
-0.006047432158909868
-0.03781750696202677
-0.1814708402668159
-0.05556709529733981
0.007382217701889055
0.028163990501293798
-0.014738393768260845
-0.011684661026433956
-0.031161103106136193
-0.06138156510042838
0.022607970898367403
0.007042161376592158
0.025237017250905065
0.01658854260438025
0.021953678169044956
-0.003915203193371338
0.023579853964134524
-0.008469193348258486
0.005565103861774425
-0.010563467317414385
-0.021328001565805582
0.010347072070099203
0.03435706417764533
-0.02937345714965788
0.028450603384223835
0.03861731201907059
0.008472892882906369
0.0326639221221137
0.019621008800253067
0.007085872533895752
-0.041907816023335334
0.0034883049372173053
-0.10292111067206462
-0.11449836665135632
0.007964903278962304
-0.006132740501842769
0.0023282654848619786
0.020215077777408056
0.025532052512382435
-0.03367491784301741
-0.0009171611122001191
0.0392161909637143
0.01395510761714919
0.03653003617645353
0.04739134504257715
0.00277060839651742
0.012641302734190361
-0.0016862547454165057
-0.017456636861482033
0.051307796328841256
-0.023738006213607107
-0.023244351766823025
-0.022139130541760917
0.008144423175977727
-0.016120764436515046
-0.018473426325000746
0.01228542843487027
0.03351988045466783
0.04080161530175658
-0.006177670953190932
-0.006702057295469511
-0.0033668906840841205
0.011784363345031081
-0.018471606393186766
0.08209606441128389
-0.0638534364772979
-0.042561745309502755
-0.05406882656539997
0.13830461758487483
0.07625136967115101
-0.013143201036806905
0.00218843655215717
-0.001968918356344552
0.05101347117646749
-0.025311649587525093
-0.008179629513185942
-0.02414447753287391
-0.023843732603391926
-0.02677561117794031
-0.007286343526223168
0.009926130594639995
-0.009260090057087748
-0.008421097667511635
-0.0013835190591222765
-0.005256339499533227
0.0010203547224236845
-0.04873100755380155
-0.11061807845217478
0.0007454782141297703
0.016581201377617826
0.00290785314884623
-0.04018578875188081
-0.03762676815497155
-0.002685480895272303
-0.011271627255746632
-0.02274857385896069
0.008341286235618346
-0.0517134032129439
0.006538836089711026
-0.02823099645615242
0.001980042566735503
0.09790744961454358
0.012385060406803662
-0.019597660609529215
-0.01646168824509668
-0.048080218982234316
0.04317108914560536
0.011280419662136644
0.10070969900470415
0.06815450883541625
-0.040105929060427745
-0.002335976924517825
-0.005467016752486494
-0.018154029222097776
0.001764542736464676
0.11887284579428528
0.03130841209706334
0.009652868019439716
0.016639025991403163
0.02329788963841772
-0.13157152737010433
-0.02923172120184875
0.027325349151281736
-0.015189028498256594
0.09932942441810637
0.03684867364191958
-0.03804313741216133
0.07374932693365227
0.11327660019702644
-0.06884111161087508
0.03572541497254303
0.028195612606515617
-0.035058616954055107
-0.03900363948232646
0.005723309563111037
0.018025002757698815
