0
-0.03652333446051154
0.015500090454787214
0.033881510543598586
-0.012620416583823499
0.06536626837809238
-0.06264580132682902
-0.07170154079026161
0.015467176864734073
-0.016635341914636725
-0.013437012290004071
0.029851764524591432
0.013217613961493234
0.005661883085400239
-0.01025860041669675
-0.008830872085232687
-0.004702340992373644
-0.03058417209037055
0.04468018689251893
0.015401139367864468
0.0030042655387490813
0.01430476053091151
0.04800128421842634
0.04755390102453072
0.01780037898642072
-0.029120113449567858
-0.03040759295224313
-0.016294905653563892
0.004000854183302087
-0.059439177212374114
0.012030021280190092
-0.10571697783087942
-0.09909798885823058
0.014699825503361323
0.055293528704887795
0.06770063459325597
0.02688675660726947
-0.07876937021419922
-0.16185690639749345
0.06193064563700007
-0.0025100691984379464
0.01991474153303072
0.038337141756524404
-0.019860889759349815
0.022919613700373757
-0.0008994567420324202
-0.009621318582764063
0.014453083539067406
0.009453639800585986
-0.01800167852665338
0.05934077978078141
0.07784069342624797
0.002856995874366147
0.007348524207339413
-0.013803859386630177
0.0036056175102961584
-0.02794347290255531
-0.03910139744674525
0.06912604640534913
0.02104671673725004
-0.004034720257206751
0.03137832302390283
0.07100267102273258
0.012738337257706737
-0.02146943568580869
0.011498810769181522
-0.015285390413006023
-0.006689852695224382
-0.01618295431156749
-0.01778617100022513
0.004493608008586773
0.023886001508989726
-0.0068227217880769
0.029434003709053486
-0.016560313898250006
-0.0004440358700213513
-0.023647714909265285
-0.0448075669372538
-0.028518249293386755
0.042885145842783745
-0.006376223706175651
0.032422015232419214
-0.026780996848698488
0.08036372967484992
0.05337398095925676
-0.03106480940721109
-0.026386441902849323
-0.018752071719875897
-0.02609157740010886
-0.04111697958460814
-0.002629812287963024
0.01089293379506063
0.008334388978161453
0.012257681382333543
-0.012108091532137107
0.04244081093314799
0.035889966432467786
-0.012657597401787618
0.026151765098399306
0.013500589285768338
-0.018472232696411784
-0.03132988752015367
0.041631607886408
-0.009057818101974617
0.0032631810773439077
-0.02469746046221183
-0.016088015170207498
-0.0022941957134763034
0.08833528348450947
-0.08326813621293701
-0.22196138528917528
-0.13654382983415425
-0.03622459434594576
0.01939550621103001
0.041950555441417084
0.028411999088308756
0.07991835535316662
0.1520691535253354
-0.002949788080269205
0.0038950461843354884
0.031244053000695438
-0.0753350784493114
-0.03496295687364821
-0.01115448627227487
-0.012436228236218889
0.022475253348963383
-0.019072244608620656
0.007054753724479261
0.016201742663408417
-0.02040468193262606
-0.015478895365412509
0.060605236096940844
0.10412666303050758
-0.046854504538492533
-0.08692195138317253
0.04255192034377519
-0.011956563793704755
0.07811125826325908
0.11833354218085115
-0.08698814213783768
-0.005024851042926242
0.009578428478927908
0.00809864869017394
0.0005200882359182182
0.006618038690826766
-0.15062857340567676
-0.041361548262221444
0.029097484452743894
-0.011542146122809464
0.020536744449618324
0.009278409202544715
-0.005301746954017669
-0.012854583784515228
0.005333819508738804
-0.002036994203449851
0.0023209841615177474
0.032080498746826905
0.021250440509061663
-0.04240745632244074
0.10433679285720503
0.09450120607451024
-0.025039638394315018
-0.07538191427090682
-0.07080731493193852
0.007888559391083603
-0.010930813264465475
0.015497780864771079
-0.030762048876756255
-0.014097641314924286
0.03977902064299333
-0.0028845832651802623
-0.05205894755933892
-0.011826463444183663
-0.14128374588180795
-0.056859994178262825
-0.010908331719467168
0.08835192749353564
0.043676375747854684
-0.012611049037145454
0.02184786726460614
-0.0020909825226159014
-0.0035619360327698445
0.014208092019548476
-0.051501979293775174
0.12254482315806063
0.07793099294367842
-0.010291419669855983
-0.019645877684779267
0.013645371186270275
0.02588589637806196
-0.028468444546079708
0.01633109765106429
-0.029355993396701384
0.03236003027351372
-0.0271343041075327
0.005092636772818404
-0.03702489575562174
-0.01856247786412493
0.003893295506747313
0.05016450577954862
-0.04391867777534978
0.16511506004728538
0.14578503321631778
-0.020337613162619502
0.025679993289747394
-0.023429832094009707
-0.030203820724536312
-0.023079095202285384
0.0032927513418329647
-0.019965649531494382
-0.003517937348782096
0.004578288357214304
-0.015284501145451851
0.00025692833261056096
0.017256711794023667
-0.010241702012417631
0.021880632853686043
-0.10977695693841297
-0.05057245321101425
0.02083636022452962
0.04983913749297247
0.012636808502876377
0.011892606685810532
-0.02587070411400338
-0.01635522340095244
-0.0305117628287031
-0.01857087879534907
-0.003707080495879089
0.0091321348145688
-0.006052779790193753
0.0032034599509980412
-0.1417683304115977
-0.10394335673233908
0.010175427143695666
0.0220412460898393
0.010395361457486596
0.0067772911860740515
0.14088593380501743
0.003988232793308315
-0.06461633058244974
0.00523242395253041
0.0029236437145957563
-0.021720226264558377
0.0005663911447629981
0.005723197016175613
-0.004524539479454237
0.010057775791963671
-0.01177706554309175
-0.0011216398617438482
-0.058766126373161524
-0.018204718762666588
-0.01217483701214569
0.03939568602542684
0.13390423652884967
-0.03961349971625383
-0.0003728544356534521
0.02650972591013951
0.00976016149649763
-0.00799282080134616
-0.01358488229831992
-0.0017251944261094552
0.13956751178728655
0.048465554890151655
-0.044775536135138405
0.0034501498573624566
-0.009741676568774341
-0.004852458686918268
-0.007060486684553449
-0.010673175789315382
-0.023249480683896595
0.04463242923484839
0.013933740427944655
-0.011519018037889402
-0.173909272868557
-0.04587366722704402
0.05255119714810421
0.010694213619634062
0.012467606438202888
0.01720263777669996
0.08021924600019975
0.006540946865293012
-0.04454461694067012
-0.005127343856543746
0.2075221784184984
0.058880443332640524
-0.033236172959052054
0.0012781990932255064
-0.00438946149577412
-0.004824214266846272
-0.025389413058777916
-0.019394665699270335
-0.025359543203462037
0.013186432817020338
-0.03240438148923554
-0.06613128189642367
-0.07467724261901892
-0.013759299144571448
-0.045583358662287396
-0.1494797834980009
0.012286200156829519
0.004356170177066089
-0.004716403080617545
-0.005321390133192181
0.01990784874824218
-0.014091516433751285
0.006744350310020002
-0.008117372576609844
0.03135409275414702
-0.000971813792024627
-0.033487596504938905
-0.027048075298602713
0.0009775353908289765
-0.021112462398206484
0.04669131259902941
0.16911675935427695
0.05421556630033359
0.022668776538624077
-0.010334702533885845
0.058617097899478846
0.02956079457582422
-0.0022473888281859715
-0.051157758915694206
0.019880813310182457
0.014526911069775158
0.02364827437201563
-0.001137788125986634
-0.01710396328863713
0.03788423315267196
-0.0002360882212099842
0.015298157968071439
4.6786305133156015e-05
-0.02392059179870319
-0.004425343367717501
-0.025285114764495267
0.008294819675419679
0.004860719129454678
-0.004370199321220304
-0.06032556527455268
-0.07960701945484161
-0.012631279890355809
-0.01422470211024405
0.002747884455452433
-0.03831860242380036
0.033817957692339196
0.035850433745240315
-0.016962682027474217
-0.019642945049130552
0.03980385197123444
0.03786188961325208
-0.01545976041007249
0.02183726459040123
-0.007845937590570519
-0.025739449001973395
0.0725082372881877
0.012427686407563681
-0.018426792953396706
-0.0050559968376587446
-0.016416880739721633
-0.0028815688428644984
-0.0034699762963871015
-0.02480322571050854
-0.0023976352439248694
-0.01214570107038369
-0.016674162010861526
0.023351308747428957
-0.018179154434969317
-0.10852755165749191
-0.016693352399560407
0.00552566639151694
0.023719742602808583
0.004121247123409862
-0.04489832695211171
-0.007409559583113647
0.0056574271089241185
0.04171723968434246
0.027671906077348013
0.046881174964772024
-0.012201289253619045
0.00965300500051268
0.004996156607192238
0.022272141285503
-0.004889737454819802
0.005384620305502474
0.016778936025301908
0.014492867416073477
-0.018776216475028588
-0.006155842664593131
-0.030380540604997536
-0.049345189603785394
-0.034865444854865896
0.009452993349331407
-0.016124407373826526
-0.041881734536666826
-0.044336849074414875
0.0657976374452316
0.17337899310437505
0.016789822955598256
-0.017521396855519126
-0.013454016305714755
-0.01023612512055933
0.08378220581179932
0.0139611812123509
-0.04023314664981732
-0.0277536585753096
-0.00725457091214962
0.014926382278995603
0.0010142044762046143
-0.03569476223611299
-0.025611019662494065
-0.01492612774109218
0.009761808403739993
-0.20394734177370863
-0.0386843959792463
0.0190616971399794
0.0003230516822611044
0.00446848795867239
0.08097914020718694
0.15965519480661608
-0.023471218184924304
0.002805305105371983
0.08209777869228681
0.12824858669645656
0.03461290220920439
0.006340252672528606
-0.03119337101508479
-0.04459269601268482
0.002192935200977641
0.017390061946670768
0.06062705530567389
0.060672768219476605
-0.03814948330781054
0.016830946799690768
0.017326602053733927
0.008331181963022929
-0.01238384270205789
0.002114943266173631
-0.03898360821238747
-0.024074093874928416
0.011580439870276992
-0.0006457126587013685
0.002717208274926797
-0.021302984943677085
-0.06866531824297901
0.0018852479010120944
-0.03146497401046588
-0.10172714442482934
-0.0036250078233581637
-0.03723570267441259
-0.0050185877773877
-0.05699570363017304
-0.010680989692408122
0.0008600336782864875
-0.02186439369589145
-0.003053621383646644
0.0045067406057435425
-0.022387060377400313
-0.0018853250098842288
-0.0037697254465031056
-0.04858546716463616
0.06098744743668391
0.0058119992623041645
-0.015506395537862417
-0.029169158851987037
-0.06292689662322935
-0.009026452632948117
0.006977011872640838
0.038892182828594524
0.019988165931687084
0.0006065069069778161
0.05635105641234077
0.018957235607244455
-0.00912603903293062
0.026223761622118934
0.026313708811096022
0.010116263726207848
-0.009506271607714285
-0.009589498280671405
0.02309605900058412
0.005424899323783197
-0.014000397564593366
-0.01031853808348332
0.014092312095488706
0.0007262997667864656
-0.020456513779863687
-0.009226652196706656
0.03185981984196972
0.07059173175653874
0.042904224565488376
0.06403933196876141
0.009074853356261172
-0.014527038240099798
0.009081389642425783
-0.026091042887374554
0.0037815265449744886
-0.003288679771552787
0.0066443664656769975
-0.10237248761846661
0.004179785321873613
0.010716777381194791
-0.00950991516233981
0.00766305304587139
0.02777775398326449
0.020786503988562133
0.021302255628977952
-0.025239337628525756
-0.025036117657635828
-0.0040398440266332285
-0.009399392293430144
-0.001893692820015855
0.0015964029247757963
-0.018302248741154256
-0.04082206163121219
0.024756429879801433
0.020068701413675182
-0.015457329326915788
-0.008233989450601362
-0.0039749038206613905
-0.005269671889983112
0.0354497748160401
0.009383782600000841
-0.026091981146667765
-0.015797883501114926
-0.002981995783685414
-0.09785577910052928
-0.08922648052923408
0.01754469315573076
0.004320095622759061
0.01593108625036987
-0.022192281760526164
0.15515657405102223
0.04193677305635276
-0.0008132868249005868
-0.014831024146613508
0.02306307465217026
0.043789538165256665
0.0025515796555314906
-0.005639378887005988
0.019489924857880078
-0.007358826736095643
0.03220718837833966
0.03001624276602273
-0.11474304088593097
-0.02501006819819671
0.004450439176280884
0.02447895731401046
-0.0003595376321521481
-0.015191242368310967
0.0210025268964855
0.011714927382718657
0.011362345069457528
0.033309942204976156
-0.007948207023252489
-0.036497368429723086
-0.017792270225577805
0.00870484208434847
0.0034286671336690062
0.0331972087454998
0.032063669887735895
0.0050249343986406275
-0.03648674991010278
-0.00016070868443024956
-0.044328678852167396
-0.005942993612556392
0.008564704431988873
0.00791471278874438
-0.038580246741067734
-0.023918222073446325
-0.014403403790129254
0.01548633531833628
-0.05818697258400753
-0.041257072665313296
0.03805125916017387
-0.005047224218483004
-0.00045740531333184883
0.006235453282270957
-0.0025345151160204313
-0.031046490403668307
-0.020174042815057462
0.04020170614733577
0.015150004114084428
0.004763429461074605
-0.021674783316885937
-0.012703854412294087
0.023653381453336984
0.008386213748615642
0.04665926326224032
0.01619168149326469
0.06561870938906621
0.0626374115661646
0.017458737140620077
-0.017109468876244576
-0.026663053126560442
-0.012403577600763062
-0.035197586819061565
-0.016499344973836642
-0.01245499625217176
0.024047330920951838
0.05803098464733387
0.030172092297857625
-0.009326509664303604
0.02034817602873429
-0.03181629534990428
-0.028976642393168706
-0.028726124846645874
-0.009405966744543663
-0.013184578984497208
-0.05586184344829326
0.024840599532668317
0.009911570312434344
-0.014298128209111305
0.008240497346699013
0.03296109692594365
0.0026718667773535675
0.019821238166370526
-0.003613319299636127
-0.0032764166264207598
0.007852799856556824
0.0062395566009742056
0.031064215031952863
-0.057648974183236563
-0.011345160285464066
0.03577739601429141
-0.04142054804816354
0.00612691911801047
-0.026437545668316107
-0.043235642166661745
-0.039645000244290275
0.05366215170967
-0.07401630396045021
0.021550614295513207
0.02155254687125616
-0.004767264064910759
0.044028535540011425
0.01567721844244631
-0.020000484014399224
-0.009448577315546368
-0.0012063083798317998
-0.011276578200928514
-0.0702963792083185
0.03008904128130904
0.0369944711391142
0.04833925173138032
0.0039728856975620635
0.10873670382063444
0.10183228021131438
-0.017086597190197856
-0.14382794674671695
-0.05441074082858409
0.039030583554240696
0.01995949583077777
-0.0207222095798036
-0.020231445201811048
0.03355810233706265
-0.014126275585410793
0.0118147243381227
0.005909324891695145
-0.010250784096879002
0.02290179702925274
0.020711940810618314
-0.0607726572533816
-0.06105980983500146
0.004910116349268653
-0.0066240980293986625
0.012430883762017429
0.005903452481441159
0.017885984870019325
0.038205632713127644
0.004864569993975336
0.03803752510506444
-0.09059707960731116
-0.09235401013588651
0.0558904942147428
0.054310043958086626
0.026326661608923125
-0.0017278954580304524
-0.003982870843484161
-0.028454092598041842
-0.026974493458424263
-0.034257565972285464
-0.012845870426909977
0.025364394454393657
-0.005003348084148108
0.04814564678354518
0.018564680636424503
0.015616414478185845
-0.015802027992186284
-0.02276376950563605
-0.02712494346845673
-0.05644139228092792
0.05395950585304426
0.003666187525420597
-0.016518818192330566
0.02537025806715896
-0.001375538944293616
0.0038023640313843755
0.014998873155784827
0.01240315961389616
-0.0034891992399276044
0.022426365990376243
0.013546065297640814
0.07356626231400763
0.12096312046640403
-0.0530593909684577
0.04920998144086291
-0.021093075252300544
-0.11885476802663006
0.0022682567654849542
0.010700504726687914
-0.01891194416244605
-0.01895941653534755
0.025799427990743404
0.06985512372601922
8.456668132608995e-05
-0.10436825536706357
0.01278047430173521
0.046249633987879464
-0.03394849333846663
-0.0242916405778871
-0.1241794445043841
-0.021380090487896835
0.008154115069181025
0.06618843950178424
0.045290024479472016
-0.008568301529104507
-0.07774171416777595
0.013090788398020976
0.01724453985320287
0.016294678134454222
-0.02093189639557179
-0.014987411448562747
-0.011259711491460671
-0.01271263541803313
-0.004622441157881016
0.024762635160989713
-0.002508916645485004
0.0038876073143627224
0.04311418182553244
0.022918723106944372
0.011535436783235056
0.014103349076443804
-0.061564850636923706
0.0070315256647683405
-0.04090805974029845
-0.08920014752926748
0.03878192037372974
1.0583093282407511e-05
-0.01754979652909747
0.037379132402451415
0.11213939357296389
0.029292701434737774
-0.017703710397046026
-0.0439593965870756
-0.01410464715062633
0.037407825957828336
0.05459817537879915
0.02692384164418481
-0.003859565799907826
-0.006115819583755016
0.018945395102858482
-0.03150588904515339
-0.009744079990225276
0.0764090017815792
0.02652684049243987
0.0020356852946504227
-0.018816861362288603
-0.029628531064975407
-0.01565447257326349
-0.022277676267978427
0.0024664005536096465
0.020751465008660038
0.008576291863529697
-0.03277211384562882
0.014387509196752059
-0.023664300339129436
-0.09528986492741312
0.0031760825759312235
-0.03770741388607812
0.0019018585388454396
0.027818500317610257
0.0059332122665239585
0.019945406859619513
-0.0014158089377420589
0.00975544944470137
0.003962753669623388
-0.005030637881940624
0.0002673656430682589
-0.01596406060320028
-0.023160519647665422
0.09168990904126866
0.046814769822178644
0.0039769962718900044
-0.0030964847605439686
0.011787321133014766
0.06503605546541907
-0.0653449358438642
-0.18484702198351663
-0.11595256272330036
0.02397847501967884
-0.033128847252675044
0.035910409231448025
-0.010354943004589647
0.024730983704424864
-0.01725813935026306
-0.026914862011356813
0.01576746987308985
0.0019707425007663448
0.04607894487076034
0.028289734641158686
-0.0018509266569848744
0.010918712071977995
-0.021599337135409596
0.02720259918577446
0.005881687225887253
0.013462451355026482
0.03375051171692642
-0.028794566113960245
0.01649372227875552
0.033767635610272635
0.0010303439055463768
-0.08990570884473245
-0.022998211465624453
-0.04042113941689351
0.07064106614116243
0.13232089808565164
-0.003951540896808876
0.011929372028398659
0.0076357778668953765
-0.013584096127522169
0.12396836222751877
0.04809603627644176
-0.05557520148886686
0.010279720554665106
-0.014503922438354435
-0.013971670218990808
0.04532607220355013
0.04157941777589568
-0.06362927682692174
-0.034907179909953304
0.01230690382218061
0.011127135816100628
-0.03085985168678437
-0.02651782260536132
-0.061968416785949075
-0.010828315041926205
-0.020687401185452797
0.007509476897735416
0.001162906887552977
-0.03158184622290128
-0.051418011037002526
0.012769199344821496
0.02573409496984443
0.05050933926856935
-0.011073205434224168
-0.011763662520853976
0.025947241128135717
-0.011606277722433608
-0.01644835566314588
0.009862996739650168
0.00811538029195147
0.029113929815805815
-0.014833556872646175
0.021725307444022565
0.062191639903267155
0.010471069195569145
-0.0058762851010622195
0.000501673110359073
-0.004448225449600286
-0.03765716664382553
0.011548417139701669
-0.022843170093297803
-0.02240100489100842
0.004165930244300946
-0.007335430467788547
-0.015452715728621431
0.031712839313019804
-0.024788072888465316
-0.05131611413680523
0.014483570761517416
-0.009902991610361645
-0.04405930317626762
0.009944377293462866
0.02489171432134476
0.018528578025495915
0.00847391899321375
0.012734262894883969
0.0035506797838469736
0.016445513996310224
-0.0334046794011534
-0.035007776059799565
-0.009558634181478492
-0.05567447948359693
0.01817690901619062
-0.03503076191682233
0.063342216608403
0.04622413662021326
-0.020589905459931196
-9.384339616540218e-05
-0.05558093347661002
0.0116165526553259
0.03419101112180319
-0.029212025843058462
-0.011105613525352238
-0.015292534961195594
-0.006495990539853736
-0.04158618761460881
0.0005611463929479334
-0.01238200426154251
0.030594328143541932
-0.02854540824489988
0.06411955540914836
0.10846431551202552
0.03837480825795896
0.10540460724678986
-0.10355721816369616
-0.05760458725092805
0.03489865013532764
-0.011027418842121047
0.013803586110144005
0.03832356302779912
0.027264748435537042
0.012714888732297742
0.03343919950942558
0.051798961978518264
-0.026486363956943686
-0.039886402329029624
0.01475705987537986
-0.010540105302231581
-0.02616036333301037
-0.013630486440840008
-0.04279914464425734
-0.03390123957100835
0.018219288943005563
0.04590778875210413
-0.006876972414524828
-0.002622418414870158
-0.00012985689561582995
-0.08776724379094032
-0.031352333292700485
0.021808086751039946
-0.04064778418675734
-0.009447931709606311
0.004484945496828572
-0.05524901827738515
-0.03287646669377938
0.011868633710197652
0.01722070058196117
-0.012676517277905943
-0.016464186675114525
-0.04467680362514618
-0.012603104451359565
0.0903266555545089
0.08084251565143354
0.0027271823211410936
0.004634374710826344
-0.022119141738243527
0.009837815965551158
0.013490947917110049
-0.021814343109369635
0.05315343703211214
-0.025326436513611744
-0.008444266942538334
0.035492548835962354
-0.09184276437860778
-0.014238291239425308
0.15737169491329225
0.03966304171529503
-0.0442990042291104
0.02509662719173483
0.0708115991062205
-0.01588767555692551
-0.04457997617154028
-0.012177449827993472
-0.014231131337458557
0.07527737126930664
-0.002692568833479903
0.028934097199703232
-0.013420018988602202
-0.15310236262115223
-0.019106833623142118
0.025106587232745836
0.009541683008394631
-0.0017768208599540781
0.03480395625035477
0.0625833960247318
-0.017009376044571246
-0.023739732653563418
-0.006077501711652933
-0.030404525527959823
0.01113618970635507
0.01782541611064181
-0.04290312660185634
0.014082524492605228
0.010086429651702051
-0.015640664666141096
-0.02727711389172469
-0.02257455626024253
-0.025111523418557824
-0.02887621891204348
-0.026893754265412184
0.03599315396698676
0.10161266347239051
-0.058389553121348026
0.01307360568367776
0.035871282158434215
0.0077948171257822526
-0.012351522556744618
0.08311301726320591
0.03261758231639068
-0.028033451808320425
-0.022366904233400948
-0.018721953505907395
-0.018948384949991893
-0.04729618348707722
0.0023641241214490106
-0.005855197065916849
-0.0113277754700718
-0.013064430628203429
-0.018313296191156254
-0.015553157358291655
-0.0028649294896763047
0.0202731941175797
0.018662167282399212
0.0028817761014877257
-0.04464410749647039
0.011978257410185992
-0.0181920417225677
0.049424379807152016
0.08116362062943765
-0.03400683291746583
0.011785278491795129
0.015914301736007348
0.027198223068452362
-0.008147091097162126
0.032665542819707995
-0.021818787646704092
0.00050037227255618
0.004519025510468201
-0.004723628281376172
0.031498337615645015
-0.010119048961935278
-0.027292071995557776
0.03052300378201373
-0.006944803254420857
0.013340030724977199
-0.015059658901932685
-0.01624063206759707
-0.0028775235818857803
0.004724641807938805
-0.041069875231987664
0.01614616133752697
0.016855375062345974
-0.05683261164055247
-0.03031252701187126
0.04670839178648934
-0.0051794391770205285
0.01705342885467175
0.01622652820961443
-0.011468339623227757
0.016868662030965525
-0.0027802422995590677
0.0037575774164359645
-0.05569869826797761
-0.05203903916190907
0.0327863483701819
0.005252569981138038
0.01611234650912389
-0.022739452064457828
-0.029180698810781162
-0.030286518545340133
-0.11895126281821054
0.006405028976897632
-0.03615684885976549
0.01928496539671351
0.007152558071389431
-0.036399480132619316
0.04221765488459024
0.10379739765314074
-0.020789962420089892
0.03609890916734608
-0.011507743124842658
-0.027435167057546533
-0.00867624901173889
0.021036028411761377
0.0441162837118093
0.039621032115224636
0.04222143962372148
0.026636867653946364
-0.006075996152048468
-0.061685039197631616
0.027613208719255055
0.028480632324259708
0.04550232836565477
-0.00962500525686163
-0.012739941050965367
-0.029543652506891317
0.014199977546610629
0.009250860743100274
-0.02256047390614753
-0.02028290085541561
0.030525909178642015
0.0218575655788913
-0.04053175095345429
-0.017037098035258696
0.010493377875892445
0.05627173332401086
-0.006085762033763462
0.007927500547162434
0.003378595133504923
0.009230382605552877
0.008616638072832267
-0.026842785847229596
0.05366569104861565
0.019600601010329854
-0.0031298795862116
-0.010318762524074545
-0.016956823399222956
-0.008866689925350047
0.02148703021213776
-0.12091350847282731
-0.06042778526686099
-0.018144609764643892
-0.03294461670569338
-0.04030473725467131
0.012369795125870012
-0.016653364439169243
-0.008745796270774661
0.046618476253868266
0.021531273645731007
0.030715424316651974
0.03243820170698975
-0.009068085463224435
-0.010325177553938268
0.005347773843399802
0.006827398890477
-0.03402889110252774
-0.019297802581950796
0.0018688326410085858
-0.008432253140511114
-0.0008442906946836143
0.007440936954752741
-0.01942390192353455
-0.018154716853868606
0.014867333934650855
-0.041731625199271254
-0.0020974147923613195
0.09117148679599572
-0.012702462371235897
-0.018198675072240995
-0.010058082197208128
-0.03106012774431177
0.015499467581530806
0.15780630314501073
0.021390034372727084
-0.01634793747345343
-2.483718233846317e-05
0.022683814424386436
-0.00021863726191592652
0.024967747141467676
-0.0002292854019086901
-0.025260651567504625
0.028002178581604795
-0.012145166294884022
0.11630724440192579
0.05877557668784811
0.04065294698608577
-0.02601132966028286
-0.15928976351471533
0.028079881058401392
0.016400698394289488
0.03808098963252199
-0.06883249659841068
0.011996438515616234
0.08142307382905409
0.038491815307414814
-0.009500177254446282
0.03886468308126073
0.00304582280036318
-0.019904818461300985
-0.14833458206105318
-0.1313078945271738
0.0499326231231156
-0.005327707379208844
0.0010172348211213375
0.04010635970839796
0.054156019521530596
0.003139709503193768
-0.103941188343393
-0.09888578100128718
-0.013049437519047843
0.03183156002818825
0.017284517853529472
0.008694592042154503
0.015106577292983063
0.04545583796713325
0.01335180305666549
-0.04180879649813621
-0.031608779642256585
0.03653519753383091
-0.11754684620009899
0.005645739982892867
0.019376946659355958
0.012548321480897571
-0.03518195554473613
0.06506482573022879
0.014185156668451717
-0.08566271656456356
-0.07286575948657247
-0.015039358978956828
0.02567585587694907
-0.01104387576808881
0.05400515301156759
0.0462108102050747
-0.15335645587919947
0.006588314233132045
0.048298238905197084
0.054045083008686504
0.038324163937724094
0.020202153892960092
0.014286022301170261
-0.00031753342353194714
0.03807514693052695
0.029926596993517438
-0.04059298593571668
0.004033328947503495
0.008657003765406582
0.007023626308543863
0.025390249512850523
0.040188167560521376
0.005840426781229532
0.00181855720432894
0.0006912182480348708
0.023193415865817257
-0.04370904399020808
0.08257473825429426
0.12049345998957743
-0.03481573456273662
-0.15875193034746948
-0.0682529165174211
0.01673001094029748
0.0006948663537651701
-0.012592423750509936
-0.014533749896519186
-0.006946676910189631
0.004041651725302493
0.013951431841582346
0.015947286262092325
-0.005191418034627726
-0.0160249657729811
0.020140127023140223
-0.006851878602010865
-0.061374931442305346
0.001213401661653815
-0.03272687171156494
-0.031244437819018225
-0.01725219766227741
0.046296141025251016
0.01649344999404634
0.015141554115471684
0.026869548320396973
-0.01860461592497823
0.013470580312750134
-0.006306432021777124
-0.019373989601607116
0.05297073201927203
0.008773974903349992
0.09501349730474073
-0.00712711470925882
0.02934537396580515
-0.017411624300324512
-0.07323916711847386
0.0052968980944606775
0.010368730116067664
-0.0693095571624101
0.06818043767077739
-0.0012973082232394391
-0.014224849866017637
0.039712636741696956
0.01227518151226636
0.007071837706853737
0.015280943770677282
-0.04525731325139641
-0.046413400441265205
-0.031570334745708986
-0.06446360413010216
-0.023577582096848307
0.02284596177377318
0.06327585805255427
0.008443662869564167
-0.01830424269043399
-0.021287293856693524
-0.02272011466457358
-0.00520963725699853
0.06076242856107472
-0.11565289381416395
-0.06582545379664265
0.019258850163577916
0.03169347317626461
0.051266170096676396
-0.042376700833679795
0.06373624446225218
0.19764343234309026
-0.007970890872139
-0.009929104294665253
0.0018804818886550348
-0.004648259970341156
0.03244959250151319
-0.03438610442198787
-0.015142052305479103
0.007864604345581965
-0.026630089721397313
-0.02016120712973981
-0.03428440239409771
-0.03955755310379221
-0.014217176601292144
-0.02670057553161633
0.05967715144425976
0.11004031049326775
0.0012261699750578526
0.019182354459769787
-0.003016858270363416
-0.0037841495261317667
-0.032845815106262014
-0.023542077838792363
0.0027725355254837264
-0.023950220024827447
-0.011993834929032696
0.024053322230264285
-0.00861444186191071
0.03605629476934241
0.035348854192396896
0.02647166614315586
0.04500163760540713
-0.014433848543375002
-0.020659876499796684
-0.03321005967787388
0.01032651873620071
0.047682729689574044
-0.011478928994887082
0.01570214751811461
0.00014913040154104434
0.05933564240677172
-0.0133165438950199
-0.017816202735437547
0.02014865104767073
0.03171685649676016
-0.11467071649274839
-0.0812262436763722
-0.012822538321059191
-0.04384141299637088
0.03333914655677507
0.006106439492612938
-0.006055432961438537
-0.028825242343775585
-0.16592265086898852
0.031541089537494765
0.0017118554274413078
-0.07825159438342008
0.017141532084291495
-0.01988337505428056
0.0029261156763604355
0.026407301526135667
0.03585161397638128
-0.04565583453565796
0.04303585975717901
0.03790137741312149
-0.0015474886761355617
-0.013897230308058735
0.008607208720918256
0.04591886438209355
0.034858502519535706
0.02944624825538164
0.01121351113953398
-0.009406976244998467
0.018424444716567363
0.01771115496589002
-0.005118443403286155
0.002166165980397607
0.012216585626565548
0.012658163167015415
0.003870222979332264
0.026787384915318384
0.00977182360023575
0.028289526185142824
0.04419407934335015
0.016885834261994276
0.005753347256914319
-0.0616307276868364
-0.008829098132377599
-0.006085438086408371
0.012974013701879773
-0.01050912996185089
-0.039340053284101
-0.13430925077356115
-0.0107999607370794
0.028265690673249768
0.023882364399394847
0.021172522557849478
0.0406723899500915
0.020969151870692086
0.03231219198364075
0.0324464496866352
0.003696653211722467
-0.015920636019044858
-0.04670495193468684
0.017421266930248272
-0.04091501279689606
-0.03451422110314944
-0.023150279282639057
-0.010188298694217918
-0.024639050029820534
-0.05050364701099936
0.018040013765833987
-0.048557681366422044
-0.03622462642684407
-0.00044439273534877644
0.009670158130784486
0.013249577708488247
0.02489645895778376
0.015736391683957334
0.03896511386577159
0.01949686664824491
-0.02957110314873542
0.047737349149272953
0.04361174745720599
-0.037675779169872754
0.03688210130838827
-0.026465653291621025
-0.02104446360038719
-0.013040055904754126
0.03396518425267064
2.730655476531707e-05
-0.02062380631289497
-0.01651247955015301
-0.003964695136314202
0.03763633343445499
0.03749075575658075
-0.01839324114411441
-0.05419583896703825
0.018148920657707106
0.00463349969345368
-0.028379567202246752
-0.02480496773480189
-0.023674012359745557
0.033595008473790926
0.02019199720343043
0.001553982946024606
-0.03472042973405382
0.06027791567206205
0.11343661027565793
0.04587974420075778
-0.1047490782443207
-0.13012395129748835
0.033459245892897865
-0.014005741937718459
0.010168701235509286
0.1352394787997585
6.775029264375765e-05
0.0020297585426376627
-0.041502542817337784
-0.016511964380796707
0.06742140753537096
-0.018316625695799726
-0.00897967306647916
-0.046208757390196545
0.0028874360193571857
-0.006793515504055034
0.053697269333385735
0.02243914521448314
-0.04539696650285634
-0.027632145447658393
-0.008652534180951634
-0.015847954053109778
0.15614560094530058
0.03184757382095068
-0.054675156847172064
-0.0041993309700116815
-0.1053697082865489
0.010599136158783688
0.006374882701352576
0.0052434810995300105
0.03358616710457839
-0.015464018293046455
-0.02768220393223229
-0.011663194047867448
-0.01420806360539636
0.03727621872129211
0.028627015573720632
0.04556187052519205
-0.022554274361109312
-0.0192146924127824
-0.0833319048164902
0.03659171977378485
0.02723678015656117
-0.024454532369297996
0.021163670551283757
-0.0171157682764426
0.023390666903309147
-0.05032850176250944
-0.023785279131613504
-0.03186744164833687
0.006912951599023548
