0
0.04246768925531069
0.049726379172478956
-0.011205769007942354
-0.00950215169502114
0.016794797669566663
0.05084798692064756
-0.011469196110498079
0.05283925769514022
0.031919990193174534
0.013344558612420605
-0.035795548148901485
-0.02042479182064514
-0.07703093949510331
-0.08971080891355694
0.054467064983851975
-0.0036382332561873745
-0.04407922177907336
0.1238998991302516
0.13372220584308256
0.022999887400501982
0.03167448570978304
-0.03527984422992799
-0.022444521745653243
-0.023680914759104672
-0.002676628406430871
0.05008405469808116
0.023929278812470315
0.033040525896357205
0.0336201451370286
0.015140513255118901
0.010330242032222136
0.007757276997309359
-0.005315148409408392
0.012881462136007393
0.0006554607667288126
-0.024436236880980983
0.012642091394286195
-0.015236482225787749
-0.0176589526392762
-0.006416982331795189
-0.023278900491845587
-0.03810315350566654
0.005727790951265541
-0.005606107792989575
0.008768768755328735
0.03404674848684095
-0.00864266710718782
0.03330548389583425
-0.03009572093425837
-0.002992190668875137
-0.007340206491832656
0.00042812719006531845
-0.027080491930922015
0.0015622166036672043
-0.0145731846093191
-0.007349703138074746
0.010760085729081296
-0.005011005174278485
0.000284235838887882
-0.0015581147731632485
0.03162993998950286
-0.017303253634088203
-0.19104307714128693
-0.023265878431715094
0.04356542035696794
-0.002872096694914607
-0.01651271289728916
0.0474971063123896
0.08423938772602423
0.03714331790260936
-0.010001236130907469
0.019465424192147664
-0.015019303314489236
0.032545060009346725
-0.0002955939847265539
0.015393600373857527
-0.012296986447626817
-0.025663502146928988
0.0034330063630585105
-0.021114873581328953
-0.021756505337290368
-0.020812311332817694
-0.02351894352496925
0.008628721524141193
-0.01227253721897863
-0.01174385231943576
-0.04033452890168748
-0.0036435046154816167
-0.03256747371913631
0.04565706620175786
0.031136357082695968
-0.00867433811698446
-0.008173913146843587
0.0022205277758066406
0.017217724686551836
-0.007697195698805331
-0.026326075734729892
-0.00939581971166947
0.006146079094134884
-0.006656269831689995
0.0004839663647468282
0.0548843928659482
-0.0003903588929630795
-0.005793164157845283
0.023464833576968408
-0.028481653956301107
-0.026535450684055887
0.036740558431852616
-0.00906841685213725
0.006836340241438872
0.024119990814098255
-0.005422881378811657
-0.022337645366785498
0.011127228796882641
-0.040143026633311166
0.12527624198664325
0.14249512447250942
0.00045017593459017194
-0.028158369016415795
-0.01327135086494719
0.01847267305651578
-0.00528327039980041
-0.03551185343977531
0.009310185453651155
-0.0146874268865282
-0.015288725709637619
-0.0005973504799293591
-0.05891909358048731
0.0008758040338280272
-0.01672851339889875
0.009172728242505932
-0.010588135305484117
-0.059590888323851884
-0.026605112219785555
-0.012216610953926647
0.04055612863525111
0.00267891372995897
0.0035094392978664156
-0.047787087414977385
-0.039081952774776885
0.009226207684937765
-0.00502781884587827
0.09583488237901255
0.08120108240156426
-0.0611367356065437
0.007446535382801375
0.04632003192717909
0.021545776490249958
0.029116607286683877
0.13413427351692234
0.023170792536111016
0.041143947727262806
-0.056796787432893625
-0.08309165996516657
-0.10076057070014467
-0.04897599346669268
0.037248165317155496
0.010913985288265997
-0.0066206192565704996
-0.02910809073265931
-0.033830013788335035
-0.010099393348473039
-0.01816486518157764
-0.0018561283897998168
0.06512125209832093
-0.002551142934615508
-0.005084646903254834
-0.0033326894566313397
0.049090689349249934
-0.08320895606389768
-0.025250916286948248
0.0013728312933614089
0.01100288528902587
0.05338001464466237
0.008971894956662617
0.034257017402060864
-0.0229421227151903
-0.04263418482280961
-0.009496937905542735
0.02251400294073922
0.0021937385427403307
0.04588126417275382
0.06778382790654167
0.06185227105005605
-0.02275390248823037
0.0198569773569412
-0.07765491006553489
-0.24093579316154562
0.00231185168025252
0.007844560573579401
0.01963820050128741
-0.010905440865586544
0.045832733257625595
0.032991064864622145
0.02850198301426326
0.03152389731481531
0.03810523275685473
-0.07954097727169414
-0.031045356492443492
0.021824492012440567
0.013862052447921224
-0.00037877370346003653
-0.06179937185165602
-0.014499767481479572
-0.06490985802902884
-0.02838355113240813
0.01558517479482142
-0.08049796155107676
0.02309851665802719
0.047078955505416464
0.03400568113485938
0.025569980461716393
0.0264226387728914
0.004034363897868893
0.006455092789064033
-0.04811446986259462
0.030102550859973334
0.14215264120975593
-0.007319636449166935
-0.009905249954325969
-0.011170793724414983
0.010326681332720055
-0.010419903957657585
-0.003348519102889175
-0.0076762875140331446
-0.004310658440050321
-0.01026678633094556
0.011244288578174656
-0.011994358568704691
0.0005827892290056871
0.010993630281618608
-0.0027356556370188986
-0.010682478901070972
-0.024852928800625743
-0.008464975873564234
0.007361606250192401
0.013973057525821592
0.020754506247163733
0.009173806131191982
0.06802414242986721
0.013408289439010295
-0.012772229031193233
-0.05707889371749324
-0.014533639336290944
-0.01105127481885751
0.03475728248711711
0.013103290351073686
6.399414186443089e-05
-0.01410000618884111
-0.005276132163483278
-0.026196069001416484
0.007247775551268114
0.07950844256392797
0.02676424090664286
0.011272963870051616
-0.03807359867341912
-0.02635636622424129
-0.009834978992261482
-0.011777520179383156
-0.0030292063654162827
0.014286722523801991
0.07939854157002404
-0.11247668770018732
-0.10813590228515552
0.026913365450909575
-0.04426705858065104
0.06280991037054356
0.03515786305177325
0.033609752904981825
0.031169900467861476
-0.015872698339597997
0.008463801851941906
0.01084929332460626
0.00011025127932380882
0.01091955358337821
-0.06950310029660907
-0.031102275321492165
-0.00823964128996337
-0.023098425778137057
-0.0015648425882605732
-0.05304809431452218
0.027004322629485614
-0.026534710971172087
0.024705595827621985
0.012086535331294659
-0.013694505165310226
-0.0101053599844882
-0.012631444056980154
-0.020541131137138194
0.024420525756486556
0.01363631515605211
0.06466609450946849
0.17593812732218292
-0.020312768381361965
-0.038446936428632617
0.026089624830534217
0.03415119449062231
0.021755341731798824
-0.00384932633958986
-0.004943651346903644
-0.01959915110823903
-0.003106750058789264
-0.019735479766316698
-0.02025398982387495
-0.02321736926037539
-0.018953363229817315
-0.004830837188762911
0.0004680890599580738
-0.023734993170069656
-0.007485247937652727
-0.015569147307735237
-0.014695154924453401
0.031797895315308876
-0.01962251796558716
0.012404379978775464
-0.020295515584076815
-0.007119139992611424
-0.010725788557805342
-0.015695104643330782
-0.0426689876640738
0.004436234183062635
0.03619606445990778
0.045913351906317845
0.031116635667884248
0.013661099331555356
-0.0010570285933849577
0.0032122196809200227
-0.02061464704853679
0.00833698628789859
-0.008242167554027792
0.006562031175011145
0.01131512328397164
-0.0259609103355617
-0.00037699952911545646
-0.011890713156686312
-0.009291617530228818
-0.00539282885536922
-0.00810342613394895
0.017972865303241218
-0.015530282844055564
0.0659604036660071
0.028802363020002802
-0.012442815805271174
0.010576523033852325
-0.02274946503863729
-0.017654259586293596
-0.010761288741510956
0.002835922505406648
-0.005717593762300643
0.04034547550055788
0.08076349491635844
0.03816713531117557
-0.0173423568623592
0.020680751523813087
-0.0845960741779235
-0.02871274531168498
-0.04253612807831297
-0.1939568054595308
0.02278111571793095
0.01500689084671778
-0.014875071753015879
0.01704817159883047
0.024219507452972085
0.04618103241252568
-0.08955336259597399
-0.0666848395662219
0.05531210458525979
0.01623536835258128
0.030835848673979583
-0.043617503066762875
-0.04841040552089394
0.018261210748876006
-0.0207998830645006
-0.0034351002294833828
0.01494608302548243
0.04719222765754113
0.18274228516401883
-0.014970665046574677
0.010886411344451107
0.013751226257663073
-0.015332004448296174
0.01519306083551874
0.0076192051030650266
-0.02885736659794003
0.020315377568037005
0.03609748757501409
-0.02009190043793033
-0.01403312610421968
0.0067863101054004595
-0.014212375674272686
0.04680976117455695
0.08523225459839544
-0.01549606339870367
0.029695889109755416
-0.01878968855189645
-0.01980063536219532
0.028039376286760318
0.005279989924407169
-0.04242001718326374
-0.008763944107299429
-0.0022655742547842313
0.010683125185773407
-0.006922144262394461
0.008836056172404835
0.03979416302837123
0.022656865988404894
0.024375048608294213
-0.04353419049939031
-0.06587597891280522
0.05037001951049066
-0.016738877633070404
-0.016316311279576622
-0.08717697558364583
-0.19621965679071962
0.011071779623765113
0.008088612346232194
0.05436937182331339
0.037155894502004586
-0.06345963400520065
-0.050371740884924715
-0.020447251577291544
-0.045190919856667525
-0.03652136497478563
0.019074505299464552
0.00025702699485345904
-0.013864479493950413
0.0028543383155476163
-0.011549285387207989
0.009947407393013011
-0.028390398790246556
0.03073914894128124
0.12874527373411976
-0.005726454277345714
-0.001021229634989842
0.007779322760060609
0.03322157417085964
0.0730745429940684
0.03391534070267144
0.00023854265599843763
-0.001091990614778821
0.011590794623398147
-0.004779408753897412
-0.010306635814852295
-0.0149783748506159
-0.021859509300248006
0.0020468758095776927
-0.003656008620227494
0.005626759960748828
0.01637150041422919
0.004790144593683182
0.017764025331828585
0.055562166676204734
0.0065817209677375465
0.009326958386131387
-0.013391458139697415
-0.008659616979771708
4.393120406704656e-05
0.015104332910889143
-0.011976710396850464
-0.0027025391078484094
-0.025686631971859296
-0.0227577854287014
0.008271672521244689
0.008998720996303252
-0.0161986524108937
-0.003675049329112429
-0.02350892603942945
0.02114010957651978
0.03245577032536105
-0.010110325734678972
0.019966731637390073
-0.008396973342525227
0.009731658955488472
-0.0032969162961292192
0.02754930655297023
0.11295631087469189
0.011160529178366577
-0.027768654036850093
-0.013923990243273114
0.018743172651324396
-0.07688934161276034
-0.10786646618596497
0.04359474447438214
-0.03316990429707556
0.0037074718320878903
-0.01583890343677967
-0.005762085306614317
-0.004398126240512961
-0.05846620167110407
0.016090864659506716
0.029901787306155746
0.030718727198388404
-0.020946187664741517
0.04010557484830805
0.018088626219486384
-0.0008827314330784225
0.004972882172371221
-0.018381385438942764
-0.005094058186662314
-0.0003642878584406694
-0.0057779201726156455
-0.0024285520500725776
-0.04180320880885739
-0.021744753356882588
-0.07922675384616469
0.004699553029294325
-0.003832876709707257
0.03113193319333228
0.027496452250945814
0.02823006312993796
0.02274662272652642
0.00553647728869377
-0.027460914725314353
-0.0385563678325441
0.01296451671885097
0.01739280510664527
-0.0031801935483904567
0.040176747687116904
-0.02112741928581365
-0.010501562465122766
-0.018935839048488827
-0.05196108709712254
0.009425478134466092
0.0642804079770664
0.0006159599193113085
-0.010295673881277194
-0.013605203569642827
0.0018549690049072486
0.011424303387102179
-0.026929930849555406
-0.018344543517381642
0.009233211690442354
0.005509112190535159
0.05682431339436151
0.015070667616473058
-0.06621038295633966
0.029654951810897612
0.01873570224885118
-0.05234543107195801
-0.062392042716004265
-0.013745668661655844
-0.03520795451109896
-0.04572636138091436
0.09094264862973307
0.019706311182833783
0.042969361505701825
0.11595920921097333
0.014431747783078019
-0.017501934184588425
0.01830706178848956
-0.0599312790103366
0.007917559812443322
0.014370712356815562
-0.008929054394231585
-0.027253713543096827
0.09320535608706652
0.030927121075087497
-0.061164510876268806
-0.01272498586746307
0.06500989844476215
0.05348616059252347
-0.03054073089968976
-0.007341961193890922
-0.0570623453646491
-0.03838752628776847
0.051169429717164074
0.06154635897160215
-0.037308350728704635
0.04117570107303883
-0.03150692763698074
-0.015489771662294106
-0.016740292571021186
0.014340293385432048
-0.061111852184961506
-0.12091866941324247
0.13110428669861082
0.006860297840385021
-0.02550649362078912
0.018795024682817324
-0.023944447402081404
0.015444188396195697
-0.008080909018053755
-0.02678460092332056
-0.03195376351121748
0.025098372940267635
-0.02202225020520642
0.013593483586701139
0.021575454188148047
0.03144688386791403
0.009203629671310293
-0.05467403493246866
-0.032589148305858816
0.06948242856440694
0.037678579896850035
-0.01195966266034884
-0.004391237858191516
-0.02307752669078454
-0.010957366666153021
-0.011442750906916654
-0.03352418374829699
-0.00540993521344506
-0.0005139430361202339
-0.04546175629217934
-0.005606037896144501
0.003156952377534919
-0.004436227204895257
-0.0013534006955095437
0.013925996715997552
0.02886426824213827
-0.016257569524777544
-0.009751684213886119
-0.0032772162410298123
0.027243883617662695
0.03967107600219755
0.009059165613059876
-0.004375871262716711
0.006755902866782974
0.005602752640801698
0.012606326094590604
0.018021762445515444
0.0009353101773134977
0.022185709882907176
-0.006812768565012275
-0.012337063509325225
0.005416784609276729
-0.006477266274941944
0.011516613455873582
-0.007046722454341787
-0.026641689293028074
0.02206120126569177
0.009866877851620525
-0.0016825034834768284
0.009547780456206384
-0.05246446388580773
-0.011442531055389516
-0.05350310742233231
-0.0019698084102927156
-0.02679055375541177
-0.021560147718176145
-0.02840150344444297
-0.0008292663967850685
0.062171162756591174
0.10548300271598143
0.11036279178154929
0.0011982765905682472
0.02158015251781068
0.008394372041250082
0.00184592675494645
-0.008111025851181324
0.014369920267573569
-0.013686491140480019
0.0008623504535112004
2.0755364087884956e-06
0.0006519683001531471
0.011954700353410404
0.021276635315726267
-0.11121930458418837
-0.13477036916318216
0.03147246620304126
0.0008331190648130576
0.0019843239207555977
-0.005352969440169798
0.016639988185123702
-0.017480185155418028
0.03498962006383843
0.038898442245742126
0.006497116795180579
-0.11845846504972489
0.019730064191602573
0.058294660755306794
0.02975463876257118
0.012570238358191262
-0.02602173494613317
-0.0015711523665296854
0.04142436593264279
-0.009685723809342775
-0.0008071784859166879
-0.03181843501159052
-0.011175862461371693
-0.0042349039873193165
0.04628566550709701
-0.021377141024744067
0.05431389385834605
0.02159779116064497
-0.15534932518581623
0.007132833971230936
0.007083531443738916
0.00809156581593574
0.014061972911225807
-0.022081992498264022
-0.009436185388044164
0.03064771343514809
-0.010008057082776337
-0.02756601174007822
0.011098469880471524
-0.0036256687061485076
-0.04976768065207062
0.006215328757226985
0.0011545452981450235
4.999024583352077e-05
-0.04295537719201485
0.0025207663412697514
0.007684072677772211
-0.048396525344373956
0.02765505674507762
-0.06153436573008332
-0.01241860186405124
0.01871498004054309
0.014678169102721822
0.026163191087721333
0.03154205668484206
0.03771227827257345
-0.01724507963224729
0.025511240180043665
-0.005796650676024658
-0.017441647451072875
0.024630194452195366
0.021911382811343364
0.014181946881946655
-0.0060352507735252905
0.0004791025339662217
-0.04072981054054083
-0.01184051721390009
0.011238051700770598
0.038954232188253196
0.002389359099013945
0.07096247111508107
0.06557371064272682
0.007282956123092314
-0.002924152495246922
0.019840425419035596
0.04402607048003887
0.0056825960746798585
-0.017319288303152405
-0.04672737485188582
-0.01829445098031591
-0.02291769037982615
0.010296654103956906
0.040123542040965736
-0.012359134401540052
-0.055817508495802734
-0.04286235267268455
0.013276901535379004
-0.03030903373727224
0.0012530033075755077
0.01408803977131821
-0.04913850295379388
-0.012338760452823705
0.04313060383251127
-0.02121720105517819
0.020762086070178362
0.007514685974414601
-0.008209275491649765
-0.021850563006224826
-0.028490887217547778
-0.002968209473222831
0.146495517952877
0.05223950184216041
0.005700827327119112
0.013591667308100214
-0.028602069968091014
-0.011469171772516804
-0.00984966031904435
0.018153369383646454
-0.030536854145110585
-0.02608727694478275
-0.00699005001942045
-0.025631248486450348
-0.025334546625882925
0.027295980791084203
-0.01264827391410854
-0.015691771269503073
-0.04439627856861364
-0.022130677554183992
-0.019056237767525047
-0.0039896216606143745
-0.014265183758523606
0.009674745559484325
-0.036890288779995055
-0.00492281748241754
-0.04962490094464845
0.033544173396156084
0.04174013923055923
0.07864756471134232
0.0531172901096675
-0.006136326002798354
-0.06149779306260402
0.014386101405072906
0.01685633209910333
-0.04557457401577669
0.02085375420253004
0.0438947578025249
-0.009124502370768867
-0.07079608601111914
-0.009990997274036198
0.02595068913026916
0.01009666333323018
-0.05053769508370479
-0.017745817739709006
-0.017220122407157715
0.031771751152325105
0.017390873771906942
-0.023117461098440092
-0.0029729971165812124
-0.0004793492869105038
0.08491434312370792
0.05776123588303041
0.0037890309845393403
-0.005664831307275574
-0.03232050935594593
-0.014940237188421277
-0.031876478946359185
-0.03048669397002259
0.03710128354737045
0.01698966538920996
-0.0034573869175607724
-0.015302951890744312
0.08898678590248506
0.15942944768670378
-0.01466469332204411
-0.02519742386193682
-0.01952497297319867
0.0022354395646253774
0.008633750586274214
-0.008638251849100102
-0.004781409324360887
0.0027088650322014372
-0.010968303023735823
0.00034376272148320343
0.02907844587981872
-0.009610874784382398
-0.02651864405398222
0.02642974820352755
0.027643227638236293
-0.04729063486548948
-0.05885061402692442
0.008479681015852728
0.06263400422911242
-0.029043632743935482
-0.02268385212837177
-0.01721159529153446
-0.009701356788486364
-0.04787498583890012
-0.10919471625615716
-0.017597339661686525
-0.019327220679090266
0.026791146698839977
-0.003092561858809189
0.0033967370579397497
0.019722015752585226
-0.02523715322905856
-0.09567787689459568
0.009703846246053287
-0.006755505561907633
0.043180759008184175
0.010422522142379041
0.009015027991387672
-0.0236320956633918
0.013336504173752794
-0.04233876288928878
0.017249074937781453
0.13487385787752038
0.03999632950145722
0.02912305533638682
0.014491926025222878
-0.014186017318005858
-0.004002661976674683
0.12254403255251864
0.003615470438577799
-0.020995743625552118
-0.047702271116784496
-0.025635499015626773
-0.02119910109313703
0.008424072219709644
0.0005505892573088359
-0.00462951649196165
0.006507835680808604
-0.023392290046078616
-0.013644547533593374
-0.004555343365829703
0.009220468400272753
0.0040216247160009275
-0.004132592339216868
-0.05325115604376416
-0.04131139276484642
0.008131996809718328
-0.018000646499891564
-0.010189947577020839
0.08127533324981755
-0.012775377097324674
-0.028984401834385852
-0.0029536043463761616
0.02182862733759702
0.026045168251393313
0.029560699678529586
0.0095857482247932
0.005143638355145883
0.0022429654267218787
0.018980227529542183
-0.0064798016950192595
0.014726149346585997
0.031635214584956654
-0.01323099856587165
-0.12008958581132992
-0.018761283512054753
-0.011930725313869002
0.0035023381818500335
0.010467490158487512
-0.026445001306187085
0.009752998407483515
0.058233621790921945
0.0027586454886721914
0.013118039139968242
-0.005882896133767952
0.014486559667113713
0.01744442673740619
0.016219619605639078
0.005765298511641747
0.015379679668408468
-0.03823786610926697
-0.10183689405832147
0.0027316855940446917
-0.0016576528080382395
0.0024185963564261137
0.00672693626076287
-0.0015742342965860863
-0.015260779244847457
0.05384282113553589
0.03238021086817749
0.005030425762226674
0.07643303398748044
0.01734239335906951
-0.0064436588734465405
0.022060796854965016
0.015193159178710836
0.011082689251884508
0.02545692971877315
0.029917619465915035
0.04413875370739078
0.05965431180047507
-0.18959659211401814
-0.006673385231535142
-0.02354550378423189
-0.0439655424925087
0.04006362205696426
0.0030196363740662077
0.02280668893285147
-0.006561970066497486
0.046568316551566916
0.01641085634888962
0.015056213319989685
-0.04276726987573155
0.06572788475723097
-0.1210027655021228
-0.2237637993550747
-0.037764995599963554
0.0035645529266564177
-0.0010609726954269299
-0.017047167284498944
0.0190066454530664
0.06996654931728873
-0.010048419384691915
0.0016928539729510663
0.0021662744874567067
-0.0004415367639463618
-0.09969292282132841
0.003636424086277814
0.02944457534059355
-0.01450906279660121
-0.021667366333305734
0.011788164023163015
0.0038240042710872405
0.010235800495788002
-0.0231051809666864
0.0035935406041514243
-0.004355371536038553
0.1252423139266566
0.07061010569093756
0.005857536815366061
0.02192044325583439
-0.016587638540303592
-0.031811312082657466
0.0057867043229315705
0.010804389284616226
0.01566551227277813
0.013829980580845605
-0.012022107425723388
0.0035143854513843406
-0.0003909875558061139
-0.06229524447467535
0.046730808848216204
0.0301956903456176
-0.054442831693309886
-0.02591713317276069
0.0257273429806037
-0.028578859196184976
-0.02450196726448002
0.0022541014098401623
0.019752003584781165
-0.030130592542583094
-0.03370833671347304
0.02106405103819451
-0.015237099266810595
0.10806645120787595
0.11674174104012228
-0.043897138403289425
-0.031947497287859714
0.0060291008900006755
0.021007764287678234
0.07120006254540812
0.17190500859319116
0.03160730120490187
-0.08735861554616302
-0.03345573962957208
-0.03087722900423185
-0.04210812895791246
0.06142769946136248
0.07201908426909896
-0.06184080089500465
-0.02116376109541647
-0.02047250414567589
-0.0338185853447964
-0.040924779660373146
-0.04451704142324535
-0.03066476329455811
-0.03440526577507025
-0.022362834455704708
-0.013897826364325875
-0.009217647859368424
0.018205569369506458
0.03692497973296739
0.009781838903301093
-0.007096968425881566
-0.0020950156069575983
-0.047627264687523735
-0.038741126528187016
-0.038740751441986125
-0.0013801352228799534
0.021565432034411157
0.0016231143265146729
-0.020371138324098675
-0.004988076724379939
-0.020218738670814432
-0.03872866058683659
0.0633202397971304
0.047715714084292246
-0.018389609921603822
0.09203582079768327
0.03575937432915617
0.0007918420026110718
0.0028852680277027614
-0.00906131335923145
0.011196439641169705
-0.0164319333415461
-0.018892356357830247
0.0028817972989214438
0.10829068822583343
0.02815789460360882
0.05282929971810183
0.011278256005428757
-0.05627966422876698
-0.022546072544887934
0.0021069559997310113
0.005798100612640215
0.0015798277631484782
0.01361299141004632
0.011752833641341063
-0.0727705053814795
-0.04154020310713448
0.01932624072836068
-0.02196454173113646
-0.011389963568212895
-0.01292543682543028
-0.017800966622455214
0.03739751530724905
0.04252774839603819
-0.01462129584945297
-0.0005990848024229861
0.014139216513141104
0.007838183213209338
-0.012178647095723933
-0.00323618795594149
-0.026790568118790357
-0.06399421909184648
0.009759393912123526
-0.007048233923439046
0.00759022400530837
0.036152268529428426
0.04023965688284007
-0.005051705582028651
0.001236181708722934
0.005663365326071942
0.013161282769241424
0.01233693381409151
0.020402626835693095
0.007397217855063781
-0.07349254402639943
-0.015474097292940225
-0.008756042733265286
0.015993558197398745
0.025000936913325344
0.0007569935012369405
-0.02157666688949386
0.00822292671542792
-0.13920287220287358
-0.032577444319285456
0.03155665767403053
-0.009798574984608623
0.022947402186522033
0.022897261949161144
0.05130424732757967
-0.0585491672560674
0.014144717646152596
0.015913258730918423
0.0012130109133631818
0.0033155482420082366
0.03365713181615039
0.011268190939083815
-0.003561415801052026
-0.005153917524136247
-0.011142203104884224
-0.01948572767944469
0.044696771606884275
0.016547938149739934
-0.017108246688392767
-0.014114426253704007
-0.01238198548150451
0.004816969361609665
0.011611479655969545
0.016196781043588643
0.01386240644917194
-0.016739428424919527
0.025438127273213235
-0.11899421870565452
-0.09537270027011188
0.11000445438147395
0.018057190434148516
-0.00473480012419825
-0.10340239420684538
0.043278165455432505
0.04629388090360875
0.04513560165056106
-0.008203823167858575
-0.020907384167641627
-0.13281761323453847
0.04121347583765677
0.1733136315278091
-0.00786520160972801
-0.06366054909784823
-0.005261461614408424
-0.0018927423427703254
-0.022160560810144975
0.09957033437980566
0.03911928159480234
-0.016288482512980106
0.005880452404861837
-0.00963911266564122
-0.035366641237309086
-0.03518310492671812
-0.05582185200147285
0.02242864356403958
0.02693522446551327
-0.011973923491034407
0.06528717015464872
-1.9167017257175403e-05
-0.039215968036431584
0.01098277837396529
-0.020350032983161445
0.019905673302418797
-0.02928791320864642
-0.023055324251958643
0.001730396919391507
-0.009038080085670511
-0.030259074485782755
0.01514539792059914
0.04625237595523464
-0.014360441748861207
-0.018405798515863957
0.009660292518798321
0.030349755540689728
0.03255778929966884
-0.03218469084276149
0.0004127896441227096
0.028834521904643102
0.017061882635008293
-0.020947902405136273
-0.01363307286958549
0.00205261550647229
0.0006477300059479671
-0.023494665294950007
-0.01691842203352996
-0.026902658244490795
-0.00394264741120737
-0.029217746197867395
-0.015203014433580726
-0.020646616661436655
0.15520612595483235
0.14979816153792772
-0.022306549678337378
-0.013173475612135997
-0.023987745532880286
0.027491626055690388
0.07134653081744338
-0.014564396768274406
-0.0654559714923246
0.07203160337595955
0.04908582090208519
-0.006838463100073675
-0.035349547559460195
-0.04318484267159157
-0.060607061884112794
-0.028947368849738576
-0.055691830078125545
0.005225769873766357
-0.026341722837222494
0.01866781599121346
0.04976785371507545
0.020414233283841645
-0.013248573712147105
-0.0016056000641121674
-0.0513933826506702
0.010659853703856859
0.010229178534393648
0.024179804435257815
0.029730737935117445
-0.008753626723101782
-0.037995128860724835
-0.0022233503030880545
-0.03689745914995136
0.023144069758958528
0.006146498253582741
0.03177429574150565
-0.15903896000062495
-0.06063682711539869
0.01651050273711677
-0.05342075829052182
-0.027867261344897736
0.04169095410838658
-0.000950093680370796
0.0061365968786863566
-0.012390921758513302
-0.04020380486876549
-0.002283258584002421
0.008480950309558043
0.004258524180988178
-0.060947355602833805
-0.008384034457247405
0.07477060592147489
-0.005075134465484352
-0.027118856428240554
-0.0323253430039305
0.09877568159208636
0.021321810361345585
-0.037790788595102
-0.021490507014849284
-0.006842323644810838
0.1588244754178173
0.01676499865306271
-0.03169210404721402
0.169564649697625
0.03557512661639204
0.017305998242274565
0.051602869077328854
0.008167731539022668
-0.0490832694477148
-0.04223620030638327
-0.0038511408340060342
-0.00036299308423300445
-0.03948282951127667
0.028831940300058253
0.07836468489520738
0.03450946323532424
0.004568648193979277
0.007261942419514632
0.030364504025626002
-0.022991237378234584
0.0005780902901484369
-0.010236040338105537
-0.01713609575530214
0.011148049225976729
-0.041999519856840674
-0.011954001474337386
0.039540227896571245
0.0079008735630412
0.002901585436990214
-0.005241396830118388
-0.003863245034786513
-0.03548345211614988
-0.029877801943772347
-0.10291525560444136
-0.05798668016845628
0.023120497165187742
-0.015266798382908942
0.04514333604896052
0.010145138302705138
-0.004012718442796983
0.014076602609343864
0.008824313025640126
-0.0018936595034731109
0.0027165794855030256
0.022849871895486044
0.04322805408621047
-0.05796725053090524
-0.0832105454150661
0.033239656793842054
0.04256486502876198
0.011222983129682106
-0.002418654359077173
-0.1349801465205762
-0.13558907608389764
-0.024425137169876793
-0.010070434963125877
-0.02979609650939739
0.024390863611766324
0.013612146267293011
0.0038092912375804243
-0.004495545525437903
-0.0230720430232676
-0.0012396699096678615
0.03608306950610377
0.032193498882309754
0.010461894095913053
0.0029828847126577903
-0.013094923921484975
0.04790778679497982
0.051609947156908746
-0.044544445746584456
0.04941771847212864
0.08640848765258072
-0.02518720743957949
0.040516872694311486
-0.01372522430880775
-0.0018088832293988548
0.020036783122426093
0.04012711950748443
-0.046614456897974235
-0.0617122451926296
-0.015896248413783
0.06031991045994701
0.1517838970402689
-0.016932743681778228
-0.0013948705709522975
0.016895975474438968
-0.02519108941187436
-0.014969941008531855
-0.008233310090430004
-0.04599491574183422
-0.04290730811731059
0.017833619928884808
-0.010334913083935207
-0.005046259552603886
-0.013782677932865367
0.0007938895972008984
0.014666210926441922
-0.013270145017496323
0.024160339899844306
0.012298249297669563
0.0031878262262762884
0.028848698011986782
0.027206572895606015
0.03988993246904293
-0.019779410483734047
-0.01968388990472739
-0.014030235885308088
0.012266670209040115
0.005084344233200936
-0.02585828350295666
0.039981660902946185
-0.01606518042535473
-0.06219106893656606
-0.07425113537317383
-0.0813493946900013
-0.004087819060761574
-0.02633595773654197
-0.00645306138254119
0.019146965323153825
-0.008968508979535869
-0.03440222603651664
0.014279345861736261
0.04469242593312022
0.03371272082086358
-0.029459533398014007
-0.04222710411054352
0.02405903187437414
-0.0340231842544703
0.12343113052235885
0.02334697388237733
-0.04331600163840397
-0.012625044511895344
-0.01161018600372919
-0.010107696319814867
0.003125915663426012
0.003976196798318584
-0.04020112161580922
-0.007236229163233352
-0.004294141673541363
0.046152961146355594
0.0006920658174324003
-0.009230689543903296
-0.020918837453219694
0.047788920766951654
0.03963515405954443
0.12716022071476915
0.02960748653141856
0.001102775520128758
-0.023694877389130408
-0.006690741012074152
-0.013158845649296059
-0.0063790686603407525
-0.037470007478224834
0.041004291888252206
0.06763000040750647
-0.010450433724371318
-0.034569307979811614
-0.03240095354917035
-0.010281270376756154
0.021746340775017265
-0.01894315351692886
-0.03762755750860582
0.023162477413256985
-0.007855876145323357
0.034716379753647254
0.0054962943035359695
-0.02420296733601366
0.019364463390178874
0.025404248526256074
0.024299460443249897
0.007583400852657348
-0.013387958281213207
-0.004232622374781826
0.010130776153542808
-0.01814404779614279
0.009174849256123135
-0.01214041512452494
-0.007094336626297066
0.007558742641836079
-0.004255435844454459
0.0019709595636967802
-0.010651605992467943
0.044973377385099295
-0.02737561913224316
0.00798390459366963
-0.024148522659341413
-0.04908169705808112
-0.03816666192990542
0.008523405791368531
-0.025235401677559888
-0.00994354167706282
0.006006918739662604
-0.07064216397832766
0.006740903379701156
-0.003947210150088996
-0.019453656165103583
-0.0053764174584085365
0.004561763201886089
0.010794065691683724
0.027024095737745817
0.04700849945702128
0.015480747653455623
0.10065633120724746
-0.027479973340725182
-0.15728195298197375
-0.009928352523671618
0.0030231206646445506
-0.0006365830999479407
0.011545356842078339
0.05471901388791941
0.030667255551733937
0.00480309664549883
-0.005203857190277103
-0.04754546411656998
0.0013219494034205572
0.00648285546654281
0.0029715371567522373
0.004609457597945773
0.03675301523877355
0.013073404636365499
-0.021632473149133524
-0.023396464526792202
-0.001282915027244666
0.0462477308576034
0.009408187810240746
-0.03803277296085282
0.002405874285471779
0.017462771482814776
-0.004245824443000215
-0.0032287880155296915
0.02991410165187131
0.014034478957000177
0.03228829057537465
-0.022839334387382133
-0.0356834646386773
-0.018406558870080855
0.02200216531149753
0.03500439793026622
-0.004926278636199369
-0.07686578685357341
0.06349141163026853
0.0061715841992032545
-0.0038595361321394645
