0
-0.02792170975929298
-0.012665074285895054
-0.03796268615090297
-0.03624353949084872
-0.10369456221528926
-0.0001391415512289007
-0.018883652785307962
-0.013122744540877623
0.019520039623957597
-0.023762967012616015
-0.01825939129570811
0.04122764841926866
-0.014798689211177135
0.03834857160431007
0.014911271236547938
-0.022294597640752145
0.10971237329130115
0.04578565126379552
-0.033009147906258085
0.059452023763878994
0.05497593244739549
-0.07731655692085437
-0.09896546901846719
0.02483474890382901
0.014471453297777052
0.031589138551450194
0.00033298711478357325
0.042300502785014654
0.20104669813116643
0.00959884617084904
-0.009814538275579106
-0.03340859335606029
-0.04556688155197296
0.08361795930752071
0.03353803248004577
-0.05143962791062277
-0.028798811355806867
-0.07543753049336448
0.003673870745905629
0.0029715593596580086
-0.042898420163172545
-0.006288241532708358
0.002595601841992691
0.0055148173590178
-0.0832582737116663
-0.181213066955579
-0.0124977440756908
0.03225117820188277
0.006217933481571849
0.012789550558678366
0.03236351173054877
0.0025141665670690974
0.031709437350308456
-0.023169234739228453
0.014816280563729361
0.022943033585101146
-0.03593024795468869
0.010347981517496954
-0.014016564909277635
-0.011222611027590704
0.019167421285797858
-0.018615411242310045
-0.010280974136147179
-0.03907230981339735
0.06041291524561899
-0.019624365150258557
0.010197476573803823
-0.004884197978218011
-0.002455543657828598
0.009428858517910126
0.011574158471682534
-0.04804056287547574
-0.005723600260946567
-0.03549652675507029
0.05490651763823898
0.06292020412708224
0.019384769380213152
0.01168537109278576
0.021484675461051417
0.03705238461844996
0.07978439097177707
-0.012982741621852385
0.003272047657242139
-0.019663802762847318
-0.011160966759057702
-0.03747129476900297
0.005472724091514381
0.03228086894376496
-0.0024971990365178593
0.003974060592307678
-0.0033844394635793775
0.10367207837823406
-0.029366739986150546
0.020967265096773574
-0.001263684730943735
0.0018162921104557866
0.01763634514068111
-0.04350875345623898
-0.01933860923453657
0.0686987703739002
0.0016598001603048745
-0.02218841244539705
-0.03848372299218466
0.012460499673689658
-0.04054958570165796
-0.019394933067238464
-0.05931967519447064
-0.006155713904672669
0.0217624674345337
0.009954602854468154
0.024412474505063182
0.01117130093663294
0.007408308482946389
-0.02905352682107094
-0.014129918755461
0.014474496670797471
0.03510571482756941
-0.030345617649735028
0.08414700854315868
-0.06258692207008357
-0.12462862154805364
0.042326034477297
0.016356195235581607
-0.0034772984734630953
-0.009899729875428448
0.01206673639188759
0.008637741426738345
0.031488153269036506
-0.01818720098834675
0.0035621591207070052
0.03330703699586173
0.02397208057663478
0.032444091548107325
-0.1568886943732669
-0.006698246034420824
0.04813436288629182
-0.01564777545840622
-0.028623374974953666
-0.01454083789100371
0.017107199198184375
0.008291549584078715
0.03603808404409184
-0.07360052516223947
-0.03309041747073545
0.029025468250112024
0.048399060701435945
0.03341721157772825
-0.016999731011729642
0.02443553652296023
-0.15255425814072787
-0.08428863796180755
-0.013203199745218986
0.0011410812375771291
0.02078074096585503
0.0030947541570521143
0.01856761369951778
-0.01366070054646561
0.01750602715426067
0.07756277960467614
0.0032913605780037288
0.07344272230522896
0.014943548480281153
-0.003599778751428907
-0.007367664224490471
0.10683691817791004
-0.07040260166344531
-0.022032190667904288
0.04488820237494324
-0.024666300321289452
-0.014834929460346064
-0.009288836944161676
-0.0019896378778838622
0.014916638209857324
0.0353027918573894
-0.01918336396434342
0.019936217298228764
-0.0004997864534601146
-0.0054017172678191856
-0.015545504884173167
-0.02352912581930288
0.01920604904420237
0.02245035412620419
0.010532294987901132
-0.061081424899525186
-0.016157503888949692
0.0025683382199518934
-0.03215536072552054
-0.004490519856725872
-0.004997302537565303
-0.014217707233014229
0.0021811368895392437
-0.02788957757910853
0.03606715433493655
0.013559817064184368
-0.035301873143099356
-0.0247909500071591
-0.02138829018614583
0.009482795106106282
0.01505025820970555
0.03536146094985087
0.19464615650108957
0.03784535871021972
-0.06705967789354571
-0.03466653507990334
0.012333170601777134
0.05265037246472086
-0.00044798506448842456
0.08986846296006684
-0.13901455557047274
-0.07008971575135783
0.005924253671264577
-0.02980274608568784
0.010119125936705936
0.0007473552215624015
0.031291486241476915
0.007365568108035527
-0.03495190542039963
-0.004232792056048936
0.05331242049951767
0.002727228993973676
-0.022192605353278175
-0.04024418172581341
0.03717881409470331
-0.001340255614679779
-0.07342429417969384
-0.1341146760939787
0.009819632487986474
-0.029596849203591968
0.026173807816322857
0.043349009986588846
0.07576957083375065
0.10644596841527709
0.08533689710430702
-0.020238762970860354
-0.0179889469122719
-0.020215748101105522
0.0022259763757180397
0.03914752398204124
-0.08781265035510599
-0.009025085631887449
0.028998135652433473
-0.000726067679538413
0.004683044754133092
-0.015246622205071416
0.0012711031043644218
0.03885366686798756
0.03467587245046931
0.03314164185272339
-0.011217200347556284
-0.005226048485066167
0.034158724667570445
-0.06869170734598937
-0.06765005005040757
0.04392989541607425
-0.04204668008854739
0.038983826152695904
0.01940160051940186
-0.009623354647353548
0.016139731792463165
-0.09660403331995773
-0.05030337027230976
0.010041684975884759
-0.0813914014446909
-0.008974742454916963
0.017630661714454602
0.10951447180264079
-0.006592709921556265
0.06402848668889566
-0.011442109930694154
-0.02909369950044923
0.07575062383592855
-0.030052139693781763
-0.05778089309041173
0.015867175721889372
0.009509399068811559
-0.0016483908085299763
-0.02103534286409221
0.019322570739299365
-0.011943157225403718
0.0266596187086214
-0.0712221485889442
-0.06089916940711638
0.0022583126914272247
0.03379998567211842
-0.0035308080586963263
0.004857751564271371
0.005322609107505778
0.009844536140126503
0.03259586143508629
0.0060193842801660674
-0.015290036396754766
0.037001493036484936
0.04882975638687712
0.04281639212378241
0.0063304222232873466
0.022982427953587695
-0.026460115559380857
-0.037554294303170886
-0.0007093672758390824
0.015723193187238364
-0.008752857572059595
-0.025882397124336532
-0.0016513373114219318
-0.02483342142322369
-0.0036655666191612187
-0.008992915583833718
2.0883909440259228e-05
-0.0021855403648254447
0.027233942624556067
-0.0017299919375491594
-0.04416893370472153
-0.010149825545713951
-0.010727771044623741
-0.014273112833496963
0.03265653035510425
0.043733406613236256
-0.06246632649615731
-0.0044467398475760474
-0.042712965703265764
0.02794079459694782
0.03441027631420249
-0.028243995050346762
0.009158381396593534
0.0010389080978656761
-0.027764769100128147
0.05232392527089893
0.03688123775115785
0.010940356694107568
-0.049361130012233044
-0.12748720765581403
0.017609632758979133
-0.009473841324247868
0.01320916453906443
-0.017644638104864226
-0.002847887569969874
-0.03971486968505668
-0.012108107646167134
-0.034789368016273164
0.1560182208921794
0.09181269192670498
-0.04623313464930462
0.03639217770845199
0.024935082546028248
0.0006325817879256875
0.023048157752227887
0.019368326479215933
-0.03864096924094812
0.013940410665585625
0.03189942949028828
-0.014708194732046221
-0.021681027275245256
0.014608861953900766
0.0067224201462989875
0.050228328756524
-0.017917015967990002
-0.018130212989127734
0.008453884499755409
-0.02188470896483035
0.008755271282011262
0.019726646255857013
-0.019795625587828783
0.06018374776980464
-0.005535505160219778
-0.020283285897129636
0.01537110269350106
4.9773994864855894e-05
0.04389830083962505
0.0160474844215388
-0.01124803371959461
-0.006594107747815199
0.003389963851915538
0.020411849352382164
-0.06789846314625456
-0.17749752699284604
0.004557676098955294
-0.0012402576420552352
-0.0343159211848814
-0.005250604022664597
-0.037176915970237326
-0.03871941079178036
0.01105067467171508
0.04512278213826681
0.05523892858466961
0.01634509567208281
0.036035167447765006
0.0006141016465773622
0.00262685160191094
-0.004700457249513948
0.0014327691387226865
-0.02757782495567205
0.02617923538863626
-0.015224439141634105
-0.0008323908889189762
-0.026230184560661143
-0.019795679512936246
-0.0032552951359372017
-0.013127880147004282
-0.0066246663024667665
-0.0021735741337734833
-0.009581494158860913
-0.026449054632074708
-0.03719956688250129
-0.0014331898371291573
0.02646876634369237
0.040086473477265114
0.0025042964621469297
-0.023241683697422817
0.005381939890828983
0.014280680771171547
0.022960676051523937
0.02476615812518446
-0.006874152397630212
0.09482859552533572
0.005755838436420024
-0.0222984912653602
0.018696175135762404
0.015356851489400775
0.04653391665250841
-0.0017817742592407552
-0.041830213582061314
-0.017908935405814782
-0.007320142757689913
-0.007437873183476154
-0.007892918528041528
0.06463384573965684
-0.017121566486361605
-0.014164902491172105
0.006165721018382027
0.05153684806432935
-0.0046147641072836025
-0.014530755522073583
-0.020350035143324733
-0.02795473468450077
-0.040110548608468244
-0.0002356831154008504
-0.007978318718777211
0.030612996168969255
-0.00788605798818994
-0.01709550236486007
0.020436812200639243
0.023791211851836823
0.0065245618753899184
-0.01761665212063418
0.021945592753900373
-0.007968864509436473
0.02134494478743551
0.017488996955885485
0.023099678341009733
-0.008434465768071902
-0.006548084334689704
-0.05937804215078659
-0.04327504820522429
0.07371107647478892
0.02631070758421153
-0.0946830750192991
-0.07662859395225714
-0.0005106772242053558
0.03201239108250624
0.022924974730617016
-0.026313255788525017
0.04946823488689878
0.005772604232862262
-0.01690888482649793
0.0029149316780737967
0.009390919739719073
0.06002004015774436
-0.046212002800523545
-0.09726404020143323
0.016737081122305427
-0.014377457371471516
0.007827060005549055
-0.012067203403028403
-0.025743380679600542
-0.03489025342199243
0.0027809050541210065
0.012578296311423511
-0.006942925940216393
0.032422363701572345
0.048089488434533825
-0.013568567095376478
-0.04112793867943628
0.007574446912611565
0.04047975615235044
-0.008209202735529676
-0.010185061783653372
-0.01972424206559484
0.04257606246827433
0.11560093216258963
-0.015920485596885747
-0.0007348515646638854
0.022800363485769238
0.016453357115275204
-0.01661362976872553
-0.023177554606678454
-0.01354770604649507
0.0006619508751032126
0.027358929983433932
-0.015500197953883814
-0.05359473975494485
-0.01672568476674079
0.003936474614392372
-0.01634026205347785
0.02775896863520459
0.09700772466841685
0.1519132869605373
0.003002842363310799
0.00788933884870987
0.05219663641848722
0.0067430073275949924
0.011942382851444801
0.01748373488688991
-0.023529489588513818
0.013355884771944833
-0.04458592001278537
-0.06386385791441654
-0.1786055216141602
-0.12434870850935195
0.022460252047105233
0.01666416633227938
-0.022828802014917878
-0.007695976817177373
-0.0006414649258053718
-0.01021322642226767
0.020080860400096268
-0.0024839260440693116
-0.05654518031486025
-0.09554571533028378
0.0014488925810634096
0.009900172630572723
0.07669516384333476
0.03921742549682121
0.014558991672473827
-0.02313270210909891
0.03424782480344773
-0.02689967165431724
0.08448182312719578
0.09606313887062742
-0.028167027412393877
0.009971797888446762
0.022896417700803313
0.012490885979597308
-0.016793073357538702
-0.06233108207469606
-0.00444373732481895
0.0144962911484326
-0.03347009933879466
0.03243597488927119
0.06338018151025393
-0.005003258768917839
0.0017080953800038233
-0.002612776572581634
-0.01922407462903448
-0.005373998545935515
0.005305853666827132
-0.017367770971585324
0.010330585483857622
0.04244916439014788
0.03754120786975897
-0.020905000935405184
-0.03766512279277966
-0.03855099952077819
-0.1089413531663424
-0.062474977933892395
0.010848731857790082
0.009404745919247559
-0.017847938441304962
0.030293630465833072
0.00955909336421154
0.041724020536183244
0.016370468258198514
-0.012268666197398958
-0.015730044513403343
-0.07703436994461732
-0.028063698065589796
0.018661919372839075
-0.003947465575300912
0.00894093640657636
0.028417855289081622
0.001020744025123765
-0.036061548255474925
0.022812518820646725
0.07625075778423995
0.05570784216494439
-0.020156493492993737
0.00722115090859634
0.004653043679403875
0.021376010735538464
0.007583711838696393
0.039104854097841306
0.06065123355584533
0.0040689217363493475
0.016050495888511502
-0.029635419846079366
-0.02279110394677041
0.02034140761211285
-0.023767674140649776
-0.0213753746337771
-0.028677406718575965
-0.0018468562927629576
-0.01475483426281456
0.01568989800050111
-0.010809574566931754
-0.003836992245966513
0.003994397092083584
-0.01871771665844452
0.03355066588653206
0.03948686880502476
-0.007641810772080644
0.016336014286085304
-0.0724812842773337
-0.031272725461750264
-0.029734919880788788
0.013794581946291786
0.017116349346888424
-0.04115311050392698
0.027604172869387766
-0.013832867054697906
0.026585508289129114
0.002260139403192673
-0.023891005938988207
0.010165668399902128
-0.0012359913070543846
-0.000734942299445224
0.04810201193763918
0.03416214607689906
0.0076340431550715685
0.05628848973399788
-0.040405677987304184
-0.04092860007188483
-0.011656203166209092
-0.04290719273580858
0.061263844208842864
0.010432546398977841
-0.01230459236061497
-0.024605616901004636
-0.04339357771220814
-0.04194598983638774
-0.001659698623425856
-0.02945379637844493
-0.07745108855035404
-0.017771032142053913
0.01560880295424832
0.01147522703916343
-0.046645578773816136
0.14176814076369076
0.09245863264224494
-0.05652280771728014
0.022466694769191487
-0.0020335373097859866
0.03662018643472717
-0.00326712927527662
-0.029721000622409937
0.01358519101430148
-0.015732044894945212
-0.09711357106175496
-0.04520368367383665
0.03246824908276065
-0.017519552453454625
0.12686118824510514
0.07529376093369516
-0.01643946380991019
0.004555807870548447
-0.004265946939247219
0.009424599977900194
-0.007301511976270246
-0.018938320137693938
0.022306047217460535
0.10193257052816442
-0.02895259298515201
0.013467104545502089
-0.040960556638723604
0.03265626486872749
0.01460966983061058
-0.029921519203570744
0.0010217215733086256
-0.0021117110468351795
-0.012938247667094904
-0.014560321811442036
0.004038686299053576
-0.05442783337319028
-0.00575941714988772
-0.010471384610982902
0.012567562662972327
-0.0018936308766883247
-0.031981152728061936
0.0006712731866615945
-0.017290192015796263
-0.029813772860434712
-0.03190608235631217
-0.025613783338831395
-0.014344982384016514
-0.025853814654794027
-0.06440033650810323
0.04502907683793952
0.20295950689726386
0.03654709841696306
0.015707621467218078
-0.026110704603309717
-0.023089642101590195
-0.04142360576670241
-0.01243914399681986
0.005326137453685755
0.023030758028215352
-0.02481132189990342
-0.04707288575008581
-0.029178987465350074
-0.003061608525223868
-0.013227812348886555
-0.004900324347145593
-0.007137427244917535
-0.02951361119033812
0.041947647655647353
0.04265079825276615
0.012330248437203022
-0.04242196176519747
-0.03419817836495991
-0.052866574410625075
-0.038955923158732385
0.07877739676507796
0.01022449565977449
0.08738406166739826
0.091773159305084
-0.053755174058531724
-0.010623511800848091
-0.005007256777366868
-0.009458371693424608
-0.039917110507795006
0.009999002800541038
0.06423271487474704
-0.006869612723857125
0.02778915272115358
0.04228277016764843
0.0319378664619576
0.014046158586410892
-0.008569292739806748
0.05371612104155612
0.019315138269670355
-0.05242807660283563
0.011841478179976892
0.0445436437714121
0.02701802060679115
-0.058091439717741215
-0.09159344890771687
0.04576340915109521
0.001656027103726257
-0.0013437816008876036
0.008182609377468985
-0.010564199039526143
0.014965967962803941
0.009880524847250563
-0.0029649023113717823
-0.028349654382818574
0.0004787743505380472
0.02085304665436056
-0.023849160706414695
-0.02240215932997022
0.004802052312034577
-0.016997804398217457
-0.007334281406231891
-0.0019525488220510942
-0.06420186468601062
0.026033590531693275
0.017615578233079694
0.012154701961449953
-0.01160401774110877
-0.013665554865863919
0.011047695548778005
-0.007232442200314275
-0.0022853866558566046
-0.012512032109775834
-0.024842225080361362
0.004545096406665471
-0.0484206118884413
-0.04021882817653199
-0.014282682931113858
-0.008583780327355283
0.027910715380345275
-0.009968137911414106
-0.014060586156533257
0.0173396205333475
-0.010486257262693553
-0.005806609004555208
0.002935937797541589
0.0026227716408483287
-0.03346885775885319
-0.00663257122533265
-0.02948682354724826
-0.004646381462355712
0.04181885366949825
0.04362144904674274
0.03697114925460876
0.006582772410642654
-0.0048212971755409
0.01648786783993215
-0.012768415239724927
-0.004540018826250308
-0.03813328927967952
-0.016988175894718464
0.025357584282232802
-0.028257935474814283
0.024368420222674478
0.047187751079205364
0.026579439598913124
0.0074109526103445155
0.014312871930099802
-0.004620163366090894
0.04168115857012491
-0.005061593269996419
0.009065279975809984
0.04223062989199783
0.034335063171284916
-0.03459757605325554
0.00045632476897703177
-0.0014475354114340598
0.022492416932728222
0.009173987232790767
0.12771683230879738
-0.033174169019145376
-0.07163813171414318
0.008335288972365936
-0.045023649790180795
-0.07998516517743666
-0.029919237847443592
0.003920203770170448
-0.0006144259723938122
0.0294441703911752
0.047626950467743484
0.004921813151241457
0.03130311711056485
-0.024907801029458308
0.011592462877605961
0.000614923903426404
0.005026600988797318
0.016157680919101743
-0.00803808862025555
-0.018042791678391557
0.002731856080855481
0.009674612354746898
-0.0025722192475302547
0.014500040013799466
-0.006942119139972171
-0.006048780489647075
-0.09084808864215858
0.03875839022700538
-0.006837515119198641
-0.012829434322946379
-0.031099747418666536
-0.0511654834518203
0.011101898509358058
0.05917952066528995
-0.007869173191577716
-0.033936797844840015
0.008779825507429362
0.004899961418874071
0.011533570383046978
-0.0006581273105827928
-0.00746433531765869
-0.013591439624409209
0.005515505183717033
-0.023753655689804823
0.02798598937930069
-0.08459820396526375
-0.11236508643778623
-0.09886782618104026
0.07466622070062807
0.07564593418663351
-0.03246356756917346
0.054598743703678634
0.008632138494466495
0.017538562159458527
0.023560041866790005
0.004222953188089789
0.004032031562786136
0.032536773952224714
0.01977973614895252
-0.0026361234101289245
-0.005998604968702995
-0.049666377134230555
-0.04184364443627444
-0.007553642822871177
-0.01679571858389001
0.012890117938859141
-0.003831051681948675
0.02502505994668453
0.15387271081784398
-0.019901713815647724
0.03778646101455325
0.09086479724823907
-0.008421888845988542
-0.014394518120019998
-0.0807119052250963
-0.019049329458326904
0.0015633130830238601
0.002645353853372982
-0.021204041637108373
0.01348314041677493
-0.030044258550385592
0.03013109136550348
0.059268028296316284
0.011423823355637809
-0.013383863507596329
-0.013454549603926292
-0.020272183009998612
-0.003427589078233613
-0.0013835331017043706
-0.0028932454832861177
0.0009595785669943058
-0.0024705217904243243
0.010842204203869095
0.006781550638598066
-0.01871477469342278
-0.0066334719338961385
0.010465187847522088
-0.027809245781645082
-0.008902732251386143
-0.0042459298477134635
-0.002415168467616181
-0.005645824540121759
0.006105162364598062
-0.021042248325678047
0.0038645185077067815
-0.02789732066801937
-0.01711988459134973
0.02117783845849458
0.04608400700746501
0.02342583237410729
0.01645420757772004
-0.020785230953570166
-0.005884006324356412
0.01227714594113075
0.0406682185772595
-0.009489700758443914
0.00914909552063696
0.011764897353517944
-0.09018789933423738
-0.011455277570767725
0.011925626296627
0.035575986134174266
0.01162852002753495
-0.02177468766862447
-0.004519437590855462
-0.03305552306473496
-0.04987569112105067
0.023759082199923547
0.008808403332064051
0.01547295356869522
0.034644619776310275
-0.029056008920420755
-0.003157522493726493
-0.013427594876770664
0.006598276573235345
0.020331973834979093
0.013190483587769301
0.0008244862639683434
0.024149320860237307
-0.0017331651696061664
0.07802572269371039
-0.028377528725385927
-0.03416345398612811
0.08415761421306794
-0.008780699668553146
-0.0265261819258675
-0.02606382767965199
0.004466569484100854
0.010193773304100245
-0.018929077758812918
-0.023235602070039215
-0.015430019806813435
-0.018356502630417156
0.029189912249879574
-0.011435915180639324
0.012945063494132214
0.014286078672487927
-0.011809769276148274
-0.02495446631611067
0.013642928412681034
0.020404891906003392
-0.021062487661876666
0.0032130158906794326
-0.00871245501651603
-0.09351467151525325
0.016222222641991375
0.026843714023586793
-0.0019021023704388124
0.0015381321782907773
0.010284853404662023
-0.01244001922502987
-0.01707846119342705
-0.011893061363560699
-0.003881268765824186
0.0870878395623451
-0.003456413933355676
-0.016515695685650346
0.02841868042077922
-0.005696644648813044
-0.014136914121921935
-0.026841416701399716
-0.02448139887262517
0.00174956063563225
0.007297521779658472
0.006978940632776823
0.01111730602722713
0.052907281426687804
0.012123721608759361
-0.03811867023710657
-0.019452893491814796
0.0012815301499262371
-0.005378129603939598
0.002966909343206424
0.0018702349227720139
0.0007961829747072854
-0.045232452890580484
-0.10735662686404455
-0.03393198514420071
0.0038947110347454634
-0.016599095180882872
0.013896651711420918
0.03113201064332374
0.0264469249455193
-0.026629595439078217
0.05675638457440496
0.040652509671102975
-0.05341717310065068
0.03487624347855164
0.022373270148429606
-0.015816226038880492
0.1169408033413415
0.03867898143277242
0.01696035747188981
-0.028625984287171717
-0.03903315348156548
0.009081948763898832
0.009715426452433657
-0.01096390273612054
-0.010070337098826742
0.028357436700187227
-0.030980458976341944
0.021490194048589737
-0.014272081248959515
-0.06675609316407233
0.017561772676725308
0.007029917847901785
0.021571653100576106
0.15106349552495973
-0.03105905186733226
0.026006218764773985
0.016702202857455113
-0.05798547456535242
-0.05545538983529055
-0.006754381800350232
-0.02891667656715212
-0.017797681995650436
-0.023800606925239064
0.010805198774049233
0.03602421668137564
-0.045987814673346304
0.08715564137957217
0.1283090510642181
-0.04021176244866784
-0.040518946325038885
-0.04825725783471592
-0.010970255662255993
0.02661954688531287
-0.007022116219750109
-0.031783089603044296
0.028912009982482584
0.00020296587087897396
0.017182536938162546
-0.008426151746902647
-0.03300955190465803
-0.04831784143176182
0.033126190309043575
-0.08818835653307786
-0.11674850571991725
-0.002692254850282762
0.034988273332718936
0.03777682477631321
-0.018832969284033493
-0.030336239852423546
-0.009880047670320118
-0.022313612391225944
0.01829927329981756
0.010583006292300936
-0.02154534467022429
0.01510354777724191
-0.0032440035320266216
0.02229463702971494
0.021421018155467608
-0.006740675251764847
0.07163491102293966
0.0762366275019943
0.06857502773692903
0.03330966456591661
0.0016235679445053286
0.023138855505073355
-0.016929716571940572
-0.027657638100315306
-0.026375742727911516
-0.013466760292048682
-0.006882376223310027
0.03269445478441765
-0.017374745047322143
-0.03119265903790001
-0.009950658627844739
0.0662243142155029
0.027319267059243032
0.01934181651888211
0.0006233768829382811
-0.005294980345718078
0.022764550371289043
-0.07072077400863083
0.009933785040462986
-0.04360252648502483
0.012258097606400174
0.00836188855316993
0.007990679632178687
0.0110795748070532
-0.02181610147278099
-0.10618481563868229
-0.0613245866837878
0.006906966486665792
-0.031566773831700236
0.03997400840156332
0.023588954154162418
-0.007093528688219969
-0.008654657345924643
0.020596343397038298
0.017639526924450675
-0.003418698799276297
0.025975341934782657
0.01093639442261014
-0.041036240062425074
0.03187769501557519
-0.0013725335936596644
-0.0760780113417363
-0.05082102849808321
-0.008050247818977995
-0.0024547506825841384
0.01567156178360571
0.02272766684369714
0.001252876886968852
-0.006910372216219394
-0.01100489038220775
-0.009999076406399934
0.0203025876087114
0.03564071216932325
0.06482574772172753
-0.011023310056306721
-0.01626505022320014
-0.0023216185913058785
-0.023410607194129147
-0.018249048919390873
0.015060829555230517
-0.03548177447074052
0.0011439308346253678
-0.03303478003698459
0.0433404562569715
0.04884275143567228
0.006134079032680163
-0.01958077172809022
-0.03594290821732601
0.03685996890789398
0.15099579171722471
0.0019611369814559214
-0.029975002367544246
0.004802797522699935
0.000327455332316117
0.003960690241035013
0.01816335845214453
0.027920607685836075
0.0011747580221321671
0.03345411819968606
-0.039843286118608254
-0.004812266417050573
-0.01478479693546832
0.011739316273648371
-0.0007249745441402539
0.028773482200928666
-0.03890139298383355
-0.11623420910116081
0.04376853339948268
0.012962075108840359
0.0008760268468656139
-0.036679345268281975
-0.003751121489337032
0.01951030771758586
0.02338930250825796
0.028998203286600254
0.0002597652954633553
-0.014504853122017073
-0.002445967527645295
-0.04824264504751105
0.06670095505257535
0.005019088322104728
0.023323196617830742
0.07811189358655513
0.043695142393706206
-0.008097543913734361
-0.02778514348658439
-0.14085645658225654
-0.10685695763331436
0.0863552200747017
0.11832178828612537
0.008557943140929622
-0.0615099283765914
-0.05819041726742452
0.01642521946557835
0.02437390524311446
0.05930242408475294
-0.03012197339838032
-0.124397668992818
-0.01711844512993627
-0.11622772261656664
0.0041263629990499475
-0.011197677835720558
-0.0064781749471036895
0.014673336346426013
-0.0018652566820183002
-0.0067155307951607774
-0.0023688984682509358
-0.00718418167955727
0.03728387767838971
-0.022048204271611905
0.0018781675290369146
0.029872321865335876
-0.021834383548082526
-0.03539339344635921
0.003907651177319006
0.013775851441945517
0.044598229092927454
0.06160526685568209
0.016567525546407166
-0.03383325148104937
-0.023581215236278735
0.0074243549408978685
0.0010569016114914986
0.03171631588331914
-0.006369359566076741
0.06071134706595736
0.0062510096320408355
-0.01234562661408999
0.015781240610971366
0.004005512672645831
0.032725143114548015
0.013888569931746203
0.031719713538590474
0.11263285596999338
-0.0591683553411171
-0.08509084580276807
0.008004584445002438
-0.017078846241342177
-0.008470808638217206
0.023631318836372987
0.016141151321380758
-0.012540270196187423
-0.0024181024333188657
0.0011490048566592736
-0.03778048132937235
-0.006629344567966323
-0.0237392852960978
-0.05227456869484221
-0.011039764405686533
0.005759699157431291
0.02486642408000353
0.03358606107338951
-0.041323521345785166
-0.01566242995560931
0.010724599254010196
0.00543199745687046
-0.03000852380919875
-0.0070278548205189115
0.02748448052420948
0.03985644716375776
0.004174317231527771
0.03990616336720727
0.05457812387685256
-0.0017812551081441573
0.012774576634929764
0.043479680017271136
0.01144183891344635
0.005475296316124149
-0.03574690923222475
-0.014148346276392233
0.018497530824646172
-0.044889336819709726
-0.029749205038376317
-0.034578415181029776
-0.012654178120548348
0.004988938672978035
0.02885197505237524
0.06975338007264242
-0.08371616468358958
-0.033790442475861535
0.050249282376002936
-0.0366798130382892
-0.030663759862236604
0.03580471914477828
-0.013097794323059929
-0.05147149311366454
-0.0145680038332908
0.02592951750126865
0.03775762216737736
-0.10971640623809238
0.025043927067192676
0.02169379114738645
-0.005541839760223773
-0.001959160626490005
0.004295218712126933
0.0060340929969782044
0.02841535508750635
0.027693599293160634
-0.021605353940944073
0.026824732935242433
0.014002761763649233
-0.015247440678558715
-0.016078527036977937
0.011988716283116084
-0.053762741417441015
-0.0708247956416795
0.012459521007381723
-0.00449534601893121
0.03346598701001271
0.011877456797776123
0.02808244761217645
0.024738732888256256
0.017867372333691612
-0.008733729818162311
0.014197250926777054
-0.001990067087804108
0.007807644352179296
0.014608451793374376
0.022336471800730076
0.005476160519913749
0.014546651830442715
-0.01649232142076855
0.0007493572153401172
0.0666024631316484
0.009473478442516099
-0.02844052361068539
-0.008326933909875215
-0.023252640915677653
0.002709634179369373
-0.011355271604211074
0.027921535791286527
0.02763382905230537
0.01784006288959117
-0.01748220716411014
0.0200360687652289
0.0743394376174339
0.003960781148199
0.0042840749967615775
-0.008050378322786647
0.04797907059914216
-0.09119540563173598
-0.20069045068391891
0.02362024503377323
-0.025200744834785162
0.0524855158178443
-0.07705330210650123
-0.12470126078542414
0.004533762217701407
0.011235297045160485
0.03195450490016538
-0.018409264468657455
0.0381168951896905
0.017437076276656326
0.014100777886576564
-0.00816411472463472
-0.014890989089866262
0.006314859728012737
-0.035974985633869944
0.015981596911512498
0.03185457160602648
-0.021846582411883766
0.011547442858445119
0.017999072951268777
-0.04414465284295937
0.04457521821124145
0.1836622433935374
-0.04188157910750548
0.0003722491422472728
-0.019486413196832336
0.029680423338610505
0.01754137087662601
0.015975772564952202
-0.05502701820676715
-0.07018003892359108
-0.004172542377774251
0.02181623921857508
0.03800440607874975
0.009042781562773806
-0.03255665869490766
0.022757293983455783
0.017937212889136998
0.045036195216868774
0.029171610836166897
-0.01012792131282472
-0.017745254375122484
0.003787570403974917
-0.016486801086755442
0.016184861088344733
-0.07973728953163106
-0.1037340576275998
0.06652247098982177
0.053904936854569006
-0.024421328092970592
0.006559529165734989
0.0004953015970199734
-0.023720402784679368
-0.08092154879365356
-0.03192288955285005
0.01613919190073019
0.031147398516009644
0.03873542050990721
-0.031157490762129966
-0.009376944440778232
0.02839770687630797
0.035754208073978555
0.007908721382408194
0.0010967072687879174
-0.03987111516607485
-0.038478096315566035
-0.028254739402162766
0.0024598913604225244
0.0046613892294236296
-0.016788842090730404
-0.020217133244446253
-0.006126890223183429
0.03642087533836605
0.052617176007403774
-0.00460955957292378
0.01325128204553764
0.007392700151911626
-0.01560934687818122
-0.015951631031979826
0.0011466399350479912
0.054949904134003934
0.041202801620118676
-0.0538213467767547
0.06620457373636549
0.05739215542287131
-0.02231526514960136
0.027683502778197273
0.058763733042769266
-0.04269022289200466
0.027169524567701917
0.009166892591765893
-0.09442097748156482
-0.060833115827324445
0.03158964697313458
0.05669356577961424
0.0700833610732723
-0.012794531630698791
0.06730866971524226
0.009858147425175167
0.049795848998914774
0.024540730511379786
0.01760057822258837
-0.14072643415177594
-0.06969639542299344
0.07174355615552264
-0.02915429544584426
0.0027411752483618252
-0.007155119598660096
-0.018075226032688844
-0.030735800713972986
0.02868474988470842
0.013071792332319806
0.0265924194952759
-0.028581669974366758
0.023653734367317214
0.009350101808505684
0.012768998970261125
-0.0408827529437705
-0.027255673456527543
-0.23948526351721489
-0.10483167519738731
0.05456420137580755
-0.016762716523438886
-0.02226085333018063
0.040513446564045714
0.021000362013190516
0.019211658355651876
0.021404536556405323
0.04508041969426886
-0.01939413605906016
-0.004449360675249136
0.04285391322947366
0.0173434391710647
0.008287040965905584
-0.04107089215374358
-0.007171689927025297
-0.057909569903403145
0.03025973066747467
-0.03282536101906024
-0.0017557269697696073
-0.0003878610904825129
0.0311724137763201
0.051313960150141676
0.0024316989962871473
