0
0.016985783155463247
0.07682482059324929
0.017774428208486664
0.048977942362108146
0.03240384790454109
0.0035230233883080738
0.021804804082580002
-0.029430018886089006
-0.012044568589549708
-0.07357978169930164
-0.17535405254430989
0.0019621721474869305
0.0097264729847557
0.0008440641282609675
0.025915138846177438
-0.021805328061655062
-0.017620934500851792
-0.02257071439512512
-0.03532924029743222
0.016490654058954803
0.011281719873513053
0.016000913445365587
0.013974624558202399
0.01812571378744362
-0.00514278240662057
-0.015556054352060058
-0.00592452042273606
0.0532204677273497
0.024571947130738497
-0.019321577335047004
0.038271965366598465
0.04033413991546352
0.005494217669153583
0.028362701046958847
-0.016971557114659815
-0.004665808481170777
-0.035085123668994626
-0.06347135614007442
0.006914966720447115
0.022433142161599924
0.01538878779703154
-0.007494745842761819
0.01744521764570569
0.040625015331999165
-0.023631796691519203
-0.005864943611422716
0.029929153761519278
-0.009056314589220803
-0.0178197799739174
-0.009279364999970804
-0.02679788164497574
0.01913857784814164
0.021672661811688306
-0.023309714545189496
0.001601912899249318
0.053487575653008726
-0.002551328623931849
-0.029022973675372064
0.015398565501515618
0.023593092484649972
-0.03290610654205583
0.004203437214051401
-0.01478310045892794
-0.025902854148450907
0.027944876698060995
-0.022621787602057214
-0.02611234104677097
-0.015431399273878963
0.030381067342030284
-0.012453083536554936
0.018947082728105184
-0.009299564850262848
-0.03329079183370149
-0.025461000120703885
0.009511382431640559
0.03350180547689819
0.006097679758267903
0.02559052186477261
0.02189835269182001
-0.016540182777048933
0.01973607628169185
0.06591380152978668
-0.003625277634344687
-0.07084723322461907
0.019482146762886
0.016239577901307266
-0.006700397917236879
0.04957144126857704
-0.04864897487036441
0.016512269084583326
-0.008152514438039922
-0.03779644728580516
-0.0003254132082966502
0.00044369909569353354
-0.06502290155417957
0.029602107909030638
0.06104040173594947
0.010737989553035475
0.02707431686733667
-0.05560552627788744
-0.0409383454162072
-0.003298858663882637
-3.9078812494727456e-06
0.04059742495923665
0.01936264091173911
0.008017446755832129
0.009229250421630579
0.006005880605744616
0.03544918773309766
0.00028371690216161727
0.033098993169408925
-0.023990163843681106
-0.029156242507585195
-0.04711282312977428
0.06887084443278405
0.07046537408921086
-0.061084477917884496
-0.021329320088650718
-0.005658413191696347
-0.0055581411520676015
0.018544687696958575
-0.026174920007464825
-0.03194816147448577
-0.018082144077462326
-0.031513379826408845
-0.05875588359635979
-0.012809597638339798
0.06169953348509034
-0.02024478613206816
0.034005095753999015
0.04232912690197779
-0.11740003655322227
-0.07103563929664955
0.06267230686599606
0.09080358211729589
-0.011703287856415933
-0.0052148267081663395
-0.02285443761807192
-0.04090785918400854
0.016384199052030472
-0.008698254150371402
-0.030067507985387834
0.060600076609519944
0.15256401566117198
-0.02415025038140212
0.0024534483208457115
-0.008940191187127465
0.0018296374814598655
-0.0326402543500291
-0.07073225998942419
-0.016048647300587027
0.046336532096093896
0.05293256817775737
-0.021548660955524504
-0.005478941196332403
-0.018389113086387614
-0.04863620980266096
-0.03360217538997608
0.02567214806834139
0.05926538503182904
-0.008921000962123372
0.02102370165163963
-0.003589328746922768
-0.03027845772792962
-0.014545643579387058
0.020279840252265632
0.0357899630656323
0.02085291602140196
-0.002119704729985615
-0.03404971514475669
0.014719313489181653
0.015388603911147422
0.029454468498527814
-0.0009442556357420381
-0.006796440896005112
-0.010697020205023824
0.022207473157142246
0.02782635016128474
0.011943519501416278
0.013654857122693128
0.00496875685490404
-0.004680821089781653
-0.013643605058299948
-0.0009845268568317727
-0.012777698811800657
0.09073318887269491
0.011303307395842522
0.047038828504504124
-0.12427966119205326
-0.14438952526049886
0.0090897155741008
-0.0023438569153775356
0.0027238126224416164
-0.008220058836893633
0.017074256997627057
0.007393119859597051
-0.0020629170089967322
0.011447987590644554
-0.002365112290299078
-0.008705165930273089
-0.005097822824016213
-0.06196054565347985
-0.009204001003283536
-0.006129258832782148
0.0008488703956860531
-0.014915024957188177
0.013756041838460974
-0.0003948114055820467
0.006690417858139245
0.004485574973685496
0.026445090140802992
0.02686497013614659
0.011985369495848884
0.007189831343666419
0.012088690449163235
0.021021917611005924
-0.006616135903461277
0.023005230381374052
0.01309503047183207
0.0020392680101594357
-0.02519529014867211
0.028080596110299855
-0.011605167695940494
-0.041231492107372814
-0.0005806444778284507
0.06631478034310029
-0.004018156529936458
-0.02189073161116648
-0.0015902324523684249
-0.06314436267400514
-0.051910025394418885
-0.01941233939853179
0.004947839057404128
-0.006722516871577738
0.003273719896280506
-0.0909872377077432
-0.07979597545539534
0.02433571486468655
-0.009115375657767254
0.07125382476353431
0.05099244543829457
0.0009554545854109393
0.002678615814341205
-0.016880818502443964
0.048074385739379395
-0.002853452679663761
0.009583849800585898
-0.055492889582392416
-0.04332842306979663
0.03610930525477237
0.030148091715001605
0.046703261229911024
0.051828442245717206
0.011381144695455316
0.00833042281708207
0.005566776571438108
0.006647686944576308
0.13374553532455397
0.06879624876351235
-0.01157831512486242
-0.02868268886653767
-0.01593427958200616
0.018104062854681222
0.004429639884782202
-0.0033481027654812096
-0.014611914348082409
0.004350017842299693
-0.031112185732075227
0.0013240275863487536
-0.10511066606724458
0.028558658997285997
-0.03897239309264719
-0.047134708802247224
0.06524849288320514
-0.05590798090269598
-0.11004802474379789
-0.015700206861994973
0.013301702735178353
0.04536187195994125
0.01919735610221943
0.011544727651460009
-0.006970213289490443
0.01586115652563602
-0.022193814422544644
-0.03818827931958259
0.042479172886848264
0.007383366785371825
-0.011725899930816623
0.011858291911037207
0.053091056587188185
0.0036789509070319325
0.028702173950733288
-0.042780139779496296
0.007469153038436184
0.03470292247465896
-0.005911080862450523
0.0049371774957031635
-0.005180064773141749
-0.05610626889278406
0.0916431402630481
0.014147368350254434
-0.03140188931283262
-0.019492716346014818
-0.006205923150752026
-0.015094528867673453
-0.03523723560947522
-0.004851773750543942
-0.001665856719330514
0.004981017230379129
-0.026029755127678376
-0.009950037454664558
0.029384387151367524
0.0836489055000899
0.004103725208688504
0.03053646695016033
-0.03552157426214245
-0.02792576220107885
0.04525425730018808
-0.04978807250545217
-0.018367090122289362
-0.011242830070023161
-0.007147496787878947
-0.041500888871708046
-0.011822304267073145
-0.05525801753923606
-0.021516316973612545
0.01712725569015222
-0.01878796992246791
0.018848691227772087
-0.00835732158566733
-0.012991923213761476
-0.012989380156555711
-0.03486061154282303
0.017244289346988597
0.06275408199899395
0.0788593665596696
0.024455577438629746
0.03932855983859802
-0.01669321477997609
-0.059506016380743126
0.05190747584931646
0.020158409799018565
-0.011193993841306996
0.0016839787941545733
0.04036614218636057
0.03646543266369981
0.03237225270304038
0.002239745015061684
0.016953806147665878
-0.03074731051436581
-0.013116530721572858
-0.03179835254166399
0.026070552216422807
0.01975372148114647
-0.02845880979253258
-0.006421006715907523
-0.013514249977999514
0.041541851786190284
-0.0010719068128693466
-0.03504924277438074
-0.027826166626668397
-0.02690667249915865
0.003776236828733461
0.01152512125065089
0.0035682052975173923
-0.034175745245388724
-0.03149743058600068
-0.028500905726848196
0.03687513983842067
-0.0136388386800255
-0.08254312923128436
0.07632562890916823
0.016030675950264726
-0.010252380755358177
-0.006139147015226035
0.012119754514226456
0.025497894797119863
0.0177605305580387
-0.0006428497128043696
0.046165590944451024
0.024793380448759346
-0.005585175442817142
-0.007903769107689206
-0.004528104657927651
-0.02124913642554139
-0.0012817188184267372
0.041193823921086455
-0.05359515035994347
-0.06608679006890852
-0.00942902709525821
-0.023212439964443027
0.0598526591605842
0.04532312553339791
0.012104618832998118
-0.010546648377506533
-0.017172913713703514
-0.027040936991070907
0.08327361204388
0.02689966197016834
-0.015047342843831996
0.0006794312134597275
-0.02915965896668343
-0.01130828119211395
0.025606802626950285
-0.04466687125446523
-0.12393587887891469
0.042812007901167806
0.010659636615029913
0.0004245413883684591
-0.018329523630893914
-0.03225217199471868
-0.01266062445062087
-0.030754305547416837
0.007181440154949073
0.04288388840439691
-0.019905136918180244
0.03652172248269125
0.02852570967128347
0.01781538553708712
0.0071948020438879386
0.009438131619454209
0.01132192107276297
0.02320620408630435
0.019018464178502715
-0.03963340716481747
-0.040675812606422536
-0.0017873605254750905
-0.019314408577995417
0.011478897136039034
-0.023721676314427623
0.006139454994798326
-0.03432929324755984
-0.03253930979429886
0.0031458028898580007
0.0008230791886418133
-0.028232072658554232
0.0030876950337473874
-0.01266620067668694
0.06320700843025756
0.010376670428219645
-0.028820339027655743
-0.03595403697393096
0.018636742557629333
0.024469697932725007
0.10592318978611853
0.14018049309076736
-0.03636223251377645
0.0009168353999323582
0.007704230598605485
0.034082849158069556
0.04919496426044336
0.007119816865391206
0.021535787557344192
0.048435312659154066
0.00356626334244391
-0.040640435570675336
0.004767244327150083
0.014702677174136848
0.02367491869131182
0.012204026502382278
0.02415549373149152
-0.19274820598213027
-0.1428025780690513
0.04192797325259604
0.03649793830189461
-0.011571492762856636
-0.013179846269636438
-0.017512055566576153
0.04822298474709617
-0.07882170360911712
-0.05954667163734848
-0.010139265965942073
-0.0022138579461692997
0.023579319496801865
-0.02528581874381806
-0.0160045937216962
0.013802365714636777
0.016072338994577294
0.026397111837360147
0.005879149060182302
0.000876369391550968
0.015230831350679465
-0.010262208613976559
0.027394450980570934
0.03413989447578218
0.015510445974122804
-0.0752307627017399
-0.1227942945638161
0.08353274858432305
-0.03849316713595573
-0.03123716799924657
-0.006504259512210668
-0.026458772289312725
0.09319564221730764
0.023182792919806326
0.0073768860390334345
0.04938536186544932
0.08761959328552106
-0.010841383611732517
-0.06135846697930162
0.012858271852224507
0.01571834585418461
-0.05353349598783086
0.033476147104397135
0.0029406616102827196
-0.015901705110441613
-0.015885634368031747
0.026074900735727977
0.009284509839445697
-0.006210032388644299
0.0040807238611286455
-0.01245415338388989
-0.007861005189372475
0.09781391699983483
0.03769002818219521
-0.05320440741796822
-0.01421885533922748
0.015814116030910014
0.045196916176230145
0.08149032138681934
-0.04552923683539328
-0.09928090085176294
0.049221658893914194
0.0037655599610044417
-0.003204342874935024
-0.01330849960679958
-0.01329802032082378
-0.15068254463313563
-0.1285382231155849
0.05067798700401466
-0.0003973064374220959
-0.026702195181060265
-0.03327637553298035
0.015949948624602896
0.023072091150551834
0.0013272648920856277
0.020993786856891263
0.0011254355647379768
-0.008388438939582805
0.18528637592781427
0.020392873338562736
0.007817868894371983
0.01403839214856851
0.018185975459290758
0.010416957418291708
-0.012802039428961676
-0.00886425158747244
-0.09776763967029835
-0.12340372071189538
0.010079472695607302
-0.019939789400364224
-0.005219512304805648
-0.00817612191037904
-0.000513916117275962
-0.024779299568964373
0.058106612242008394
0.024740920036101913
0.0035566393355941795
0.037316027166716746
0.04387435539907681
0.011086883669869868
0.022056140322366285
0.011177733503104388
-0.01442491466626414
-0.006048362234974433
0.04800483667884704
-0.0005318616224410517
-0.009618006450162078
-0.013412559465660317
0.022380514286263996
0.0363213208233213
0.0012689115518214028
-0.009159697705347237
-0.03426962299104699
-0.010136430233269935
0.004124030925534265
0.016270696404302332
0.009627100270252905
0.028356981011474953
-0.006539942087405291
0.011938120078385604
-0.010040298170590522
-0.010760478930627714
-0.005972294572224872
-0.0011394834989867236
-0.008647788859894057
-0.03048171889224494
0.04175854343031293
0.015889493136116997
-0.047020799887513495
-0.010041137716725145
-0.0465598520362307
-0.07031005235270461
-0.023315545698832544
0.016669460130097943
0.018818130741978873
0.05170010955245103
-0.008348420441130228
-0.00790332823960203
0.0033236895242788884
-0.01975167941073931
0.042475862904453966
0.001949917052388999
0.002648211508178283
0.00942360552133799
-0.006316429712906368
0.018408881337369492
-0.0650573679322745
0.015074090262022652
0.03435451928425627
0.0042086194334008805
0.02075740968201767
-0.028116041326966917
-0.004120499561549573
-0.008924042397834299
-0.003698059626345941
0.015416664403909939
0.0025030936945933243
-0.014056251740768475
-0.026591745386792296
0.007769983423798706
0.0468538069034103
0.021682660393782662
-0.008615633809531868
-0.0036626358998073563
0.0029601595875357965
-0.008745318678234984
-0.1042952921809285
0.027117421486154883
-0.0017569840102103326
0.0705938566496657
0.048169342703119254
-0.036622295887557964
-0.009894180912561817
-0.014297103302333318
0.027124691375096474
-0.03571126891635159
0.03515729524851798
-0.012471911008353275
0.0244749751251939
0.012776496036226666
0.020730657050154446
-0.021810613794116602
-0.003914793728079605
-0.0884226102494582
-0.07222266738521235
-0.013067525258802276
0.008903086233774492
-0.03744272281662363
-0.010261772724488086
0.01122102306794528
-0.03058625287950321
-0.01672891656845853
-0.01732734742325165
-0.015480013874019006
0.1264656519672762
0.20133823264066958
0.0811349835219338
0.005143705488659725
-0.008221548002095468
-0.022389453371170376
-0.029365897174407577
-0.015981888075011257
-0.014162702464971812
0.008393084920400053
-0.023566441015314302
-0.03232085731816657
0.07919333086135638
-0.08529102060541982
-0.05932187763501366
-0.005775794043652148
-0.020317497025380334
-0.0057347476243352164
-0.10693407832700108
-0.009529664096198563
0.012446836589509987
-0.002180069001125875
-0.03254363718477816
-0.016398650138907428
0.19548616068692867
0.05263113377593875
-0.020411813812313957
-0.030314787884119985
-0.0009295068662328412
0.025468097416376036
-0.0017333908905291205
-0.05832838443629878
0.0738490043707838
0.08656929992772888
-0.05918074013819381
0.010487298208382647
-0.028298054789170277
0.027920184830710567
0.10536353950612899
-0.07034368511722999
-0.02003555892732453
-0.002558234158177013
-0.028251744996432664
-0.02413861407859997
-0.08422351410119415
0.12582240248783602
0.11197091146785125
-0.03108665986741719
0.02379146121612213
-0.0458232384923949
-0.012959644101136347
-0.07793994752754632
-0.05458722183371718
0.04354850114813359
0.02724397959601733
-0.031800521670194246
0.02232588096999526
0.03586271233595371
-0.03301663066277824
-0.02006721184494267
0.014278349498476233
0.012093611831327926
-0.005511522364447186
-0.005632760755214247
-0.003387057504146514
-0.08693936339595748
-0.04045291302055847
0.03527278970808317
-0.05646730767028061
0.005706931617074192
0.0010203426440424702
0.014394158250568181
0.033942050369542065
0.004692793081848814
-0.00497142070120255
0.03011865209345855
-0.020909968266760892
-0.004532638927426617
-0.04619663680169657
0.024972354392079177
-0.01866481382135297
0.0027545433410422586
0.010726988615662318
0.04280606067364511
0.06355693406818272
-0.00359636408116129
-0.010129721113768782
0.009371120264710197
-0.024002293537294987
0.02192177305131947
0.01640361347031128
-0.022279431006568637
0.00046067927466898447
-0.01503130767318668
0.013799903322880254
0.029460372907727694
-0.012569667993319558
-0.02507995847913866
-0.004080428401873173
0.026525183561900888
-0.02997447561413955
-0.05713597017715934
0.020557673043174175
-0.04742522966175457
-0.002662493749274855
-0.017604429839625593
0.09942016613249477
-0.02924637091014387
-0.017352251363406655
0.01848770648086621
0.047584518454310804
-0.0021635988386505445
0.012205373499935475
-0.03351764219981934
0.032656640406048695
0.131672766752351
-0.035992789986190356
-0.06113904041291025
0.01838714282557652
-0.01869164555284903
-0.021645350887119396
0.00011962747102631879
-0.0027113057352696696
-0.02776713660111467
0.01536661468396157
0.03492833208292575
-0.019958020024580074
0.01227841770034675
-0.04818285320380986
0.0017885123375760358
0.011735034290950736
-0.01009166897111447
-0.04586265471766068
-0.010745819115074204
-0.020742153003416607
-0.034074046565835195
-0.03857825801244544
0.026217616800594718
-0.017756512330430407
-0.00347941094660189
0.03212879982044379
-0.01466977080108175
0.025458716444698562
0.046418947172900946
-0.008803096604099192
0.03347132936962831
-0.022356770080949218
0.007556830343324766
0.09367277096865886
0.004007163605298085
0.014514105303733616
0.003957485357051686
0.004035665827119306
0.02801998021304831
0.0054916773163821205
0.010937672722515324
-0.017893814399835634
-0.033319977948579015
0.034791370041695906
-0.01264039170815939
0.033838590001111064
0.019336420838420645
-0.030060352177692543
-0.04021079581922707
-0.023819182611145552
-0.022032197624108133
0.02060884030587361
0.04978140869218558
0.02660399232679906
0.025923764040823236
-0.027435579064810957
-0.01565548571072991
0.005751972625767132
0.024866415956739666
0.04237180850357473
-0.05468525548207493
-0.04316394097453128
0.01620856650967275
0.03895027909283956
0.00863541653203609
-0.004474451250119142
0.052418479594711034
0.03132574321418886
-0.01943221110331018
-0.00812638515415262
-0.01769492413446968
0.03531360745348129
-0.13455277997395082
-0.07595319615803414
0.08663409945478645
-0.12714989061665116
-0.019874166697894095
-0.014214396911764725
-0.030471302672647357
-0.026683857471458513
-0.0011747598841707382
-0.025395773810422677
-0.15105128174695262
-0.012108641373562374
0.010056112468279739
-1.6679396271571167e-05
-0.0002638723618757391
0.0074609342838939715
0.006559880562735046
0.021651391312760726
-0.0035272706049973217
-0.001999399431118415
-0.031257931633376035
0.025187903370540696
-0.013374232654280059
0.09054392064352598
0.1595798333310048
0.023624676904008178
-0.0163066896447225
-0.001223802309297423
0.015453565976425668
-0.013722460190613761
-0.0027921954831365923
-0.03247137384710862
0.035204708154853694
0.0184870413931367
0.006892896534551647
0.01435899944136103
0.014610291485297498
0.02960083989642905
0.04736710829492642
-0.010438047712372653
0.1108195806814265
0.04049490506060098
-0.0847049395115376
-0.006763374345176851
-0.030552014955919936
-0.0006341160709174822
-0.021063070108940325
-0.03175692832272098
-0.016082264889704368
-0.020254082703708574
-0.032036552445212675
0.02704788077764323
0.03444277598605053
0.017676851465206627
-0.005983167358121873
-0.012433646882062862
-0.02976157233191239
-0.037754813258800354
-0.0003348272510937916
-0.01209291047273005
0.04696560388723903
-0.005560697212030959
-0.004644695924244012
0.03248566466336896
-0.02987470804761801
-0.024263178363043564
-0.027262426436953747
-0.03174642580717822
-0.02316933022286357
0.024803810622722546
0.02332530136659293
0.0004996804249827001
-0.04698735084474604
0.09660530292885511
0.08439833172877928
-0.048721238967897186
0.015631432678913905
-0.022054559358541063
0.037372706065561166
0.013143581131379825
0.0032829059762704317
0.02459546736294356
0.039442952430130455
-0.0764765157223089
-0.008611174022843128
0.008491554236963414
-0.0024237919721187147
-0.003168467706945075
0.0028269841573852115
-0.009892724023870977
0.006144535934437667
-0.0154710811773314
0.02838616407199689
-0.010411695639630502
-0.02661712211501738
0.034666100732581105
-0.1233567742592054
-0.10538075270615073
0.05066015664408937
-0.08023686863894808
-0.03399586191765092
0.019275011926329338
0.003606455151652919
-0.019892985472024366
0.007401596415871188
0.008160663935560858
0.008870049056666456
-0.04059665952609724
0.13363165962995285
0.11635620145236505
-0.034434723663854035
0.026950277607724917
0.0528435712114961
-0.006476601186935857
0.07518608666590404
0.01969215212783076
-0.06911732281241266
0.011810579168208093
-0.02916701449982727
0.05412934442351291
-0.003480235230200597
-0.023668909111011438
-0.029373658314776795
-0.03641008134066707
-0.00710904887589066
0.023202007181916912
0.04008741629880946
-0.0038920938683973862
-0.01669385846595975
0.0010730501814105223
-0.005843492278711622
-0.0028901624717729544
0.010169811009714185
0.05011193728609228
0.033557701431109734
0.00444175281268479
-0.001074867511077862
-0.058327250256933534
-0.011307257839354852
-0.06532716181822958
-0.13948243775790886
0.03528152414575355
-0.004390802153674858
-0.003092594770523198
0.03314937531533933
0.01430705954268475
-0.00978400462446808
-0.0207556974183444
-0.012202300332207537
-0.003278245480492455
-0.021922973320128294
0.02319196802055989
0.0757210040203399
-0.011127255067938796
-0.0033574982280294204
-0.009342310948505886
-0.029369610056971713
0.0038438114355812602
0.0390756210922154
-0.016515408231186666
0.02443971060302387
0.0076842395276451175
0.002045091564317313
0.025147313366729134
-0.009740392418158886
0.0017912001211727404
0.010811131702530162
0.0014540170191887866
0.010021953879590203
-0.02779667141542228
-0.03703154925161369
0.004977494558358867
-0.017100517481067657
0.017667056517904147
0.037568007004277544
0.07888086421792924
0.027362741922298768
0.0345671837931738
-0.0024666874281356597
0.026567445414920517
-0.025628501276920474
-0.12507482591493546
-0.07618751574734639
0.014818317985684061
0.0025156486496760236
0.005788106746166621
0.011407420773942616
0.009099374593013354
-0.006275362686438092
0.03327452559068866
0.018772508066852735
-0.008089859283054873
0.015807989618414925
0.036520916986086706
0.005092186591498345
-0.05989720472633196
0.014367125107242572
-0.01358629752785611
-0.0039008062415911873
0.05077756348830885
-0.017108263310572826
-0.039534621576155934
-0.007912651080044514
-0.04844657602835215
-0.1142733880248483
-0.03191710459846779
0.0699413879213598
0.030813455411673338
0.07376057798547868
-0.08054063774809628
-0.0044984918950972405
0.0454206537690475
0.008112977816361524
-0.01960631902039159
0.03842395160787697
0.09492135972879406
-0.01057798507852904
-0.07541387073656311
0.02020951051459411
-0.02234237559219565
0.0015240983827341354
-0.012619520285177164
-0.006632542893206944
0.0061562978172490955
0.03490349022573795
0.015542020058483529
-0.009496122137995763
-0.024286709454027805
-0.0006628348754536647
-0.026396645942193542
-0.011108755424517502
0.01718222384887008
-0.009688936899249082
-0.044163407556008734
-0.011503505567352563
0.06941618673515493
0.04234494383592893
-0.05785543352640195
-0.03083594426794335
-0.008205875831735916
0.07871022518641689
0.044683628665714265
-0.003114968875867213
-0.005954545903002193
0.02281838295074792
-6.531435660813483e-06
-0.003764461845295442
-0.00836147632993079
-0.005598228144275806
-0.011734143824029177
-0.0772051479627103
0.02916191340207968
0.0345153785755903
-0.044432205038703196
-0.0023412536135533
-0.009574779122494015
-0.000920900037792218
-0.03314503501764658
-0.02722487468894283
0.001152359032901571
0.0034593117330054793
0.0622585076484808
0.047289685831143013
-0.05512157964057426
0.004445379122621314
-0.01970694723816481
0.07181560077304706
0.04355673959395266
-0.013917442092571591
0.01288235624064927
0.06021687568676889
-0.007074438365455265
-0.006303108491876986
-0.014888020049653974
0.011333899214385091
-0.023317789384221212
-0.027750462648458242
-0.0029499272363624554
-0.037247655654432596
-0.04512793718617917
-0.003997840124120892
-0.0809973401240242
-0.04807013919333416
0.07149700057382
-0.009096733658915107
-0.030333108626600935
0.041924557386004827
0.12944081434960442
-0.015851662254013247
0.006157556369931508
0.0012548089747811471
0.004687020213071591
-0.002292859265891917
0.003606231205801403
-0.013945260608559211
-0.014948171151078164
-0.029076451547274437
-0.03713308172775105
-0.02788266979989089
-0.017391934020727078
0.1301984518463473
0.07293517078404577
0.03688051996486969
-0.03710176937216673
0.012229760554134142
0.02472736094429031
-0.0381319682923768
-0.022748459747664363
0.02927927493744846
-0.01004324171370628
-0.040910911941930604
-0.05877272761881251
-0.030210927751526725
-0.018798277540244483
0.025528729788412807
0.0035025676237513195
-0.02884396677223523
0.001453888418620464
0.05619435622134537
0.06627204548568465
0.011087172368342035
-0.007273453866160678
0.025130135971187326
-0.011211328955464612
-0.022781484403721797
0.003690371619604347
0.0006005248814996446
0.0243990286378884
0.002559912998167104
-0.01988803410731371
0.010187751832413239
-0.010500758837636327
0.01046313440833592
0.01766156613494595
-0.0369393997337332
-0.007848384678928066
0.0014963549457616394
0.015762171262275988
0.023565346634299066
0.025231611588653727
0.02741266176141508
-0.026018950513339825
-0.04196624343397769
-0.03476417670423285
-0.04240931108069015
-0.005628295822639846
0.010039895546307572
-0.0642983348044602
-0.13558644483017482
0.05455458181972983
0.025949642349473976
0.0002779509940888046
-0.020807441474557615
-0.010790923244914236
0.04436981271738071
0.003789231110279399
0.002580856132336283
0.02540375283245436
0.006653972199961717
0.006194677617706688
-0.0018760851709007042
0.03426039067155058
-0.02053401153080987
-0.020004128408095612
0.01163546491882748
0.027476584762821853
0.011666464761108884
0.027627825878593675
0.032518886375031635
-0.007495357425068975
-0.029958328360977792
0.04408352839241434
-0.05691945470867748
-0.01144675000704994
0.004871626216360064
0.02404370072215904
0.02292248021509215
-0.04179982292045508
-0.03379915880405127
-0.0326525430685972
-0.07002215588185663
0.009239595091443464
0.017272153861365595
0.008555100863534946
0.03033838928304868
-0.011158704738389893
0.0226539605510947
0.037977660516239596
-0.025064574011011354
-0.00014856708068608593
0.014753601164537555
0.019065282370881495
-0.005147285243457242
-0.014623755945851566
-0.024937032459174963
0.05590375649316245
-0.06928191239422275
0.040779529692051
0.08361162550656737
0.012358804822094808
0.008554191522792244
0.011302851772037882
-0.00043463049620358335
-0.01962252703974951
-0.011354721972436074
0.031840313859853774
0.0045358882853687235
0.020455213796953857
0.01931999153783564
0.02869525049907157
-0.07466833602271684
0.041959032107134295
0.057099887217052815
0.014826386852177862
-0.02182835176585995
0.01433616641144227
-0.04332212153196626
0.013663416371743984
-0.14340087667810522
-0.06185084801044676
0.07473364026751617
-0.026222270461094564
-0.007599733988213137
0.006084626591676826
0.0181548514853013
0.022284665107206985
0.0006870394094112133
-0.010103785328536495
-0.04021819044509908
-0.0017912479554127393
-0.00793944338679494
-0.023732982224937655
-0.011171521023627371
-0.015750032792218628
0.015852001735769547
0.014400888506895141
-0.021169425756909287
-0.0024315593722451802
-0.022914814691892486
0.03679741907340493
-0.005973427050912657
0.021054953701040612
-0.03012699201905482
0.03884036618561158
0.06138125087839565
-0.03352340825297561
-0.008369636010115833
-0.02902585070674589
-0.007173377045405399
-0.03125361388567829
0.0005009939191420249
0.03130385631177769
-0.02070580275126115
-0.020243660334149715
-0.018802804629983207
0.023218711717815442
0.0245450601658018
-0.020152903776790198
-0.009396809144633162
-0.02318805964742013
-0.025225706826779035
0.04835116562821773
-0.00031196844552187745
0.01824000599420352
0.01620392754643514
0.03332549089973865
-0.020705547220353025
0.07058917722791462
0.06446407747755377
0.03858803740406937
0.03349861610577983
-0.029385964006322464
-0.013394391724027087
-0.041020554952387676
-0.003966400191922841
-0.0022949611912595163
-0.0020462043193912594
-0.029445473681472167
0.010943644585861513
0.02239408633726132
-0.015090330708360649
0.004193107117514108
-0.03402569741363742
0.00026499749440134777
-0.00875487157839167
0.030741908409416402
0.0025834568396692977
0.013158961139725086
-0.000995842891552165
-0.0401847952617986
-0.013442549609158841
0.0003976557537111679
0.007185214398785439
0.009440445295257048
-0.03243985974262324
-0.005455467446831052
-0.006838654543770404
-0.020633141742675904
-0.011022668456663182
0.009930466917324035
-0.01534761240129451
-0.054293697700495996
-0.010546497550656517
0.01143792272878218
0.006304640922295114
-0.006026645409454249
0.014074130214325685
0.0070566132416174645
0.0005084210178810232
0.11749245638769647
0.002556756726971611
-0.03165102192338117
-0.028347196178136094
0.0036881911996776012
-0.015909883868091383
0.04187780665822006
0.028932021915606856
-0.005625484157369536
0.00945937706494727
-0.006675262636939486
-0.02285770539816374
-0.0008526504933645323
0.02287663273045302
-0.00041564737713764235
0.028540223870796327
0.0056120215676422015
0.023952152909161157
0.04143697252831414
-0.007413490225507981
-0.05088544226184864
-0.017544368732687072
-0.1509930163143846
-0.051944732940099714
0.001146320205356164
-0.009170414539877882
-0.011213754005343572
0.03138778744537629
0.021564736236896934
0.0015941105371262093
-0.031430860622792225
0.003507468415154911
-0.003498848106618981
0.036594736349287296
0.021628113685939154
0.1493965330457061
0.0722681252109203
0.06713858078733416
0.011039732623157824
0.004341159824578983
-0.010163764900791107
0.02406747747712878
-0.006997055719785328
-0.09273885923783579
-0.0003522087529775973
0.007834048477739776
0.04575905867364605
0.07599100717194848
0.03917030816313282
0.029270126144368913
-0.0038775627090483393
0.022684789304598788
-0.07372872804231506
-0.2680277305002207
-0.1168966282441956
0.028951748126064023
0.025765442211838286
0.01207070330652726
0.028181055539152487
0.049655789975307514
-0.18304588964782098
-0.05636901131684814
-0.007475838764603006
-0.02872309035886088
0.07477131428788518
-0.03561463196387456
-0.048145346476593485
0.00973260435929204
0.01545480593292705
0.009176696210727836
0.013988621214270792
0.01607458272668705
0.022169929112590848
-0.01884220665872599
-0.0013731439044391842
0.0481333103712067
-0.004602394174474629
-0.029285057230350263
0.016241093297291242
0.046192510634839555
-0.00019390309959715454
-0.020896344475829706
0.031179239749165366
0.012615143298234247
0.00788191627751037
0.03695301246081217
-0.02511741133709874
-0.011736860313586468
0.05189623811959911
0.0036978341642418433
0.02134887631910741
-0.07851810381038059
0.10092721746587727
0.10586222384242627
-0.03975565667346221
0.011926085287907789
0.020210240578223067
0.005064822582060965
-0.006345597120458131
-0.03652980895983938
-0.04220909631194602
-0.02213929606150236
0.047422727350283564
0.075648242865141
0.11943672805474535
-0.0903212858734923
-0.015696993577704512
0.04998721840130025
-0.04727804676284423
-0.03352991396313788
-0.04978291951131605
-0.024001069578503693
-0.048332632222894974
0.018822102054812873
0.018480691343945047
0.012108828387407709
-0.10836703409711
-0.06489259085608536
0.017875302170183422
-0.013203564571873348
-0.0019355411704602425
-0.013177553783100822
0.02698746154495308
-0.01022883369547275
0.031874698192774414
0.04970089808167478
-0.011141513313539714
0.03473749719340295
-0.0011827771888310724
-0.02322990461011921
-0.01587529275505075
0.023793211760688864
-0.0021653327797952677
0.016078501694897666
0.03299309798897182
0.0169722857382197
0.06458282075350925
0.11255247666315223
0.03249743563081705
-0.031894245025564996
-0.01658712688303241
-0.042378185025527475
0.012002138295112581
-0.023310014854950784
0.021647333169233236
-0.013879923845723726
0.026886846733777035
-0.050378586609714615
-0.10801841807367055
