0
-0.025075737313897107
-0.03262092423767686
-0.017768913469054362
-0.006331115155971623
-0.004053891798825564
-0.027439696476846263
0.007456025857311965
-0.021993006852444028
0.09735236365850747
0.07881189359232117
-0.03567299742736355
0.04313569660519014
-0.004540163459100674
0.009698497156468576
0.00366073714650194
-0.005525751269434841
0.006611071526054424
0.0033852750902922135
-0.008138058462873575
-0.005481514201056796
-0.02335097331827242
-0.004739221431444348
-0.021570347983802692
-0.0034078925396419653
0.003829558592581471
-0.004629009626409214
-0.0022755943192879677
-0.008143675826223416
-0.033503057254508105
-0.005346935157254998
-0.01008532241082345
0.05824969664557637
-0.018262216159563898
-0.007689199213153639
-0.11687823067486078
-0.05945903484238654
0.014218728486542162
-0.006030494534480323
0.014925860000081595
0.007401618973633451
-0.010347077052389918
0.011897475594209625
0.0024270263734900007
0.028607334860203167
0.013422002997948526
-0.03350706024136252
-0.021989588043772015
0.014329489342190527
0.015839865635227126
-0.005897537396631615
-0.0400788690518456
-0.030441984973590002
-0.017694821243536014
-0.0032191473223876802
-0.005785855183720083
0.011071498737915748
-0.05545450670806721
0.12108979762949296
0.12371167025904622
-0.045155659998016226
-0.00606225723478298
0.11652245268998503
0.02634028283400557
0.01511141037160499
0.013646693444689394
-0.06588301967758896
0.1883729829177841
0.04811362098918253
0.0030298205706749924
-0.021413716829248544
-0.016658540973082964
-0.012737292062767094
-0.03549646189208963
-0.002222913265502811
0.006800493774356372
0.027768875737950192
-0.02451324116391487
-0.01495231281851934
-0.0369570911462502
-0.011693381061692345
-0.014655290727067507
-0.026596545165360558
-0.004828075952591773
0.002544882308218816
-0.02060149897882798
-0.021924014588829765
-0.02169494910027693
-0.035373449508527936
-0.031287230313495076
-0.007116603329378107
-0.043557267629861264
-0.045090765483156665
-0.004475537335566033
0.005236850293654319
0.06861033337826905
0.08673531503498315
-0.0021609133114732864
-0.009223282766404384
0.018873813181205807
0.031770689346143556
0.0068474203762138525
-0.05544558069338747
-0.005384886951568049
0.008815921538650066
-0.0034892057436903064
0.006428932568955021
0.096383772919616
-0.17189221282909253
-0.15022143827311987
0.1159527441471636
0.0655075513256184
0.018029779210378134
-0.014269426342331934
0.059854019582110445
0.009267976229720983
0.014882865090481815
-0.0055409212556070545
0.1630530960965612
0.018008878708069363
0.05673513074971775
0.03448808875791116
-0.06011375491493008
-0.10325751414582036
-0.030578187227708022
0.0037361452336102923
0.015499820439050257
0.03251433350821044
-0.11035667979909992
-0.24946161766773525
-0.0456674230030997
0.04449269026012195
-0.014340538449713757
0.021445008787982552
0.0071606482974094126
0.027229641465058664
0.016057650769764252
0.024374257649865852
0.0036810163421266747
-0.020020692405188334
0.000502003443860747
0.02756304894634642
0.025065492219588564
0.040767308583437085
-0.00996342610691246
0.0016400859815908658
0.0035115203568631083
-0.0040836338941174985
-0.05564286672780244
0.020227585912892997
0.047563747046054726
-0.005777203259865473
0.003431100103205529
0.0007147768682839342
0.007527302812731794
-0.00232159121150088
0.02586858039868761
0.008414682405060873
-0.029136599791080887
0.029953112693830358
-0.02260856294050226
-0.04469061464005782
7.826496782119025e-05
-0.0024684033059075095
-0.0035789637941598296
-0.024672541919790576
-0.028162286583538487
0.03200993698882739
0.02002908357391596
-0.015117409273697592
0.02603159838272307
0.031148943777401523
0.047243697498728796
0.1001710423256809
-0.029007642013689196
-0.00495926648261324
0.03664265598199056
0.014197242150644164
-0.0501571557132624
-0.02064123805740002
-0.052392719820077684
-0.07522462772711662
-0.009345759405538055
-0.017547379647133463
0.0020559550163856436
0.007640857882817346
-0.030935936105328635
-0.02056016213616124
-0.006686124177187748
0.009008849166376646
-0.003339679506310152
-0.011397672800901103
0.0997171234074024
0.05765366492567525
-0.022778658775127306
-0.018797163305960308
0.0366238145370339
0.02849873481070676
-0.010990484378689063
-0.011213354907508032
-0.023830696596259453
1.6731527010796222e-05
-0.017071925964548353
0.0034604369011152986
0.05252436094402111
0.04989378104296887
0.004868913303406817
-0.017898997408368013
-0.038772075952585826
-0.032159075691337496
-0.04554315124497076
-0.01770825057416439
0.0007231965715888885
0.005232692030923082
0.03171675968385953
0.07714878523466719
-0.017253241481507985
-0.0038287468122155874
-0.010707377273379242
-0.03580665066393498
-0.023243227215121443
-0.017489809477085793
-0.0038721253144733186
0.027721928667261902
-0.007867040577876206
-0.002933614060535998
0.018664188465019865
-0.002388610486767926
-0.07988067175885395
0.05074522235736004
0.03162656615606584
-0.010131761114886962
0.019601616128230658
0.004595518184557181
-0.0076664717356355085
-0.02126168878652992
-0.009377874363818905
0.019866722081536496
0.0026629252652919243
-0.010293302863494407
0.03325507819024227
-0.007630943379520827
-0.01639841393767433
0.004429423141978821
-0.007324542769684588
0.030378817775396718
0.021124889159106246
-0.012036883763822868
0.021458796292975757
0.03151224703071423
0.016123008282591403
0.010241465324378862
-0.036343544743885695
-0.03474625409525099
-0.008097819482562768
-0.023883088123005734
-0.005510364406985346
0.01949866977659226
0.010878889111113503
-0.011745300053324552
0.004149819141177664
0.05832371263214438
0.0538624012681607
-0.005013106891482217
0.0061466397721418355
0.026012603856470442
-0.026640024053295387
0.020649490467643476
-0.0455837945694002
0.004191738284225569
-0.05824827899325232
-0.04379964223881556
0.05199920393921688
-0.0029093365099666963
-0.04693866381264634
-0.041155286023370256
0.02761531224003451
-0.03741819129347457
-0.02371557661127548
-0.03984083829736499
0.039120546832320205
-0.00829386838226555
-0.03042542268868829
-0.014927130359708524
-0.02035177505086856
0.04940586162754199
0.0259325172914967
0.010481199185198102
0.010896933583756898
-0.0007299322308441205
0.034135561715498274
-0.02127141410013673
-0.0027400639465968287
-0.009985937536721006
0.0129280694639263
0.04027465795619239
0.03917732744440481
0.007861108997698532
-0.0071796200443481764
-0.008345033966591106
0.016893982855422488
-0.028739518529641118
0.0033216446860081456
0.0035003187629387197
-0.008383131406681241
-0.009248811200734623
0.04647616470468342
0.05174207300637701
-0.07664733639414754
0.041926561013372984
-0.015940279454020222
-0.11430847440702598
-0.04766719798198877
-0.04375272672706576
-0.023277771647599248
0.013289826838391104
-0.012784137418886421
-0.013255909773798695
0.038032954608767905
0.028916305197133507
-0.0163684328911086
0.052426719050390105
0.06876189564538346
-0.008552985375300536
0.009662981298360636
0.00963599281106249
0.018527033418910446
-0.004574286958269971
0.023800706289258462
-0.006443289539832989
0.0137124397304091
-0.026821800702932906
-0.132761185169204
0.014654663362475773
-0.0033818558080958203
0.02678957415567336
0.011928604680552351
-0.005972440614661989
0.06552488382856744
0.03424184516339135
0.06143733248843817
-0.006636960833172929
-0.023316473347454895
-0.042842019259927804
-0.00381177449233331
-0.011886133342611077
0.04005436597870509
0.01928064835308202
-0.023971826930966025
-0.005171727908833592
0.017358100645643703
0.007666251987038003
-0.1157795685941315
-0.10669224065163747
0.08129281226957474
0.014583411489250074
-0.060030174804348996
-0.03346887167483268
-0.0013719041009033375
-0.034594434734987516
0.028298771421930567
-0.027439410502846606
0.016356702548722457
0.0038326567265441775
0.05517943280105079
0.08010033853500355
0.010910979582327418
-0.022232896361111035
0.015467634546747095
-0.005598511491496935
0.038393498942227336
0.02630302508738228
0.014796461693053027
0.02721838057347861
0.09223474155892666
0.03375326616715419
0.027697840486683493
0.030671920134165667
0.019566743768243616
0.04331195655233252
0.0007495180216076732
0.02828743541321484
0.03898381858612906
0.011417131606069938
0.023334870925949797
-0.09498656008189221
0.05150992280532701
-0.07130306045040369
-0.0616889529603408
0.00985979816806124
-0.017884215667049046
0.0029932913696397957
0.013306797410590208
0.002110567982913435
0.023046348736951928
-0.006230577663461991
0.037279756541669595
-0.038302081396746346
-0.04690624253020442
-0.2850258546971832
-0.2272091148444644
0.03982110060917476
-0.08282027324073823
0.042785556157514594
-0.009358082603081611
0.02491241650051348
0.020119025320869784
0.03928503342925112
0.022418893394612983
0.021667556245428304
0.0020640048671818545
-0.028527028625521998
-0.02826274111237466
-0.035734565340252086
0.017283512485084408
0.004309670739837349
0.025802132368120564
0.023456646030859334
0.02418113340445301
-0.030958935364658918
-0.009111002303011621
-0.006014966294227578
0.006709115317217011
-0.0029244821217046823
-0.026208333302800847
0.0048027964560041665
0.062148362741727074
0.003546099857330144
0.0037913132272574695
0.0678883935958159
0.015983645218687104
-0.038605791173680425
-0.05409179909686431
-0.026126340444116374
0.012153132702937964
0.0011333335010092877
0.05244350129507696
0.029495396044740146
0.02580990768338965
-0.06837087338273143
0.12179874546654891
0.12096676049657253
-0.007826050955480668
0.03682120477485103
0.008308589365294853
-0.01240314281185654
0.011921948485618826
-0.015176262811450401
-0.01756160589818273
-0.004473409990937119
-0.012961923795268542
-0.035126030932397495
0.0026391612042505844
-0.03479140054538772
-0.03360147142077142
0.010271566004073654
0.19896585566678412
-0.00012264852886490144
-0.016603030907755584
0.009922171215141946
0.04815172230114723
0.027429487926866856
-0.005084249442466325
-0.07186820887574036
-0.13574496557488233
0.007056884463200575
0.005848630148109998
0.01015501880446618
-0.027029150881810682
0.004535143080012034
0.007252439667434557
0.005049456348020089
-0.009997702968976844
-0.02235680580594295
0.00346874985456112
-0.01582774828636813
-0.13514503927832672
0.0025786357858041987
0.032909906827701244
0.0006783826955849799
0.0259083620157177
0.03123424675268401
0.02848806573529044
-0.04053817823896237
-0.0031613371837746814
0.03248562712675383
0.06560977147749626
0.007244802735476676
-0.012176060756256478
-0.005552972976412746
0.002393406342805914
0.03292173834308072
0.0008514522812084526
-0.022376050109927114
0.010100615409369969
-0.015962721082862275
0.010937899395392246
-0.025850163485166673
-0.0523856372077689
-0.04688253795654153
0.008957749559984692
0.013586589162787136
-0.006698188155015705
0.015619451669592143
0.032009543392226975
-0.0128262151359903
0.029946550453314222
-0.0037187677697320554
0.02949345225957514
-0.0345232104742566
0.09065199686217387
0.04864791183026043
-0.23718446795438405
0.031944508478796665
0.01339457638680921
0.02157807022738311
0.0010841906189761235
-0.030765493804985732
-0.04154519512818343
0.00784951462821351
0.011622637063819786
0.026232720207612897
0.04274183346187771
0.022668853692254073
0.015039856881476316
-0.020511397691733217
-0.0068217047823529615
-0.01510930872541346
0.0015174363275395147
-0.001592148758164497
-0.07827716094306449
-0.012676012005285994
-0.008178323130641879
0.016840903751285413
-0.03688667158979746
0.036494381217460674
0.022520579195513223
-0.02313683199563916
0.0194898900500023
0.01745566392256212
-0.01192729048969448
-0.0319549623097587
0.04844965873844372
0.18621159013731883
0.019311072506057823
-0.004706918209168468
0.008408430538314068
-0.027262997665642913
-0.007842137859549125
-0.008137196389872441
-0.015668330971243007
-0.0343905971992203
0.018949354951910195
-0.006763821515807987
0.04720904120534238
-0.16721851835426907
-0.16100186176210968
0.07506727198340842
0.06486701547236913
-0.02231319342434625
0.03607387483977197
-0.011207961211891894
0.01728605506037245
0.025076027913724465
-0.025947562941157704
-0.0017374577925369896
-0.017831173514497003
0.019085565237174317
0.07607816716023817
0.03644454057445213
-0.04617488432958098
-0.01771579626101149
-0.034735105016749576
-0.027925786265245688
-0.04761429689464536
-0.005417324424973737
0.01004698584231622
-0.021742807231048867
-0.05207179523525526
0.02250646134006547
0.09341717483172293
0.006174608840617883
-0.02991763519437601
0.004303595203841825
0.020422938054538795
0.009782453428688085
0.02041445739192626
-0.03516516831888095
0.0035053580989979024
0.046184274286502014
-0.043083305106763545
-0.006264531055532982
-0.0057960331938499395
-0.017135594078299666
0.033489541405495094
0.0482223027360067
0.008116086120879192
0.0017408384493493338
-0.016265030289521643
0.02154635136062135
0.007940716792338926
0.008504911578664252
0.010821122560632404
0.006908682942662859
0.07177762355082964
-0.01779477439193502
-0.013862928724831962
0.009962088699381408
0.0008992797118333064
0.019783619188388325
-0.010230859906133843
-0.01924003701819925
-0.021269202638533536
0.013372658142849651
0.03332757606969512
0.0021201479665020535
-0.03307803735671214
-0.0007508556829835049
0.0024087839070631393
-0.0621272859816978
0.08684309402746349
-0.009010402299025869
-0.04470525002291158
0.022909998334764797
-0.005375062008819398
-0.0014306033993962616
0.010103424971056412
0.029309791075783985
0.015911233315351245
0.021215931603536988
0.034293176169952456
0.025015918865314807
-0.010023009918652253
-0.020178331123620892
-0.09941774280235566
-0.11044804069633964
0.03391094085169214
-0.026346994098281153
0.01812490654915133
-0.05460765725460756
-0.10176816138141481
0.026159429137197213
-0.013216026382694283
0.05454519558340636
0.1308165455206985
0.00029679192654918804
-0.0041645236108391
0.03134656187533266
0.015316229801614421
-0.017597779198250292
-0.02488455129738746
-0.05146091130153997
0.037035987408479014
-0.026890963000883936
-0.24291217679184957
0.00662203072424587
0.0348004826946593
0.003763341813316723
0.001204405988595614
0.02818071707023284
0.026425307533724466
-0.01465501887116731
-0.005380692248434558
-0.011578724529702324
0.020817884753817604
-0.011640629179463237
-0.014881298087746724
0.07104001808188251
-0.013507333721499615
-0.013239252585175129
0.027611456812873213
0.040887775486835407
0.031508750047769984
0.008679482339021324
0.00018082059017499426
0.04828874333083391
0.014567243958135388
0.01907039581924554
0.0007445923631582098
0.055580153914671644
0.016284394629538658
-0.017890237424173325
0.03108139941622882
0.04296129283082465
-0.007154134343644909
-0.03688693665686794
-0.014341288031466698
-0.005613413564917868
-0.10601596952404259
-0.040725288133182616
0.015964575540112387
-0.0024979300958976563
0.00546909445650015
-0.029506422721011994
0.06678114041954047
-0.0049045303358009875
-0.0015732142841418106
-0.07846549216220818
-0.076022968225347
0.005587812632730623
0.08356300794043484
0.09310610449596356
0.016379696374100087
0.0338173508132037
-0.011316283428150874
0.01020061944844744
-0.002897316717851681
0.012380254360539108
-0.00392756638585933
-0.024923066563640378
-0.017285319161666472
0.005659643198419015
0.030099748626539642
-0.007671266439676693
0.05114947135922567
0.0820843838675568
-0.01736121100517665
-0.15914234632088212
-0.28084964500695864
-0.012680957315000458
-0.005802537167798711
0.059638284369548135
0.0782382446348936
-0.00027202223961532104
-0.0031130388378801093
-0.02490508732018737
0.060018211745997516
0.0192487244687975
0.007369068526278408
-0.005062901901517696
-0.0013286681164410765
0.01077293648562229
-0.0013585220487058907
0.017147301975598977
0.03411432432955869
0.0027878025701428824
0.006169800240154959
-0.011542526524032327
-0.002315743295714661
0.020025765344777652
-0.010995529896345665
-0.021542661136028023
0.013777363688401692
0.01875500656384884
0.00786082360911728
0.00900172560739745
0.014626939747432793
-0.006901321671815156
-0.015782492405923977
0.02873667297499415
0.014176497645590437
-0.008237023849605223
0.018884708842998574
-0.032455701254526306
-0.007219350360850662
-0.014201338688699846
0.025128370533049876
0.020824471024367904
-0.0022398802599522265
-0.018198721785344762
-0.019026408925874157
0.01858919000205696
-0.010402791010644851
-0.02781382093201647
0.03200293364345602
-0.01775892943441392
0.08019856809370715
-0.0402649891057857
-0.021405096535157146
-0.0136903288714104
0.0032667199625814334
-0.012838332682652605
0.04560304237421763
0.049463401476538674
-0.02482304309725205
-0.02423693322094062
0.0034194488205793665
0.016771462233312245
-0.010992222174512815
0.01121882160561347
0.045073283966067426
0.0486249278500344
-0.1267368840707955
-0.21682987374680168
0.08265311557967071
0.009875114461799612
0.010291265621009184
0.0004386833199201614
0.06416208641725847
0.013721027408483437
0.063923537925811
-0.008778878531182432
-0.10295734963578183
-0.06745086907834613
-0.10217022997108768
0.12381919776724923
-0.011915091617632273
0.05103080143738629
-0.020441735841976123
-0.021616508699501817
-0.012158543334405856
-0.007308642134412899
0.0056732799964070435
0.013246076504323478
0.013215204397047473
-0.008779068493472498
-0.0037160802243886466
0.0005487992404325718
-0.004337229510730296
0.00459454803933365
0.005931904854493875
0.010827690671130171
-0.011249416861877411
0.008384197086107966
0.023876277510999546
-0.013416765754500095
0.04461584267532797
-0.03193828240706762
0.0517142694745891
0.17273587832789764
-0.010575149796611054
-0.02950648748673085
-0.006883956903818311
0.02052571105185171
-0.020387565643092794
-0.012845714861804273
-0.03077461450131741
0.008153250699383777
0.011781294956064546
0.004087016558478
-0.029947065080047682
-0.006518165046581195
0.03548049401513226
-0.025812489758916625
-0.039151061593809364
-0.017783247891036472
-0.03472730317549092
0.011174766547686992
-0.03821223373888369
0.007042634980732777
-0.003395470647512093
-0.03568501354363539
0.01660572923188296
-0.023746907889065156
-0.023497732709427416
-0.03591611635959376
-0.037062278562280684
-0.018830928733961486
0.03963263482163036
0.07186432486601264
0.08367075147637865
0.06201949711072607
-0.0274457181834768
0.04243580014610063
-0.017389441610596423
-0.0252043568114389
-0.03951630933623166
-0.032544916687115726
0.0056705096424160715
0.02875607696149161
-0.007875415422531958
-0.04300700936407225
-0.07735725978613568
-0.030390560646977757
-0.01846806778535468
0.0657963786958832
0.04159205775138482
-0.00398858373450548
-0.010222220622386223
-0.016170164673048004
-0.017968523449563525
-0.028729791451891168
0.012150914606132603
0.04975296058739997
-0.028395687789370853
-0.005781598855057927
0.04233306852288502
-0.0005798233511686527
0.05436901504488894
0.03669915942516287
-0.046456791023980246
0.03306795299277839
0.0017502426125580912
0.04458875210630803
-0.009095218886656466
0.0435695667729551
-0.018696711212068198
0.026524661724143958
0.0012969650260786947
-0.037395776095969974
-0.033994496401864444
-0.015622151711918409
-0.03949855953928559
-0.02906518602517911
-0.02583601248417287
0.014365698333934633
0.01264894438397891
-0.021035804392312323
-0.020202563899179782
0.024854176220892928
0.09517271314143333
0.11204525734456465
-0.0024289490224347573
-0.020345497714719732
0.023725445259569187
0.007739290753071356
-0.022718524291325596
0.008639029787993815
-0.013092008746589553
-0.05866481802589583
-0.03435140063003094
0.05839236939942097
-0.061459461097527396
-0.015368219103713244
-0.006620883432960811
0.003785307620965593
0.001707467423045741
-0.05157379338848006
-0.030792894388340805
-0.004995955957650927
-0.016603286935573593
-0.010703591496869976
0.00434068031982038
0.032097884691783644
0.032763251171847495
0.31720570265748727
-0.01582592751033356
-0.15507932837208452
0.04012423072320307
-0.014110091247145592
0.0013788922179347205
-0.06729288017474026
0.020561074322112242
0.02020651537448678
0.017526132339546308
0.011754235249439589
-0.01098073967845961
-0.04812099262687694
0.06479448066255725
0.05155447963541737
-0.04822840928187284
0.05949337396288225
-0.00391776901530267
-0.05083593729776769
0.006999901138743076
-0.015181024313704942
0.038250438155840616
-0.016069378343178155
0.017809065899287355
-0.07671126241760673
-0.041128027343618145
-0.003842659473726262
-0.015041336406170466
-0.007704039072753956
0.055326466098858086
-0.12438227791389021
-0.10803649369425544
0.04652636964075561
-0.007418937315551114
0.008635476460011747
-0.04321236977304806
-0.014093636461735719
-0.004845392127476339
0.010864485192092916
0.01492745587155255
0.012481933455755418
0.012393538481527312
-0.004046835187533673
-0.03500767593595969
-0.006538136537819042
-0.014592513070563272
0.05185476453567612
0.0415384493102287
0.006059085041541703
0.021419137729171582
0.025949536580801173
-0.04588965663534609
-0.021342567363659026
0.00259212713934897
-0.016561182125672747
0.027237565679842417
-0.003485344627311759
0.002603765922075674
-0.10837978693634054
-0.0168842805593104
0.019389826855077504
0.000235141173050906
0.016068029809031662
-0.009794372536681865
-0.029961111352289592
-0.009362865320028085
0.03200804669742747
0.033676681413740354
-0.007072628103586266
0.11318069449051621
0.18358289801003275
-0.0732732711608119
0.00808111457983174
-0.03234777353450372
0.026005705975035175
-0.026169037544472012
0.004142411111162418
-0.02037823009188906
0.03067522626970967
0.01233350598820007
0.052285928188132984
0.0207591553953079
0.052192402841450984
-0.04624724773915779
-0.02604583823057013
-0.018307685933436842
-0.0036217256362013743
-0.009841550058179707
0.03140900435125269
-0.017106684705399257
-0.033540817063371135
-0.016318328113285614
-0.017982169760545025
0.005287152211915836
0.018531863289556964
-0.008678377301975173
0.063456864994532
-0.022776091699019747
-0.022769789992048945
-0.012617300700536306
0.05014282705464275
0.014563673195160371
0.026936345585492034
-0.014356253245864085
-0.025697611636545423
-0.04649550987351727
-0.06642928790178755
0.0051685265770857825
0.01631161850062988
-0.04304844782274705
-0.03428994396091072
-0.01716272029252557
-0.04507578348413734
0.002710944383781452
0.04342794181477196
0.027113464321564428
-0.016329108655080214
0.00708292552202738
-0.012379161858656246
0.0123091040287862
0.015625151584888107
-0.0046617235687594115
-0.03493426628318821
-0.008406513024101683
0.024175386430587087
0.009425181517549588
0.06749159414193912
0.06569881299810262
-0.03396829007732975
-0.008095000786014559
-0.013892187973345065
0.014329333309414135
-0.040106298611401796
-0.05320770012862994
-0.02508769124076082
0.005020952195743464
0.014799114285247746
-0.002602985086251151
-0.008258517255754676
-0.0038807296346461866
0.023022561659527437
-0.017910593112077315
0.009762573434517084
-0.0029396325976492467
-0.005098589207843353
-0.02217130022843039
0.007961348103541621
0.06107367824226867
-0.0028763163882985473
0.003646487845284478
0.0016665843914850347
-0.018060833842056798
-0.06760777313072966
-0.02267818033681968
0.010409749520075399
-0.03207382071252909
-0.009254545740999692
-0.015816484267228023
0.17050975532891022
0.05076836784400388
0.022421741111971982
0.03726270092909581
0.04193042785023667
0.04154344177229547
-0.03674670576914999
-0.02203636600379979
0.0028300058032291135
-0.015029024498885211
0.009579398604301284
0.01922654598381931
-0.0007885989373226115
0.001758384130999759
0.026264243994248784
-0.12898382922684332
-0.040546492594857694
-0.03319947294121602
0.024197879520991363
-0.012721226160002581
-0.05172069448323009
-0.012172003484948655
0.03085960823682049
0.06034185938808367
-0.003545022391102923
0.039120522678900524
0.014579887478128798
0.06649616724212647
0.008688641801191912
-0.015505821997478924
-0.0642311707107465
0.004885689426752129
0.027469718287830867
0.018428216626380688
0.003824978291392438
-0.0023536412391008074
-0.011230593210254835
-0.017915732210410068
0.010149814814796716
0.025449338014284402
-0.012491302180028722
0.01894855197512966
-0.026711727055294773
0.02759230221744714
0.02336833881012309
0.02330691636428388
-0.21250283538445658
-0.1162282691407875
0.056514300854177815
0.05859544204873778
0.017703758004620967
-0.00038118571860365453
0.008152475942394525
0.018348799107969018
0.0007839443033865384
0.05704874466369919
0.04586915949477338
-0.02782336610291841
-0.02012946165571337
-0.014050600455477538
-0.002220965167573426
0.08749891491963624
-0.03973959610534698
-0.14817806383646456
0.01182627182633708
-0.05595943043757222
0.00379602517125236
-0.024978863534173296
0.02021832168467803
0.105496345085454
-0.004116258063573177
-0.03433545555217455
0.012924149335167431
-0.008870151145877948
-0.013511514096628121
-0.03057650625052458
0.03598297034757267
0.03146901668661468
-0.05254535537166817
-0.019393587545404035
-0.019175516291698086
-0.0733179499261273
-0.10013999125596822
-0.009882272425968359
-0.025533158870707166
0.14867902288841994
0.04007553570061402
-0.007719819539527249
-0.010563036320388223
0.01690403421912382
0.06847973524411999
-0.017880302563619884
0.0037651307252250946
-0.031955613580830065
0.03419370793858791
0.030319413554942748
0.0349052153639768
0.001792620417213095
-0.010812398821505514
0.0054681074498959675
-0.03153320850372257
0.007312712551367135
-0.011544083056031112
-0.012262848635774733
0.02957810425424765
-0.00862528311633356
-0.032339818926028996
-0.030028753878754495
-0.014110627149272019
-0.013269051459314453
0.02142615919860891
0.09438215560332314
0.010701207743941416
-0.017658357990581876
-0.02318568176105401
0.06647597534541475
0.05803938844906961
0.15180716056307303
0.03130105252703167
-0.06105794266693296
-0.011653731589705266
-0.0489211248691886
-0.006503067275746263
-0.005797306011728947
0.007026537932130155
-0.02304123236934245
-0.014417077229624318
-0.012707068786040429
0.0088963586099233
0.0010677565376162506
-0.001274948906757561
-0.0018919076934101875
-0.0064441429424898404
-0.02238150351303063
-0.03132313691134409
-0.02545244650990205
-0.03263605720333128
-0.0003145103322817098
-0.014718181847683528
-0.00782765695738572
0.04499131003822748
-0.01744010041019579
0.02187956332216665
0.026734295366920395
0.02108139134582781
0.017499350374302072
0.008159952093525324
-0.00424622666096129
-0.022648914914788768
-0.018578445789332834
-0.019679652023836047
-0.03469539402885816
-0.011820584504589664
6.867082674167961e-05
-0.004204565980326024
-0.009169164023746174
-0.006721844448995637
0.015865272852622573
0.015168281462659817
0.08807158876239247
0.10402311359442054
-0.03709839603736069
-0.018687302745475275
-0.02701580647388491
0.06618982798383043
-0.12158201214769937
-0.1142619330601388
0.049539409115115715
-0.001203118584565299
0.004593425569172264
-0.011041271369268177
0.00971086382412874
-0.021357085792873872
0.013041010320982356
-0.005382724235186595
-0.008898586006104268
-0.02717750306574336
-0.015326468165023832
-0.020148754117037544
-0.03726800108608706
0.05371911315731295
0.10245565633894298
-0.007875850522810502
-0.026584367220456342
0.03832434700483076
0.02293030034374545
-0.039504715842267286
-0.0314459169847538
-0.05045661422294944
-0.0321411583466398
0.112439912033358
0.02707662131834918
-0.009337877581066769
0.017296569909754485
-0.03714567903936186
-0.027303605971295882
0.005925058777378762
-0.009333736615897415
-0.012705114937717485
0.023773335472098405
-0.047507776719269
0.01370491532523225
-0.017179576145933594
0.04340422654531316
0.1187677336039085
-0.0035544845316227026
-0.045164847055496886
0.08736848745661366
0.0031642837196546912
-0.041945868942012327
-0.00825142945736656
-0.006571239648447125
0.004743177127769382
-0.04107065717828463
0.0268130678755099
-0.01550033162609711
0.00043135944135013724
-0.026088591489117408
0.023671773987248162
-0.018252174316622016
-0.03952134991861224
0.0011559865403770382
0.029092303089809108
-0.027372719509800126
-0.0010163684726495887
0.002750915402267267
0.02029709622952494
0.013280937531814219
-0.015031251759018273
0.041611801988507
0.17352471848798456
-0.039648820006751156
0.03250667037437889
-0.10010857269421829
-0.16700218564132566
-0.0009444971091165098
-0.01504682149879108
-0.010864483151255688
0.0010964764000442066
-0.0006427466933926442
0.027984881037018964
0.009758890060089962
0.004544322457089484
-0.00869202972419934
0.013080172648868661
-0.029381259215906695
0.0011803996500860253
0.026464566473948504
0.05056308597815185
0.002017648198712256
-0.004233502420647441
-0.06066194588282406
-0.10887477190797404
-0.027167726587469916
-0.03710317223875786
0.05822458529342842
0.02926981313412788
-0.007079613611533347
0.03630885959064932
0.0023951624574827133
-0.007640884878585677
0.01494798176585613
0.027994350659350107
-0.019887787046973207
0.004715648442346465
-0.04179320966642689
0.005595246773420716
-0.02835312881521444
0.11230578615828726
0.19673820923043434
0.06010712578421216
-0.04545815954982282
-0.01922033183014417
0.07509486602749627
0.02050887995213175
-0.0006248029232990576
0.02247068882663662
0.002766264903400558
0.0005672484947879689
0.01840324325717911
-0.010979483171985943
-0.012894746884945957
-0.021850295676258513
0.012751903459063353
-0.0360176915339479
0.00946797832877927
-0.06306622582977621
-0.11109461048239186
-0.04558921453616704
0.05156016922935631
-0.025340901999491884
0.048165217042133494
0.020849951046857666
-0.025300917782656168
-0.16008459311024847
-0.027541749901010902
-0.010743533019891692
-0.060124499074826046
-0.04430373186759782
-0.008348973128756135
-0.00577371084383217
0.08036909288267008
0.08214032654105567
0.07411776091032078
-0.045078775517913394
0.034489467402902305
-0.09758297695900081
-0.03408213271158315
0.023920704910633077
-0.07928363851479424
-0.005779614613045871
-0.0037854788817570854
-0.00025409979899544243
0.02397983086476594
-0.001479185026177419
0.06210279492298316
0.09450096672595641
-0.062462356640455886
-0.018859715482517952
-0.020551694885621266
0.04327988566482819
-0.02197585648716933
-0.009452192614502307
0.09643065679534588
0.055773185809546766
0.024440971813976975
0.011750241519394574
-0.005930422613713545
-0.05678448615489705
-0.023818865828252444
-0.003302719034159576
0.033443934484455096
0.07106253485871605
-0.014527059340372466
-0.028304374649800183
-0.04696960521607399
0.01986967285225148
-0.025114502410866775
-0.011185938398180995
-0.014767268029475512
0.015144666634624953
-0.03847232124409955
-0.03291845718523662
0.010344344698163145
-0.00502712820411102
-0.0001775553144772881
0.03150477342258826
0.026894904612592654
0.015031163525146045
0.04732439507161799
-0.024788979797827574
-0.04023595714046949
0.011897882438811382
0.011282822152890323
-0.03021035266409359
0.02193702947600743
0.02628919347948905
0.004247032076462636
-0.01877946195998998
-0.026724019268441816
0.10622897534589003
-0.005293738252764868
0.02382432242512431
-0.04214546966869784
-0.009780076711563453
-0.0329427647893112
0.017989112011669205
0.01982605947212775
0.05726615910627067
-0.019735312763799803
-0.01572318071085909
-0.04263147327944785
-0.004445510474901896
0.025464529188059432
-0.018029257338927945
-0.012556928031794225
-0.010861724738500667
-0.0036457472277156905
0.09967329178263211
0.006893177791362658
-0.03031110967230489
0.024546237828803708
0.013501742783529093
-0.012639833342947401
0.0097670845030535
-0.010513164025100627
-0.011907742037096256
0.011579954580668518
0.013112389789730533
-0.1738490802721059
0.017594659773837527
0.09135960859407831
0.008461485431202304
-0.06554167098437463
-0.0934785835752733
-0.003185299546860621
-0.015660811688824026
0.04497326549048891
-0.004412604274641178
0.0423404183406663
-0.05094749461134101
0.009185204971494785
0.06075946505199368
0.0080644093840051
0.0006471701903077521
-0.0060965729490975885
-0.012325679426345871
0.032334095939656
0.05934340972710323
0.022380800000083474
-0.038930882858940044
0.02416909066907187
-0.009354052820939242
-0.00996965884407916
-0.006785505716361443
-0.003569010638090539
0.006538577044355154
-0.008709808991032478
