0
0.028916059173645026
-0.04797543758520803
-0.00977150491530831
-0.02214939403991993
0.008997552465761683
-0.004324834467467691
0.024167922442728244
0.0241554094017347
0.021952185253083317
-0.019427162010454295
0.0031596623024359193
-0.030569673646669952
-0.04227536363881707
-0.0021290004767285375
0.05739445643892242
-0.012126586652808875
-0.04478708937675532
0.030925913980005524
-0.014744816243907534
0.025732381283517847
0.03648611173584678
0.06553564806776155
0.012781389584777623
-0.0316266984117634
-0.018599458211708154
0.02034753789921206
0.013349213042593237
0.019044282393441213
-0.033168239064606864
0.0017699858893962942
0.014633570909231586
-0.015790687754735428
0.12088420824406779
-0.03033029023419652
-0.03827254743083693
0.009410363843831725
-0.05694199800380271
-0.0018471029549170616
-0.013282097245790074
0.023291050197786486
-0.014320007179458938
0.0023601014184697344
0.05215934066999763
0.03361237038756238
0.0007227449438280099
-0.0224329313746585
-0.0006266522972375505
-0.02769535379625261
-0.010956284847312637
0.00039373042653548994
-0.019005833664354363
-0.01508825534958487
-0.0688279081784047
-0.05605326846526633
-0.01651116579866243
-0.02152546163741844
-0.007662784952059369
-0.008775342962931035
0.026984292728738094
-0.021396851781446322
0.007326460478002822
-0.00921697538217452
0.05568999088459768
0.14080490997362954
0.0025041781914934363
0.030385840684976184
0.03207827508786328
-0.0713493602960217
-0.0124118207523964
0.036143850598138516
0.0051721616482750124
0.01422138212093002
0.04460933810847104
-0.013733195954042751
-0.008027083340495282
-0.01954569327036188
0.015319193340705035
0.021651139176206213
-0.04980429894324795
-0.023230692864885102
-0.07947818680503488
-0.025455369681941446
0.00512398358343297
0.02085820868192738
0.01596442205734956
-0.0037623882456051484
-0.04527494291908996
-0.0010557534795909002
0.011176896575809362
-0.042433965493415035
0.04351050103330231
-0.0203021788327182
0.07693739610715312
0.08184605235970864
0.01787404723760954
0.027171312431857542
-0.06141385858684511
-0.004324123725035945
-0.018492637695678396
0.042726990817510836
0.02462215959315866
0.01683906264888985
-0.023091666170773593
0.0665755573897652
0.07883559847585844
-0.06355178745680731
0.02442033991120877
0.005987764161104414
-0.04426215424268767
-0.02660158415350099
-0.03538527472813555
-0.034405268663866236
-0.027348381435286902
-0.003193595484508803
-0.003671869390538398
-0.015771692888358377
-0.01677827118491034
0.019113065098034815
0.0006659485018971413
-0.02373999866540307
-0.0038280219697376344
-0.014163625639350422
-0.029274575599821155
-0.025096607035705914
-0.02722723296152573
0.01334687167277556
0.025969814928513912
-0.0040389560499848685
0.030565301019567927
0.023931672386960014
0.0037061859304789177
-0.001987916901959798
-0.07472146227374422
0.01126392290012735
0.00836335345219309
-0.033263814517409174
0.18494624890108485
0.002651878043532898
0.006105027925287812
-0.03439392314574794
0.0020258505863061014
0.005613096790000571
0.010500670447381018
-0.018684335865433315
0.0010808928300973346
-0.0047237195164816104
-0.046558088330907396
0.02774895134903855
-0.025365896285171097
-0.02290981025752545
0.00728772894873151
0.004752719210328222
0.014795899126550188
-0.010027368282061019
0.024014779274220917
0.004434080590191568
0.009026766443291505
-0.02041380095276025
0.0355960499242286
-0.00536861844586119
-0.011853631674014833
-0.026727732503221493
-0.023063026660979896
0.008277619311616037
0.02494189138896063
0.08689658664506181
0.004300124008725967
0.026854592863950002
0.035724589641973344
-0.019823024814195282
-0.022116786440136815
-0.013236416007732694
-0.009910159302637889
-0.0072598653452703435
0.020957934587804664
-0.005089307736197678
0.03213949841825401
0.028236827698706547
0.024415165251484062
0.014466856646238715
-0.019368776853993012
-0.01392566786498037
-0.017396323147279073
0.021323120943659957
-0.08689382790393774
-0.07559224635924709
0.044484134219520306
-0.22382093408146317
-0.09057435012023611
0.033431097876365876
0.03996727825095087
0.04296555150453919
0.035086558147374054
0.013087875883909132
-0.02505725825614612
-0.015814288252510775
0.04890276921867027
-0.02677811538148314
0.06784856238492706
0.007028948783209319
0.05224225321540415
-0.003407269161233064
-0.0051239198686644245
0.026154880930346125
0.004959438079337138
0.004648596656006908
-0.05329065236903609
-0.029510198511372345
0.008917236063893984
-0.006686036707188578
0.023320107524304017
-0.011789193004848236
-0.015895152857886365
-0.010191617632176497
-0.04724024875431352
-0.057433989297491383
-0.005342118888318931
-0.032644576848740704
-0.02142758839271047
0.0017776500640685415
0.00761469284065357
-0.0072866213243646056
0.02431470718905427
0.10001359365252789
0.07845001634460712
-0.006816329828264037
-0.013373114254888302
0.0003018289747040817
0.004992867228308701
0.020230601336153727
0.010491457491865074
-0.04385937552464933
-0.051145145445396265
0.007338888824732778
-0.017106663814297537
0.06532307622529702
0.07181137525397012
-0.038482649205677295
0.05572972431063758
-0.057728392023270646
0.008777819557955355
-0.03746201081420676
0.049291494582612554
0.022163808779346154
0.015238952411000947
-0.006062885748833901
0.010296228761612026
0.058061054124527355
0.02284812531309269
0.0026702820874781453
-0.022017524139988937
-0.04799634200851498
-0.012427337721827901
-0.013618138246340662
0.02735874802055092
-0.025935232049175624
-0.009654771754729752
-0.044099518657079576
0.13164986055176636
0.1129209260963952
-0.024148434342002572
-0.008807956809044766
0.02729822281276902
-0.10784449654154167
-0.05240993538396497
0.010615377496537596
0.0038238069580469078
0.008909149685423228
-0.05783526716185406
-0.026507562956867597
-0.0012102331523698134
-0.017470300531768925
0.06820184374058139
0.010041314785911496
-0.060089776455167485
-0.04742561713257023
0.021920780999232264
0.031067944094147443
-0.010293269078497796
-0.01787474064833332
0.03251572790702341
-0.010833748166229484
-0.005933593341917168
-0.05553721215576403
-0.02925313203682427
0.012730419721068123
0.0023358552271085715
0.05673117918279549
-0.005379214645318492
0.013064043989060182
-0.0076083538476258835
-0.029450057428931982
0.006649072610661232
0.023438959804994643
0.01723739803031292
-0.00390756905220303
0.002119442229406534
0.052157222276868996
-0.014418661072847026
-0.08973993709306195
0.017796578783036265
0.08448616061817886
-0.02027337863975992
0.0016944038904346175
-0.0022567082483562367
-0.022957750634209097
-0.006080396032077114
-0.018429759736592926
0.012623923951405082
-0.024647544941136922
-0.010064977288130038
-0.03041238864421664
-0.005604668759708582
0.033749871689630714
0.002747695632555478
0.023906620812603023
0.04770814016701239
0.0037598501491685867
0.02840173127624355
-0.0895346732102786
-0.08350635310577086
0.00956909826316104
0.001479453734848799
-0.0816874105547101
-0.008853584649576795
0.14057350399227697
0.02479862592482175
0.0217473321801632
0.001983171261966595
-0.0029858042798702957
-0.02735600552671459
0.018022005201459627
-0.0183969263497918
-0.018581976120614453
0.04270871163237285
0.021294064952616952
0.028838453102126058
-0.017523313431204043
0.008738065326741309
-0.0847593921704884
-0.05534517551739064
-0.004881486113225685
0.08530251387621739
0.02384109450198434
0.0016552272419460552
0.027808929129646068
-0.012801048059828209
0.003870753010889833
-0.009494713047958948
-0.014338326764064543
0.0066531295162816275
-0.008736601820979089
0.04539896451033852
0.010094693495530396
0.004028041535740981
-0.04620104123874178
-0.0288674944013287
0.0004306315109516108
0.008381461468387997
0.036550684145978625
0.05059883867297674
0.03156770962671703
0.015042227217670106
0.04750856270252363
-0.021541162337634593
0.021266961871470837
-0.09177370292817788
-0.11447406564868305
-0.022298906218116407
-0.0183284264247615
0.011739920107305063
0.004035195586157207
0.003903327003646521
0.009683546522778644
-0.02731126519836456
-0.02485758440812425
0.0032080563581548907
-0.013531036344004066
-0.013301856816439818
0.021064614320071586
0.12719547329211547
0.031331603461538515
-0.01204411920135027
-0.004843659420384641
-0.0057255705439211
-0.008444723013484432
0.011112641052732066
-0.027588697451575633
0.006916397043213046
0.009525071038824745
-6.294149851219044e-05
-0.016447432500130525
-0.02054425617482062
0.029795414930614713
-0.00796805432000122
-8.340065834007811e-05
-0.015531619914160074
-0.009652561189533455
0.002985580050605634
0.010768577229169863
-0.035303864798171415
-0.0030485871636884597
0.03502636873172269
-0.009777621926290683
0.021824948559761102
0.007354156548761472
0.028609399448254413
-0.007149716428431219
0.013373808610214517
0.03569116713834861
0.017523979540062743
-0.03324413567955998
0.014175285160297292
0.05597803891874672
0.0344998782466061
-0.010360301165187024
-0.0033854760657725373
0.008344097066518353
-0.03650532575633642
-0.03602704477981161
-0.008837450545734107
-0.0022789904353272055
-0.0005379716445582934
0.010317792881009999
-0.02072943792113222
-0.038835768323394894
-0.02441847397994624
0.02105809530568317
-0.016138881110412555
-0.046091311796019586
0.0017954985648842019
0.011248153178621864
-0.05112023107223269
-0.03700494760312122
-0.012677139960602291
-0.07825847183333384
-0.008973784714706314
-0.0006270395305312778
0.0025899549155909687
0.02062468034495101
0.04589951214092572
0.01442638873378754
0.0023254403345031155
-0.002499418261865051
0.01614147851035918
-0.013161145368254494
-0.028769241792678625
0.014038974351766828
0.004170739180081633
-0.01946999160612274
-0.00422145444986817
-0.01065068704367935
0.04430722043367936
0.19196740060985715
0.020556773156184562
-0.09116255738458459
0.00998615744547179
-0.028356258321998864
-0.0007840792775060684
0.008569289417553243
-0.028095666593586067
-0.04210589455911991
0.10665672383701308
0.07025681246035494
-0.005758801607012448
0.05567173844606148
-0.0010761329147536728
-0.022573862029747937
0.02023456251757912
-0.005822452752141285
-0.049358312824502905
-0.042090838086774426
-0.0022648260485223968
-0.014857158214331194
-0.018924188015944827
-0.006360209208633904
0.009873496234313633
-0.012934564753661679
0.0470300432088285
-0.028168001985896585
-0.03944767397595901
0.048968800814005974
0.040880272371901505
-0.034543684830464
-0.023119292053701623
-0.02673532676112378
-0.009437558982846638
-0.060325172366878684
0.03201972012030907
0.05379565665098969
-0.11495376345884913
0.010637860374031378
-0.014658522288762965
-0.03143331933252429
0.03863706452047596
0.12536091862330953
0.051433575362046714
-0.008995266407070837
0.017128202886905423
-0.042503378921868985
-0.025387629485562415
0.015964993222991764
-0.008024422864036118
-0.0007405548807585991
-0.017766674824725288
-0.034584704510732145
-0.03747850189740379
0.023436782314955308
0.06036296145480292
0.007273631085035267
-0.01812953673929603
0.02032958849503549
0.008524188666041677
-0.025578786844110607
0.02038795692423405
-0.025076619211995572
-0.013283942522002268
-0.04498368541721367
0.0004912404702430024
-0.021627152591608082
-0.01927371703748856
-0.024933502911988474
0.060204560271570874
0.062307021413087936
0.043786222644193955
0.030005209865560746
0.02385145721887212
0.07232132157681892
-0.017391071108034915
-0.035849274341472157
-0.016778999718010782
-0.02261791913991667
-0.010927785405422517
0.006602764642492387
-0.01108672720179801
0.0011011010722066896
0.03255741675637469
-0.00564787943191863
0.007637378683882252
0.031512012093147156
-0.011570113591088324
0.023925846415415612
-0.016691711788609072
-0.05326124137401611
0.02416778918254331
-0.017736217921078018
0.008184120685960977
0.021248091654190858
0.005733255825353315
0.006416303367914762
-0.006612438699136967
-0.20852731620507733
-0.0755565472091691
0.028432115071027633
0.03213952056769946
0.04093033645874302
0.07635912959421111
-0.01419492571557544
0.004401828693236873
0.022095186185941876
0.008912450803618042
-0.034321128598534555
-0.005868933049480924
0.005510616417903115
0.025088566543291325
-0.0018344482972697173
-0.006872301138624557
-0.007449424918996386
-0.05180993804149941
-0.07514627543425194
0.040458265661559134
0.03535470715883058
0.012349339111836501
0.005436165381828034
0.054198456848512
-0.04270317687113374
0.022352724907397713
0.016834166979616073
0.0028387751627659747
-0.1355956953402346
-0.06332140974439818
0.048090267983926224
-0.0042526175549638815
0.004829656467825246
0.03437335229831999
0.10468874189094853
0.02239230333969851
-0.001006732290165078
-0.01898977509116561
-0.028333079007633395
0.005544998378588992
-0.01736553040556673
0.03720022377181393
-0.17287416936195443
-0.09179269150636843
0.001868143418081018
-0.030548625649996823
-0.03774019958807129
0.1185099314648368
0.19066524104139856
0.07874065597134533
0.018607754527367383
-0.0468609030910306
0.011608537315274935
0.0129414309198731
-0.021663297935819344
-0.03524703747470936
0.001719312937631591
-0.03101348901854735
-0.032852180041483874
0.11967947243208213
0.07133239791756472
-0.0586522920781048
-0.010835950204978675
-0.018440852751070533
0.04771961120705782
-0.005899219830915729
-0.020248367070761285
-0.0005660920590349688
-0.12672402058529336
-0.06043327118243326
0.033179420137170595
-0.0634411353208796
0.0007246474206156473
0.02594101244420217
0.017274815861587318
-0.03760765450686605
0.05443745894063814
0.1695528283266736
0.15296575047188626
-0.030014184620187276
0.007973640665252057
-0.02765309278006684
0.006150929817470503
-0.007666456839672623
-0.041053296478712996
0.033918386859918964
-0.014831664004893884
-0.04737991040997706
0.07914662831157473
0.0041217560483256255
-0.011231282203512978
0.022789317858366073
0.0447661439057114
-0.026468163227261362
0.01685221151509376
-0.025115545810918568
-0.20751673306704113
-0.07007980159763756
0.013465442561869679
0.0011386810452998436
0.01658343714083914
-0.04040970734158897
-0.03620011536057629
0.07281717510557426
0.028212419022302204
-0.009555694634565178
0.04337807776409775
-0.014017069062446683
-0.0757236138766635
0.05671348419347069
0.027849572029519962
0.03888312558951984
-0.024898729500842286
-0.09006486375815109
0.0182139934641012
-0.014420782226276041
-0.016688472088303326
-0.0053701664795930805
0.03165959300999268
-0.003109280233699651
0.001774235721719635
0.0003484791815322679
-0.03988073666404662
-0.11465886083841251
0.004689020451223432
0.031096304981558322
-0.019435030579679723
-0.03115077395026699
0.05534349942857493
0.05557472643613673
-0.012109094599569471
-0.0227964318178395
0.03703669725301088
-0.005744756234466258
-0.014040622377741884
0.01838731437589
0.011414151970552748
0.0853924169888856
0.014442139944182761
-0.029798570663275882
0.003386099119408502
-0.0015970813505560603
-0.01375771502040834
-0.013652373520307024
-0.020104797958298955
0.035550523986914655
0.004137866418864835
-0.018667111349675546
-0.016189941515659938
0.01631312106990282
0.001175907065002449
-0.046277426380020095
0.008909126500408437
0.06169697168380685
0.08403417014199732
0.05975042732395914
-0.06403329072588716
0.00044004134849437654
-0.009564495788079696
0.02523456907165233
0.02331016969074159
-0.051823501574906616
-0.020893534937324366
0.0489578626855262
-0.0045479469285682715
-0.02150673730426314
-0.02592446387336932
0.05076152924299384
0.009315857345349206
-0.01231194945799097
-0.05191436178984179
-0.04010984005000804
0.02478970938749545
0.019155175687028108
0.026419003964091567
0.03610306955587935
-0.004087435532512439
-0.008032218183350351
0.037175919491602684
-0.004144452270723564
0.0062187501897595365
-0.002006773567875557
-0.0029622785763911284
0.044380900367302474
-0.005015918789757484
0.02400041642238635
-0.015388522915464864
0.037575582193659085
0.014415728471607778
-0.00930681711958585
-0.01406523328228665
0.10395405426177835
-0.15090739622497742
-0.17209543415890208
0.059651647110862856
0.11593805393081459
0.06279098858187507
-0.0033290599106936066
-0.01970607812234929
-0.12098497910785179
-0.18140374936748044
-0.130044502769094
0.1869960581963672
0.02532565991843797
0.019613647928554696
-0.015005323997632776
0.040052016512655324
-0.0011081429931498411
0.03758831960931528
-0.0132825611634678
-0.06113741751210743
-0.058719701020242654
-0.17558904704265138
0.04309363060932924
-0.010124285564368915
0.019837320167823965
0.07007721324908892
-0.015591000067456732
-0.011651775191170671
0.03326070854997536
0.0748325092974915
0.01223909633505555
-0.00404496510824447
-0.026129573364244818
-0.008908369699400039
0.0049897214902042755
-0.0542798896661488
-0.07907080606423832
-0.015315707742341988
0.008718034732906704
0.033007654964703134
-0.02535184892919918
0.01740099389849243
-0.01835660965504568
-0.019948540027792023
0.08575730354873821
-0.007627242890608682
-0.04979974268334759
-0.03927376678311795
-0.022647737947207636
0.015038693286388948
0.006476175433184859
-0.07162330937696447
0.14920588654158495
0.09601647889116101
0.027405971169383498
0.16520479095962257
-0.043468544215578435
-0.047973045080712096
0.07868727403394622
0.03877671545627881
-0.05308828052692705
-0.0024773690369486985
0.01096533671901848
0.0708179920802553
0.039418552598303874
0.013628213603715498
-0.04845957001061601
0.009268207849804084
-0.04597478601075917
-0.005705936868719692
0.0018545792673137832
0.05123015193994117
0.013926553342789262
0.006612362427145692
-0.0018138262593790707
-0.02089863673332581
-0.0037758586107571805
0.054136829798103005
0.0034303010435724995
-0.043264617524189156
-0.027511000343390633
-0.0025391301988794534
-0.058114066427634885
-0.030747594402568915
-0.026785515943067374
-0.011955913511284326
-0.0163962196571072
0.013106290476157448
-0.02349370300569226
0.03731574999362866
-0.011344209453567478
0.007290497773082403
0.019252297211279593
-0.004098912076965279
-0.03644816056869941
-0.01097763650319374
0.028821571568788625
0.04162213945757052
-0.025653809257671356
0.050483403532992605
-0.10790115239380488
-0.08982055253091133
0.01597846282249417
-0.047043653328822106
0.03235724163386113
0.002956267399631323
0.010239946326540246
-0.008671958967584855
-0.04322565113944776
0.018979524462436215
0.014616026276686003
-0.013063266113782418
0.04236547651015017
-0.007984898304366874
-0.05662250270550465
0.02831283249078694
0.036230273562135006
-0.04718778175746375
0.00632775538500413
0.05904942243275427
-0.010784121509337947
-0.03646606831060548
-0.021654659577241622
-0.018410347333245564
0.011208045121017963
0.08374799975061299
-0.003727654780600811
-0.0019512155217098525
0.014936012779645768
-0.04060400039596798
-0.003689910427378556
0.022418971805271033
-0.02527029345547693
-0.01413941874114433
-0.00965720309998454
0.037077053605915324
0.0786237065438878
0.03264593562819242
0.08574835961810506
0.036788749573305295
-0.03272473823730148
-0.0246553737103733
-0.01192641835289943
0.022861242073266716
-0.003478124182877937
-0.03559861066890769
-0.03087593842561863
0.030001142691923843
0.027512151747650995
-0.041937225992718936
0.01159627169787578
-0.06184082419757817
-0.011244563930353401
-0.005475656459416536
-0.02835361809775956
-0.05200072822555047
-0.026345428815037382
-0.026740141927100093
-0.07321502843618982
0.0995630703321245
0.0971050146404978
-0.0237800569228255
-0.003508043800378615
-0.019785837914007644
0.04093039843551013
0.08710418053402699
-0.04120229311216165
-0.0025731014709910365
0.015947087690593578
-0.0029633470859066827
-0.023688347325181595
0.016825886683590568
0.07942058084702218
-0.023673882406623586
-0.02541683130982587
-0.02065639237762331
-0.01681929496505479
0.00866089475298217
0.03828762344533363
0.007466054732871529
0.00396962478903092
0.039662111480985314
-0.0037704736268002093
-0.19237082426682942
-0.006890107762142174
0.05186773148955928
0.024940640358189145
-0.025690263432322318
0.019541653210915402
-0.0025999004021381106
0.0054945382029186725
0.07087681226962472
0.01582133048423937
-0.0052596598713335425
-0.001388062076749519
0.0034337200913051487
0.004618426171594931
0.011918762135581337
0.011353576989116635
0.011206012438946401
0.01910706955197044
-0.03472641875513856
-0.00044180897580910916
-0.048619149237171005
-0.03129958881743485
0.009218195611443408
-0.015228119447230952
0.03397391713276581
-0.09834481229997385
-0.07514783144858851
0.049370174861717304
0.016746317501793773
0.06070122295721702
-0.020871855976722947
0.001192776482132852
-0.012169577383071218
0.020039688518826978
-0.020181196523528497
-0.1565269232725446
-0.003065444730535991
0.010723761906245948
0.008086069731119968
0.0016827645432096509
0.0007558055976579124
0.003704682096361526
-0.004062724471843034
-0.0024881832358489477
0.03708347456390048
0.04186031859744981
0.0660028867201241
0.06944832352128043
-0.027997612533557308
0.0010928856987421792
0.03855304626607151
0.01379789851029996
-0.010461572300862181
-0.00021462126855451163
-0.006901863813868286
0.005604614217099934
0.03350070942178096
0.009314957866753022
-0.027817776877865772
0.03788323393000123
0.017615138340443152
-0.01131291896492311
-0.1202096109142648
-0.03586796353223821
0.037432019864605884
0.007465755429909952
-0.0063144485186205305
0.010541450620552112
0.015378234054119653
-0.008016075485470097
-0.017250801085771286
0.014475806252680398
0.004059160862559143
0.0029059852700408016
-0.022161252909474752
-0.010771047468691246
0.02859198152664625
0.037101403117958905
-0.025874950371027904
0.030673654343342203
-0.09616428951879274
-0.07301150045270673
-0.03557197135415143
-0.00962831227230634
0.002249342941617695
-0.011695094734109639
0.005910294025522948
0.008019768802422066
-0.010838555065981331
-0.009017941968370618
0.015212315645808936
0.06967609578430335
0.030743481980778628
0.006308696798107627
-0.0013820130440951755
-0.0077528226478010805
-0.0020685175702313
0.007319822245297471
-0.03416868281139801
0.050633509542976886
0.1575832049800118
0.0010445464927429896
-0.00471703650858569
0.01255770348099693
7.147016386771592e-05
0.0008765427646149462
0.00028941422569054307
-0.007906386523600829
-0.014623250265579008
-0.023349911421138396
-0.021944323074616277
0.0032258351628986215
0.021145051949277942
-0.012610421464251023
-0.0002276682680135142
-0.014829791129651345
0.0030051220910565775
0.0022426836633825465
-0.013267902320787981
0.0023965658707429225
0.013168626743678623
0.01829911029324149
0.0037846535190843482
-0.01086388395588751
0.0011230491693184947
-0.0080228161934211
-0.09270893855642501
-0.009748686667491105
0.028318974721129424
0.006603554939165564
0.014364174719454807
0.0138540612211334
0.009323646701181628
0.02714057305201097
0.0009275800848038764
-0.021827748575562727
-0.016393442661425204
-0.014058850777114378
-0.04498040075482919
-0.034984251533209006
-0.0005086423606315944
-0.03197116358917048
-0.00954269830449658
0.0041793373549444835
0.008687610240649695
-0.027527634417263833
-0.0007979236141895042
0.03965766903804644
0.02732838188656558
-0.0032195592594298638
0.02183184983582038
0.1268656664816379
-0.03975087906297314
-0.1187469272225634
-0.0018756097938970756
0.014650186175013876
-0.14607886638216366
0.05937651909193309
0.16252991346907697
0.007295797532678685
0.012422484056236902
-0.01315145063534336
-0.02343248004814321
0.04399791414333534
0.02433236464730957
0.00535127970098332
0.02376340556448039
-0.009120607830514648
-0.011442558225132099
-0.042316632357159524
-0.08016991233252185
-0.04354447100004753
0.004013775444578538
0.006369805784490831
-0.014486539103482611
-0.07297933800294892
-0.01814443098275264
0.07843338468019363
0.01945329628707247
0.002995539798154792
0.00011948953221352274
0.033850052863129226
0.01705241348686534
-0.0004694654932175313
0.04940561907018421
0.002214535314623507
-0.01603681819495509
-0.04988225588121471
-0.0022192392312325947
0.0297611941112158
0.05938724327519933
-0.0010811075968828541
0.03188025059487994
-0.017668776345384073
-0.021747013509938247
-0.031293387923311905
-0.03332609188254991
-0.005437719663315268
0.024545883684499604
0.04275221880119937
-0.016393631323888776
0.019827130948898177
-0.006550323561655621
0.025392725446650166
0.0033042805817482886
0.01735223878904302
0.018298270690482916
-0.01682708390779236
-0.03203969367933444
0.003400424711980518
-0.03665338581173414
-0.02754633768825022
-0.00953067108390723
0.007165877221420942
-0.004274477651589735
-0.022226603837811162
0.0053974607064057965
-0.012769441383221204
-0.005251921201746356
0.005579239425052975
0.04297344880280585
0.057960776416366405
0.023278548089697298
-0.011072103195275192
-0.046315467117107774
-0.02359610231669463
0.008684420880891875
-0.015239941979354337
0.013682360615911215
0.04648267899014232
0.0480353222452314
0.02066726536288955
-0.019439696879699354
0.01069702335913584
-0.004249423228654324
-0.05886278757999315
-0.06936218530452419
-0.057986149562267476
0.01621306559264509
0.010509972223875662
-0.0024955437215326655
-0.008430343556032671
0.05865484350031224
-0.029808710544195195
-0.015227669081351395
-0.017921713035354375
-0.013226270267288363
-0.014186021572285526
-0.02117045234389248
-0.003511446271400741
0.010154755548204194
0.04885468214229732
0.076201300036652
-0.01761402984449956
-0.027251742592913544
0.05706377974225808
0.07101565952441471
-0.14015319207631266
-0.035700028530820514
-0.010419044534890681
0.09397184204660888
0.022421006824366697
0.004703241377643538
0.011655940616156582
0.03015767970388568
0.011169275634814103
-0.0479445601213604
0.029452822167820785
-0.016009139765175477
-0.010265971695867846
0.04083988674454289
-0.01836390375738863
0.005832388917220666
0.103980565404651
-0.004353459798658408
-0.13506794005694117
-0.005003022964296729
0.023683708718638126
0.023316828155731294
-0.020860388615432972
-0.053438684564339076
0.016773058822568614
0.033813946089372396
-0.0024300680737175165
-0.0064533502176372295
-0.07416198056828088
0.02107273710736577
0.11700529899378379
-0.015360527447535894
-0.03234835816168131
-0.019025980049299118
-0.02306209392794922
-0.0009272516422426677
0.027102137907340833
-0.0033781000087594426
-0.03707906734257717
-0.04729083174614618
0.013840059568193626
0.03638937205281319
-0.0015516952451581011
-0.03136078673661127
-0.03346500376769
0.038366891654754536
0.010386805496803393
-0.05224840816281628
-0.001784456606431978
0.04051659647917128
0.05173092252580935
-0.043771449430550634
0.0015962332990131275
-0.004074634395982604
0.030635218758169613
-0.007934514376136403
-0.005068315272707153
-0.014814432449692981
-0.0024188879428984635
-0.02463820702375805
-0.06872330894426101
-0.024837472928698937
-0.014568665703620158
0.01514254682271923
0.002051055019589138
-0.016726886166235376
0.04615305869541649
0.029746801382489585
-0.006264524640389432
-0.014717752471295925
-0.04381170618389979
-0.009800534639368395
0.013714169852225542
-0.004779227363492329
0.011230209327564208
0.012559515614275842
0.012152339290028806
-0.00019158912253033455
0.061293347659750474
-0.00868438830972209
0.0730700675216172
-0.02436543355475561
-0.015908851999956133
0.22680113238870003
-0.032977447919409215
-0.009494601647779585
-0.01804199689619871
0.01732924881062947
-0.016618239582182483
0.02319252816412002
0.039057966132071034
0.025471286295539557
0.011695673798700757
0.007108234129964715
-0.0035950775934701132
0.026046170279251855
0.0054666234847894
-0.013435130765403862
-0.02864775141224792
0.040836319501755675
-0.055886619746768125
-0.21289877260582565
0.02828867543472626
-0.019027043629635417
-0.06127982111561261
-0.007875462415378147
-0.03679463199561124
-0.08278763905163142
0.006327299405657323
-0.013728225941139984
-0.036829665432644994
-0.020352344237208532
0.010516477645939232
-0.011332729512352242
0.009860530953593887
0.0027032252276635075
0.021387483322605875
0.048046559109906246
0.011943448436277686
0.02829546469837871
-0.01766103765405303
0.07277178962505204
0.006263820302536283
-0.03789460795562986
-0.0011410347011547677
-0.03803473186576257
-0.004985174998361242
-0.0013807682482681683
0.00021563641594408035
0.06558924110210156
0.06268178613202122
0.013592204379357127
0.03213071514822552
-0.04762360822906479
0.13490108483635416
0.09804028679641741
-0.057387549329325514
-0.013612812287904435
0.002102135719442217
0.03402205242431807
-0.0005367152266456299
-0.015969749733275123
-0.035605321058257366
-0.045334926545974825
-0.016875791814157708
0.01825178973180198
-0.0775194097066981
-0.051171160045425775
0.012498430561501885
-0.01439984548329691
0.03654068458810927
-0.014596715626468958
-0.015043041831797404
0.017606271875750822
-0.004708965635483606
-0.02416163561750991
0.08384861240816856
0.046044806069922374
-0.02754309247179981
-0.004717216625862468
0.037927139962697254
-0.021448618033682112
0.0017692113226040137
-0.008704417411709795
0.026850565562430637
-0.029044658878537008
-0.1761262234514089
0.006475374866692605
0.06340825298005998
0.06850664512864704
-0.0026011484471425085
-0.038853293979991446
-0.023667080331592875
0.014327649155318638
-0.0025667154649755925
0.010544056293328184
0.018897603562075968
0.008552833062426669
0.06244114732776381
-0.00829387750860403
-0.040052159330829756
0.020840714649408582
0.024819820655145486
-0.012527486985133292
0.012302279821980403
-0.0029648004578035937
-0.019300055215720813
-0.03915407024665749
0.009133713107196104
0.002382697051776688
-0.002799217003409614
-0.1376076597913823
-0.12784145415427428
0.028183309454434702
0.0895278429629789
0.0381760015676704
-0.013585640442747583
0.059989834188466276
0.022434243184070606
0.030417651497219714
-0.01809110233580868
-0.008621995820573252
0.00838308169388344
0.003145977173242943
-0.01137965418913152
0.0414969150431549
-0.06993742452743651
-0.019583311213510615
0.02021555057206814
0.01119428764373376
0.016834265914920734
-0.007688615124052174
0.016012952588436376
0.008351245385949743
-0.021971002653353135
0.014342837369124737
0.06356457904121951
-0.03151054872081493
-0.010773061457110822
-0.007310110979341094
-0.042791188828810625
0.017575517485387708
0.0009116238903565179
0.019779889341831825
-0.015530115072989894
0.03359873931841453
0.030101829920508326
0.0031006577029614804
0.0020142337268228222
-0.0479074683840735
-0.021719443635804015
0.040071128265670934
0.07673787136495283
-0.07618526763866415
0.00016145083747619673
-0.024937932636750825
0.022081817031853586
0.031245358773199738
0.0005139123103899732
-0.006083153569926924
0.021335284099560554
0.0005984705911077959
-0.0027063913826335475
0.04820745150387152
-0.004693823846495792
0.020656559079877398
-0.0331698582594372
-0.0013708776809313824
-0.002040269344777359
0.0017132645640833475
0.0055282746235037535
-0.004700388721435913
-0.05435224351448884
-0.06263472089964849
0.01387032692431672
0.038144706662761936
-0.03012326077609592
-0.0010596712444350728
0.041113507240865876
-0.06660929883770306
-0.05590626130041067
0.03826949294215408
-0.037948642688470896
0.03344209784537351
0.013308215881855764
0.034596644542042865
0.06487412274677683
0.010043644828975977
-0.07554898808716735
-0.0357012011154726
0.014783424611740892
-0.0032331036966071975
0.04251273681596381
0.031723115832943516
0.008816892397321283
-0.0029522776708388807
-0.008573793414552108
-0.04080122687971558
0.03576951193410061
-0.03808855726889189
-0.006133771042554585
-0.0013752383976039662
-0.009414258127261063
0.015385243654353394
0.09751436257729965
-0.02088575177582492
0.005775478349716799
-0.14709791818049572
-0.17353978104009624
-0.03141976648723404
-0.02641226217166698
0.0011807167090349961
0.03701998199405032
0.08154847173887213
0.011972027266610114
0.0061066833220207485
-0.04428618427114944
0.018059257815323904
-0.012277226557999017
0.011630758192508911
0.04831312460015396
0.02342670723761959
-0.11279288051445512
0.13380011126132815
0.05718748409179103
-0.035206625881688304
0.14847097741557502
-0.010402801272955469
0.011045570370797857
-0.01618864474838683
-0.0063895496820265485
-0.032806813222028955
0.0014567833662275122
-0.038956145413468216
0.11734062885026193
0.09987119008615057
-0.05646325000428511
0.029787355381433595
