0
-0.01464746277189779
-0.017014400735939423
0.09041686562839653
0.0840702859002936
-0.004951606188794171
-0.003332892018026196
0.002822666765678586
-0.03189230053767267
0.009937403561166363
-0.004289863732888785
-0.06390202303710017
0.10395185572008143
0.10441281746065652
-0.037630472724867026
-0.018309656269173098
-0.09087304450719287
0.05465708154615055
0.07783308545286702
-0.03547977389112156
-0.02855371471305564
-0.03629300327824547
-0.004044488271067008
-0.001403199676126223
8.665161868589223e-05
0.03426400336065499
-0.0026102447455401737
-0.0100955135308079
-0.02730292853749893
-0.0004139493008604101
-0.0027506098559346433
-0.01863864136704556
-0.008208817732007446
0.0006957316673996199
0.018188989961381435
-0.014136427729050787
-0.0030398372300038724
-0.02105853802299996
-0.043665449484929265
0.05577124494839312
0.02477869815489762
-0.10316997738126119
-0.006527276505850521
-0.016334408744189583
0.06212338797403222
0.06432161762750702
-0.018658065836814685
0.02177675445854647
-0.022423090318739975
-0.008126311201664042
-0.01546153354646713
-0.013320767365058167
-0.029583377939626333
-0.01061472657610745
0.012099517921304826
0.000653206490656669
-0.0001223508141138519
0.04784007557501042
0.03354104052475391
0.0007681068700466888
0.02135089283704526
-0.025030449828845218
-0.013075787413732717
-0.008900560805725533
0.031881116615545366
0.00796547250176381
-0.03701041981728633
0.04255774246612201
0.008128631212249311
-0.039755390461904405
0.005328846759790235
-0.002825061221566557
-0.021786448881412575
0.023021718300067235
-0.015966755465722578
-0.038413982902537044
-0.020188417108520883
-0.02841551281460877
0.01699350328619559
-0.012907458411065286
-0.004150305718814291
0.01597052579005338
0.030493550097186493
-0.018999393993909146
-0.056651170234793366
-0.08317149909145205
-0.02484363849384231
0.02819031175679103
0.03580798660416501
-0.015887666243007578
0.03092546386754642
-0.030383584700546626
-0.03179790934069535
0.012508301255379465
-0.056369263370353875
-0.010020408609052829
0.025294708166735902
0.01232633288783771
0.028214680520935825
0.010667842246929366
-0.0007995312505797907
0.04926950695804811
0.03888577791944003
0.04374533243375984
0.017116085172798005
0.08558578634011936
0.048133336141421394
-0.06726804538682687
-0.008512298536561243
-0.0031967869041767643
0.011153890322750548
-0.06636102792900649
0.02017640968600965
0.10571362575489444
-0.02524759204444752
-0.11446403488718523
-0.000863752438174234
0.06819512598358335
-0.026423646681311554
-0.024459214709296326
-0.026351554743424658
0.004029664695130261
-0.010797714983077623
-0.01664699342628572
-0.02010904846347481
0.005186087159387378
-0.0011620566738302543
0.03727579502026103
-0.001215401814746003
-0.01098853792620784
0.005075307978088075
-0.017486149304707765
-0.019075655758059865
-0.007622617232692275
-0.004236561620347128
-0.003630411966299962
0.05535881433949903
-0.0005533850526991621
-0.02680691832663949
0.041164364955966426
0.07137021248400983
-0.007784302267913388
-0.017892235712347795
-0.00627566045504836
0.01697384432005231
-0.07290473609496045
0.04447494731359661
0.0824549363552554
-0.0007714036132697899
0.05975806894505734
-0.034826997489081066
0.032206005213777505
-0.16454862496112355
-0.1761922164807633
0.02756752090808302
-0.01042964815943206
0.05765892342001717
0.04671033978892871
-0.0014609144057244547
-0.04648450185319398
0.005076521747468096
0.0007580272261603486
0.014548643091858039
0.05326804943879127
0.004385511355729813
0.0031920529773095782
0.034263534100125295
0.052320850592387336
-0.05469980336041594
-0.07995531464022701
0.021163925176247437
-0.001932736333251638
0.014790745761288714
0.045470090034225794
0.02622365019129474
-0.003391594136197228
-0.02956506466358934
-0.004157608166123885
-0.027949823307590372
-0.032030402572844056
0.03077519824883333
0.05735564193429211
0.07836335151332323
0.021117964652362674
0.00810716604264178
-0.005138826348726224
0.02206286986148296
0.017455074519579415
0.012952397383070033
0.017975896831511445
0.04862781975147377
-0.03343958573409923
-0.00043655453534100825
0.016206506242552134
0.024042113150789815
-0.0026575627856057337
-0.07130479774873918
-0.11446400021471753
0.03760224967465341
-0.007526224161458507
0.003431844747113056
0.009357216259127419
0.032040163650291206
0.03123969155192253
0.0093051501222256
0.0203439102801692
0.02522175828892053
-0.15170691816820187
-0.22529574604685176
0.006519823333170915
-0.0012822376347248544
-0.031026923307356246
0.006693165406523685
-0.011843526191556493
0.044541615789725965
0.036325025494316425
0.009206518324296009
0.006276330288809836
0.05050465195746891
0.011459688667705411
0.04956118728683717
-0.057629586444874106
-0.17132368432060846
0.008790276181620227
-0.014180072901205418
0.07698473282383259
0.042606245236431056
0.022030766854707732
0.004432304143885755
0.007639709296410166
0.07229867721714647
0.0423622703012547
0.004474202087668559
-0.013873782585269457
-0.023955149889567047
0.004032953182519972
0.013151883319528804
-0.0026200347979375
-0.04672358802903445
0.015915270949885162
0.0038358162469103504
0.008102542677587924
0.03253244267028414
0.02911162702801575
-0.045935152055700694
-0.08973913417654925
0.007227933085869206
-0.032550813201107656
-0.02626528424209723
-0.012224406012578301
0.01731048486062992
0.036777016838925626
-0.014867582502578473
-0.022551790471433974
0.021397727696302646
-0.011164472712625948
0.02027833336459434
0.03401000300750881
0.028981571138497097
-0.004995170303347842
0.031076800312710096
-0.1352596439527173
-0.050612300315834684
-0.0217745261670742
0.02066710646745875
-0.0033566442718804285
0.13562473734168548
0.07811401535393579
-0.0689231234370936
0.030258598534813774
0.0030804965657192994
-0.005392209166128855
-0.06863765919542301
-0.06810942027410172
-0.05508731004981155
0.0004039540426846343
0.010865590031178677
0.015547767700688001
0.17630062404940636
0.10615944011843584
-0.04573286837389602
-0.008980387423413007
-0.011930462657158025
0.011588072866992604
-0.015103617196121768
-0.0006331093931308753
0.005542186797707072
0.01148049825864868
-0.017503143972186146
0.00039920595120834237
-0.005915445393992737
-0.019858068846280726
-0.009698303526907665
0.0021983675501399008
0.05979640692670066
0.030043317312940444
-0.03939381376340814
0.030777411999651536
0.018550473805618514
-0.007980627394782693
0.010747065593360135
-0.018628771874182756
0.0025375392636555055
-0.018013040683573664
-0.00537549725800456
-0.00253223559407793
-0.014004833192715335
-0.03750752850322325
-0.016267041543081052
0.04491594957059778
0.15060340527450483
-0.011952800422481227
0.007665165516504637
-0.023195504077651773
-0.14668044896844304
-0.006618451207221334
-0.02242463294812282
-0.011352327340800942
0.013860833939939648
-0.01778224472173683
0.05227202640303165
-0.046889416946837834
-0.0582554346410353
0.04744130750195617
-0.010460743713932845
0.00357086746540112
0.011248522146272331
0.0003310683261575123
-0.028605977477720364
0.019769277361078957
0.021103895619742137
0.04689495767867374
0.03117844586994549
-0.035860351174647406
0.03366395929122961
-0.02336571067551871
-0.003937446346105938
-0.016365031978000925
-0.01802514593573425
0.009658911205142938
-0.02216389776583332
-0.001833478029148552
0.0056813989048157135
-0.012409322405818404
-0.019006661432730353
-0.0294545737905097
0.012779191338081293
-0.0196359598309405
0.025259406539416586
-0.039113058688517
-0.000611197426669257
0.0031772249490791687
0.012869591021373687
0.041771790367342736
0.03204957864001952
-0.0017555096686113331
0.008268532514464164
-0.014072512226536278
-0.02772674440779409
0.053000439852151256
0.019818195295236873
-0.020629172886247993
-0.025296199477833903
-0.03944512938359639
0.02005456896800171
-0.011173291068025469
-0.011687902379342661
0.01044922048450359
0.024346799850310876
0.015838042093513048
0.04172279589626195
-0.06153519119024247
-0.0402194883240661
-0.012840863007629358
-0.022922558775280377
0.008655455932312246
-0.02952083180063994
0.07594368231194155
0.04451394000948873
-0.007076964286559309
-0.0042431641727346085
0.012435015368968854
-0.032426568128000335
-0.0029980719256061574
0.0787554928117341
-0.09161850019638894
-0.06539070238164932
0.004473319967672715
-0.04515563026562747
0.0929763099663817
0.026377016516177722
-0.012172465221340334
0.011669530170440331
-0.03826592136170428
0.025423215290578977
0.05503076542278574
0.022762096392335996
-0.031747059465994425
-0.0080160180326746
-0.04659320742230688
-0.025311762598598745
-0.0133251548677298
-0.014430318289265111
0.006066119956967342
0.04459525432739566
-0.01507849518933121
-0.02023585365184533
0.01572101576822572
0.01138542348981957
0.040210874590384645
-0.006440503690573059
-0.01965025744026831
0.018879600308635003
-0.004707948173239279
0.08018184997744986
0.05160160323035441
-0.049696734735126355
0.012989988490205603
0.016997805111619003
0.030171392922929245
-0.0006143069978221649
0.020078764269366667
-0.02856893113454597
-0.039284433425056726
-0.031193563836950405
-0.0030869993216165975
0.009594622298036044
-0.020905816420548368
-0.015436895063701295
-0.012046118394475554
0.001299850167639876
0.03655038433731844
0.006622792912462916
-0.02126685391192664
0.007997068089108751
0.029551309796554723
-0.019566935830998042
-0.035720876309530136
0.0077856212902795595
0.05474666760481737
-0.0009244540884412956
-0.0034672610886104026
-0.01283835094923863
0.03951849975544378
0.022637358164313805
-0.020667083641335533
-0.009206642076773566
-0.0371646493014436
0.02796686341236384
0.0278290488627659
0.003128949264686133
-0.01581601266256752
-0.00502321821005819
-0.02563901676973536
-0.04615031495640753
-0.04595444731544653
-0.004442354595972829
0.028086520595017123
0.07273653640115503
0.007905780524429237
-0.028129581872151078
0.003101897840217968
-0.01942552561841465
0.02437008218321632
0.009797488116220027
-0.02945904697381309
0.0086217062646515
0.010335953525118052
0.026072641450376244
0.035416435990948805
-0.052417694624877
-0.014582974430968974
0.030111246548583402
-0.02552904960704492
0.03793609675491174
-0.003133874201594403
-0.2218423164500289
-0.04074815562368318
0.024858649707290854
-0.030110175193893658
-0.037780601975653784
-0.014531368629460606
0.0036764127982922778
0.010487424207083377
0.018270816161150182
0.012170802708816741
0.004406585109956347
-0.021167085285396094
0.024586650667492296
0.014088926532529798
0.08063461993456698
0.032874337623886994
-0.024867659007916716
-0.010166288032521007
-0.03044963026177938
0.02329704097951725
-0.007561168530870061
0.06139055176134373
0.06624271147975125
-0.05470352197319051
0.07696644635772006
0.04075080614326356
-0.06320597511922621
-0.00530406949305431
-0.04379804916100879
0.011178501507191293
-0.005712665945018727
0.05022664129790471
0.024483738260536025
0.010321661347201022
0.04939822878236062
-0.000755219669023857
-0.009049486112929108
0.0110869059863671
0.01206855053584878
0.022028988107501164
0.015998714066405323
0.002528948206538263
0.013558348298261217
-0.019643113969782685
-0.014543203982040261
-0.03350743517722707
0.03441528640372183
0.10243163202061657
0.01988466626572457
-0.12581107251588947
-0.20835554543751952
-0.01648397653050196
-0.0695990277606197
0.01255809527292101
-0.024140267389477315
0.026420455986892705
0.014017619952318757
-0.00015194783782998731
0.003624791093500404
0.013472678120609202
0.08269982943736881
0.11848650657391582
0.07495887619827742
0.06358412378227055
-0.017166610090009634
0.021369144492053765
-0.08432791670870105
-0.020243972514709795
-0.01794413798076776
0.045989153402127655
-0.06305399631018288
-0.08154492504656018
0.04059570781517116
0.0012435784241703182
0.024063432631980512
0.01365150045540038
-0.0004167482059519712
0.06815926109492343
-0.10862925108292973
-0.15926470607340965
0.06466922814836487
-0.02300601033646335
0.005519078691113285
0.0011480946070551346
0.05377943770508437
0.03286428751851951
0.02791344926500204
-0.1443633093189297
-0.15545808450979248
0.02974149165058601
0.023598570443679776
0.022909892270063268
0.01716408088594691
0.03208157534335977
-0.001302792175226979
0.027156351112936176
0.014311421394315795
0.03236754639392973
0.05224132290435989
-0.016654335951167214
-0.007111736576490018
0.02325784278253224
0.060962525636478485
-0.02209601493069139
-0.10052190892835751
0.018108575605698358
0.0021179417939922924
0.054461786470443356
0.025374940978889607
-0.010353016080644196
-0.04454450160993084
0.04397226673000819
0.002450201616406774
0.016334323483940403
-0.01534770256193162
0.016275412692490984
-0.021794821023075395
0.013864540297421754
-0.014238001022785305
0.025590479247273756
0.01442943527999697
0.0005773176346078095
-0.01519311785441103
0.027147032977053613
-0.0053463310657584345
-0.04660685891080495
0.00025639215319970415
-0.010438109372832608
0.01771459544089075
0.023897803186547807
0.01603278228407797
0.0009730894470924024
-0.012353237320074274
-0.03062368687231749
-0.01291784627308524
0.004276563235057667
0.004418368873078521
0.029489874116776643
-0.010478961973624752
-0.01203546600249267
-0.003418789644096871
0.01776223178568154
0.028521936291700103
0.00500820424542473
-0.014338094198099843
-0.020170560154827478
-0.24338056411796952
-0.056609996354527355
0.03184690556729271
0.010913499016609401
-0.02128323843191194
-0.006869938727998061
-0.06369245820481376
0.09007952103293959
0.10148154571774466
-0.028076796317374062
0.0022032855828143256
-0.002460060155386983
0.06341702279394358
0.06802591024707519
0.00017317346573798642
0.0010884422311436051
-0.02041356046955158
0.041582422582940065
-0.0024087176237974897
0.04856157267174188
0.040873451105879866
-0.02797352089583708
-0.04844317944808556
-0.053190637730030854
0.023658652436096456
-0.0004984719525370538
-0.013911869024700997
-0.010375028736926547
-0.0006829695953633455
-0.07257841403526734
0.024923362800691382
0.027484906104182437
-0.043405470597033646
-0.017947257858156977
-0.011924710212022873
-0.03438560914151212
0.025639123102624062
0.13316699765659548
-0.08236573860383116
0.0049202669281348844
-0.0002784539708733192
-0.013319835952008066
-0.02026282009264196
0.1720632485119467
0.10037348131784503
-0.03220474879635744
-0.0023727991082797186
0.02012595917041229
-0.009641305022402225
-0.014189925916973035
-0.012956876905748307
-0.0413690348959778
0.008059213073019834
0.040804775582209185
0.01965859278847585
-0.03020459538679947
-0.03998966216034817
-0.04534671092742819
-0.05941314101385944
0.009672016657321926
0.01636624142833254
0.006509641088284925
-0.04921470778421346
-0.02632132358089101
0.005338686953469741
0.05312649355163177
0.18332086162177755
0.02008403579489192
-0.045512625568192716
-0.039178518279516
-0.010168817928419983
-0.01183542332816709
-0.015813985555378784
-0.02354855286001524
-0.02727582900624554
-0.010056112618528934
-0.0337321974859749
0.05604909163523258
0.014901491024519192
-0.012191424645057984
0.07170475167819526
0.008933180636903251
-0.033762194088567954
0.010541125462551095
-0.023163654352456244
-0.03335472290858536
-0.052218024644219416
-0.012679357596295267
-0.03593529360426141
0.006288283104672267
0.0017049485471866256
0.010934858360404837
-0.02313475505705338
0.003885024560631125
0.08153491675009829
0.02266803810501898
0.06164605940323309
0.0471470500143186
0.02631853577014426
0.025661702174237626
-0.13731200757760523
-0.11919647925875257
-0.003405535571427114
-0.07478408628939812
0.141343127883634
0.04995659291137307
-0.024713157420359136
-0.022160661292731712
0.030438477455700087
-0.03948929914462737
-0.14220325249285584
0.028767271193270355
-0.026503202797475034
-0.00639399346373067
0.030645837691770574
-0.03769949364626587
-0.04781373615395742
0.03666965230374048
-0.016341066088664934
0.030835634966596064
0.014070670546002218
0.0075761690713577095
0.0019715340470654896
-0.04294003021161226
-0.022541224997743452
0.13413239620259124
-0.05115086689983791
-0.030449707776470148
-0.04503113172260701
0.09876928917150113
0.05687645080915301
0.08417058543807816
0.030181176806570068
0.01664197610814414
0.01767074298519522
-0.001537146165783813
0.03901458605796183
-0.009809430735109082
0.00507373350945798
0.024263793601904463
-0.004235336447962346
-0.015815669328740196
-0.018167470783878602
-0.029789021463509625
0.007167515486259463
-0.019533007098566223
-0.005748809138161676
-0.019022442744543424
0.03332979882610317
-0.010657017795467861
-0.005618589093052463
0.012169501186859015
0.0302154565838003
-0.010318419408402023
-0.01974333682421333
0.016924936253802578
0.017967519493847867
-0.003067113540926822
0.0027007477346740953
-0.07986425809303188
-0.03970596192946592
0.011480867525258209
0.004790079616032281
0.006059012852794313
-0.03350917572249381
-0.15339702708933112
-0.006843944791431519
0.01721207465220156
-0.018740514753518872
0.0010042486326312975
-0.03199712608146448
0.06537581043940718
0.05473973287976052
-0.010552745829413282
-0.0033220466774320206
0.07825315867359475
0.030380010714426555
-0.0028327899106540045
-0.056950864805949235
-0.03259605941605834
0.006050921340659403
0.0034030134187838556
0.006701871070632193
-0.010968659003564233
0.03846380760157458
0.04644713021026908
0.00820970105703828
0.008901293240288844
0.05043143872900151
0.003386544716199334
0.00328199992035671
-0.007128663701979447
0.04029965144697901
-0.010578442744184555
-0.04989331568272272
-0.0019616162825941206
-0.009431354694056142
-0.0385889117914751
-0.018388811835061043
-0.02565628104369448
-0.026416613664990336
-0.020970577798491524
-0.012277726084896499
-0.03352013254485051
-0.04918634111228049
-0.024440826632771147
0.005783692945097099
0.01712127410128336
-0.031635340758599806
0.024105973966499147
0.013238569400011576
0.04679503058210626
0.035226512701430394
-0.0477885718886728
0.08695573284550363
0.1540720364426927
0.02065240819645979
-0.010199700483752934
0.0046880278225530075
0.02980679999520315
-0.03172335546461572
0.033310581727811865
0.04136557747836588
0.011515945813751633
0.04142010954469357
-0.06814867956511375
-0.16916918518437682
0.007948958754219807
-0.027797081069269963
0.02099438679115307
-0.0093512233193725
0.0023154845463334234
-0.009392820228593739
-0.012629940304343343
-0.01883187207407677
0.014070583654690908
-0.023215712404035433
0.02670210222748632
-0.040225108578266985
-0.004430320360631018
0.04499245244220609
0.0011397148240397843
-0.005364445297220511
0.017374770725479584
-0.030708728711190268
-0.00929087722982122
0.02264235429348155
0.03447605989380164
0.03359989480366582
0.02698708693092191
-0.00423638219129697
-0.03798549745310229
0.01345013121763641
-0.17436161499504368
0.01804258258903518
0.034737946464395875
0.026321597229492046
-0.016387712379858924
0.0038888391744792182
0.022382891664020778
-0.0020878089961830367
-0.011738568112452942
0.010217290758815672
0.024862028614590505
0.1180714231650464
0.1380756760479717
-0.03436090895575415
0.015878462092321417
-0.011226526972108896
0.020607139353661503
-0.009422929782694102
-0.025957165226341946
0.02810600323510997
0.0499044152088069
-0.009349565501729221
0.038278073081140084
0.006014788632852347
-0.012922076345415876
-0.16120642956102213
-0.2944591165623528
-0.003545647279506042
0.01367789245104673
0.011136522569455727
0.03238720407523658
0.0001871085917365634
-0.01673937720640907
-0.0023902718658024335
0.002187819566876346
0.009347864349213229
-0.0002982767053454815
0.01764316346601677
0.03010908147895731
-0.0034116688559552785
0.027120780291705796
-0.027957853032976095
-0.026203647652370737
0.008788680883184954
0.019482895224015594
0.018604040255479095
0.01205816260796486
-0.053453038944866096
0.02437376894882556
0.02500479696968098
-0.029638614268545086
-0.010576994050204513
0.026962492100243266
0.05660944065484303
0.03373194444188773
-0.13946758916543875
-0.07877138863929153
0.0012529213746486601
-0.03072271607713994
-0.05997857705446062
0.025137686732409802
-0.011008801143414688
0.07597276979293545
0.11930822283163343
-0.009182059291672017
0.016796368046682105
-0.007551076717844595
-0.01088452452015479
0.008244457201815263
0.06919165274924811
0.037084312084720863
0.024124207826506056
0.00880817717040904
0.0377665660048221
0.012797189986122944
-0.0015393048168631262
-0.012704091575140245
0.009497186159366481
-0.021449181194534497
0.04690399260863649
0.011902945268369467
0.007712664698339202
0.01922753575694925
-0.01408597804620553
-0.011020067059169676
-0.002211395197307612
-0.00440092043716457
0.00038348676795936114
-0.006349772243348802
-0.06453692695462383
-0.040306580793442105
-0.003425148182973538
-0.08870561731473904
-0.010812046210037658
0.014733587550710995
0.01734318754671606
-0.0045876722338826035
0.010094381103050483
0.03363528713816254
-0.014214030197802839
-0.029356681768993243
-0.00785658554717562
-0.01071335696853908
0.010790985814988475
0.015036367201607321
0.020779718382917266
0.019474812520437264
-0.0007006457646421478
-0.01057604332494823
0.009952825265851103
0.00041797123865530114
0.005813773955045196
-0.01600061133042321
-0.008207281659168538
-0.01429428649547782
0.003504703854407255
0.046764209479244354
-0.003952514545246307
-0.052233785313885735
0.006964307997157898
-0.0016766872562368634
0.019954910309335248
-0.01325769959463051
-0.03009878420424277
0.04717053193103098
-0.004826434466211383
0.016691681524753376
0.02262088973492159
-0.046078295032564956
-0.05250251498665859
0.01139803137613887
-0.038857823784866095
0.004213968706566272
0.04206933823099427
0.04097057778861938
-0.005053785675300843
0.06273245428789188
0.15624014388834345
-0.06459179212275704
-0.07581882891168217
-0.004451346250852584
-0.02186899587299799
-0.02290655755315118
-0.014238603152983394
-0.014284894529495617
0.042511458941683185
0.00881896903457145
0.029718538814745944
-0.008509719209029397
-0.04282193918087502
-0.017660806719298153
0.02373295421914662
0.0036660806107118465
-0.00186131525618704
0.015574932891623882
-0.07473253610834538
-0.03087353868173293
0.01847357323704198
0.005279782531595593
0.0011766500207842777
0.02017887148435889
0.0203323883891834
0.005372203834285068
0.10511666206339958
0.0010138013167807463
-0.0056311922068211775
0.018152814555559796
-0.005774554479736449
-0.0307972401989026
-0.038944822189135773
0.01513920654205028
-0.029698620591796544
0.06286897830721287
-0.03443272416243437
-0.18149172534395527
0.02359080066471525
-0.04931358165204231
-0.005688828203845082
-0.011778475739694073
0.017023462384696757
-0.020798866546225585
0.0008510129358707483
-0.009298845754571404
-0.005512107925654892
0.008268557261499844
0.012466912971727851
-0.02559832574880788
-0.02627191636158892
0.049782751228836956
-0.04587935003038103
-0.017419703181475926
0.029768046482353972
0.04584205115718052
0.062271035470255386
0.04097311887791575
0.04942061593821327
-0.007054549468111042
-0.019747248580536232
-0.0008367768787704364
0.030455293853279095
0.03572674286433553
-0.02882696778762966
0.04663616567753363
0.06846711050923943
0.04006163335431222
-0.025043114759221795
-0.015496791044037332
-0.028500620787081803
-0.04761833504679255
-0.022482693113765623
0.01801159310638563
-0.017175535256613708
0.005366347572322702
-0.01644340671965837
0.040217449650285356
0.10003980319023346
0.005861395890855956
-0.00017670016759556792
0.0030571311157083325
0.011436964428050526
-0.009938974233060421
0.01734518068606169
-0.07336246846803147
-0.022101755807170838
-0.03738899702774474
-0.007522912230281855
-0.05270227371957615
0.023968419491612727
0.04549897315709542
-0.09459336968617449
-0.05850265612720165
0.05782213993940293
0.0788328791845848
-0.021478457838128077
0.05357115929580477
-0.08682299668152009
-0.09387165754855746
-0.020926730247874337
-0.033720580964427246
0.018885546566684334
0.04430289540452767
-0.024130199462559256
0.03359985755413482
0.0767879726312541
0.04864413256043473
-3.073286732563792e-05
0.06135911330412827
-0.05403859209428794
-0.029161123124440122
-0.011597515841778393
-0.030135112410368696
-0.008384828456074045
0.0435876614542168
0.04661490674747375
-0.012049454177477504
-0.0006028263600168075
-0.019426061739527444
-0.011701546870931022
0.01310568062839667
-0.05979848776036532
-0.017382795644920273
-0.01894834141390077
-0.012089000184850632
0.012993784951351868
0.008267047770110914
0.017279237108014184
-0.0036945800501646782
0.0033970812956101585
-0.03531685340379355
-0.034021442422448055
-9.303328163102711e-05
0.00954165364637717
0.0014547140180812886
-0.011553726577221046
0.032100518525844154
0.04522744068204507
0.005232892752965693
0.025375240053172758
-0.011035891902540357
0.00798900769206054
-0.010835341534520362
-0.01651647773391728
-0.023976361137964367
0.0028055436251944476
-0.05598950033392957
0.014919912637654553
0.0005464854125800247
-0.04165340565290138
-0.0061346976015777335
0.04681981630273163
0.027267648919470807
0.004200922429876385
0.016433921838133605
-0.023810093448503895
0.015474728110436127
0.03464957586841333
-0.010055147592539386
-0.017773303501842908
0.022245222615359814
0.0754897530351743
0.16337517106305888
0.01683204637882286
-0.04931143340509335
0.023214251045275008
0.015059913399812901
-0.036260674632830586
-0.0008242546400085231
-0.02443860740805258
0.023202869909375128
-0.04643501467824817
-0.018531635598829282
-0.00223878425895732
-0.014059465180837755
0.055601026139980414
0.004926632566817035
-0.03540839107486849
-0.06086683672570973
0.0033909020689824394
0.10223003593865898
0.04412098470957032
-0.03422617104284194
0.03338959472469361
-0.06447043910814383
-0.17063489432037524
-0.021946546947849085
-0.16101073765369933
-0.028600215528129434
0.032904092929844586
0.03320120764086821
0.02563935312512928
-0.010971831646220242
-0.026949007850284753
-0.03175997196227541
0.023857268460786618
-0.023019973670244956
0.1151139936921188
0.059579692549052495
-0.018908646621158345
0.002958923959757888
-0.01932192215854806
-0.029916239433754627
-0.02290810414592646
0.044796525844439036
0.08095733112336974
-0.008640683443059806
-0.009528228349913966
-0.015383184230034957
-0.006435010633190237
0.01676360013443474
0.010393808147588066
-0.006228527980157446
-0.012737341058853928
-0.0274685468258294
0.00012048336413923755
-0.03661851544418185
0.0008604156322582175
0.00719643211718109
-0.024918616735773814
0.0053735300704654924
-0.06872667037245946
-0.03918071750942522
0.0920008314920667
0.10004554896792794
0.0359297648818648
-0.02674932496035252
-0.036536776188650574
-0.01433282765544085
0.0036224953461247216
0.026070095430896383
0.044877743291793365
0.05350014470940439
0.03416618801182352
0.009370886031925206
-0.013963593678608053
-0.03853533445742716
0.20405689284384543
0.02964830255961251
-0.03733310159422568
-0.013264502865997336
-0.03673654110824271
-0.03123543283874169
-0.015739225103689785
0.0506903435758299
-0.07394051727188133
-0.026528273730772205
-0.012561767631088403
-0.04157426133962753
-0.02741052650547865
-0.0016324679275848523
-0.02938819408653648
-0.022133458664232036
0.038793805408268406
-0.0027764822791210824
-0.00786950118707984
-0.008911010207028959
-0.031061746065396367
-0.013188441900039576
0.031206393023629514
-0.019241011631000456
-0.020394869209830847
-0.021525299866977547
-0.003756886048233904
0.061599441953561214
0.02494833559145369
0.002823967004325138
-0.0006650496236966966
-0.0065958771272258306
0.03793498229216208
0.018025439533773165
-0.052790102748439593
-0.027565841617898865
-0.011109922113843491
-0.02521856760113367
-0.007418371406349712
-0.013684196240657996
0.06268247557696358
0.03869967053618219
-0.004492671873124228
-0.029914638512758773
0.005389938449382573
-0.002501048161910675
0.018318170308015972
0.022233637337915692
-0.0017722462439690018
-0.027989951528059505
0.07908704403597024
0.16367384414419778
-0.04829963331570093
0.01910039560725757
-0.18554185840518406
-0.10112935914424276
0.03998049942891066
-0.009833171589264826
-0.0005431860006823311
-0.04673359427075524
0.02817905010534152
0.0077786720063855825
-0.0335076613027877
-0.03303919819010248
0.037540844263098574
0.03133537437990426
-0.0059733879553527875
-0.015074290658017781
0.0290101507043477
0.026438759276947117
-0.010769953068666004
0.013514266515263442
0.012102190748365505
0.004202198594949958
-0.02014503441652369
-0.02822835730392396
-0.005779139154970407
0.016174264591454567
0.03837560554348303
-0.019767932816505403
-0.02150824784931017
-0.022377033353789978
-0.0057322932877192
0.004043056980105442
0.015799359167087905
0.003049196691860586
0.0025324434551802825
0.042025040988181
0.022838826872610678
-0.01375275294924759
-0.005756875854023947
0.004561042735724075
0.09665505773397186
-0.02386036485693844
0.0015314039971499184
-0.05850539547271902
-0.0077127620073456854
0.0011349715542464597
0.01596207657964877
-0.013211738459954521
-0.08641753149464612
0.008613615446710611
-0.00904531862516098
-0.004166675143192816
0.04412991697762529
0.04592760615955765
0.0031209616209899884
-0.02399157286927506
0.02799137641611204
0.015844392062441762
-0.002050492168494388
-0.000600076800412381
-0.008175438524968465
0.0028994444953032686
-0.01680295433419044
0.003358557771135766
0.013613633602733132
-0.015538210305122365
0.007818407529256626
0.0015069800347044095
0.016842098799023333
0.01928507374458929
0.0006709653244364713
-0.025653507993593082
0.010044638054518417
-0.009569022290072345
0.09380653895260802
0.04789808532882312
0.01945509346654825
0.030192559929972378
0.005599963045738094
-0.005624293101281466
0.0066576982694956585
-0.06038244116811573
-0.09369169102984592
0.012017421393033079
-0.028325743281909482
0.0358456566329111
-0.04687665164305594
-0.10514834718443859
-0.01913493855793004
-0.10047528705119217
-0.08330875990863623
0.018048230974145672
0.037479298784497704
0.022222822243186256
0.010306635420725591
0.022232782099466233
-0.028712430398919516
-0.014753211548879243
0.07701388562161599
0.03614910126792692
-0.024328873999332035
0.00033471534313554073
0.017922729980994808
-0.005048335457305371
-0.023414626775980534
0.002088991919587905
0.020955634108676843
0.03304546488032278
-0.02678524930169977
0.013363229105619469
0.0018576965794249807
0.037692459047861254
0.014962213671591448
0.0419433834667045
0.05285021638047316
0.02611652462872396
-0.018137737620558977
0.011163916618487011
-0.006898141730809762
-0.013891008950391396
-0.019493743349262068
0.012823231027943692
-0.008604153751639821
0.02656950023525559
-0.01738067498938927
0.027849263323762297
-0.012299868896564484
0.039734985202472775
0.12358073938666762
0.018396851371350827
-0.024755213091257108
-0.16104815036449419
-0.001444077489747478
0.049315781595554234
-0.05024081345123063
0.026532066153932752
-0.21406024880511004
-0.07932661711516936
0.020295497519161754
0.007829458660072938
-0.014503349851478085
0.02715762806048155
0.020512044140172433
-0.0843362815404721
0.03955081016394296
-0.026883107762308595
0.002271501569527738
0.040703579625771764
0.0019819706057494623
-0.0022074472690940153
0.05101790729913884
0.009549342006745818
0.04923119299993234
0.07339763260392022
0.023552688328693575
-0.0022678896693178684
0.030787865815506722
0.008040423593968844
0.07982146242032764
-0.02710561879447235
0.014789370948020993
-0.026328732099783102
0.012273886500507095
-0.21881663603268417
-0.07176284318201787
0.07733447346705156
0.00207121363568877
0.055438663019662444
0.005558092850150633
-0.02290371619957337
0.005312219053583173
0.01098109842722044
0.034354030988133756
-0.026457513804096687
-0.004987139253358124
0.02813523085384254
-0.03250113130332817
0.01012499510489776
0.1325526780687329
0.004254249249169771
-0.056634787683795464
0.02901573123710219
0.06571570699535952
-0.00147020815681444
0.05950509997740923
-0.010763709755427146
0.012538320072178047
-0.07166873961570126
-0.1597676273687601
0.02813654673447974
-0.0063222492765640115
-0.05334579170779521
-0.026832563598915296
-0.008319090612988913
0.024989284704333647
0.006424726051751417
0.012739385012405806
-5.451169712324118e-05
-0.0005080158337104164
