0
-0.010330328659072794
-0.033675367120329806
-0.044212744111561175
0.02841546940137704
0.04141140209756332
0.004661946207557952
0.012942325179387829
-0.020589527472177942
-0.001271558309664994
0.006089369262479698
0.00894514797469393
0.017685752752300107
0.006594840472396056
0.007763210882054703
-0.021408294947321254
-0.0012180005021903057
-0.005440115673339731
-0.020463628571116894
-0.17023433348462774
-0.04476359284862731
-0.005550726269456192
-0.01788516148742556
-0.06421848637783337
-0.034829342855552295
0.02954663814979598
-0.054269451211752424
0.017559186612690802
0.13259070576720228
0.08185821304146049
0.07186745148484665
-0.008973180376209616
-0.01887030462801563
0.013214533810044924
-0.0008469923551041417
0.02071839212438557
0.08428334016467953
0.015587669541894656
-0.05989479979840703
0.053662498225196635
0.08916438824431906
-0.006037854668285903
0.04299568863380596
-0.07485729811895109
-0.010590215288134657
-0.06603401874908636
-0.0002127434577864113
-0.018729608150873607
-0.02012455891242502
-0.007865170123898787
-0.04129270544925897
-0.011552435914717232
0.016072852311586866
-0.01612509574849872
0.046910702596932426
-0.003961092744467321
-0.00074297772480027
-0.01644144812959998
-0.012444867485972786
-0.026349031801489734
0.04195530895500631
0.08220197055858133
-0.017604105991637198
0.021812272185123275
-0.014691224977457161
-0.007678544288677345
0.018017192379660575
0.03678614114300813
-0.05295319986895162
-0.0009022346933490803
-0.0022070156304770856
-0.009715273585063414
-0.04330922154270594
-0.012722651444671345
0.020141517811769576
0.013641892971709148
-0.024940042575945467
-0.038096981726963644
-0.016396798925111106
0.00016322772433426133
-0.006217002173518462
0.008963852751588949
-0.0017291569471729665
-0.0163470125436472
-0.0012615266220685024
-0.053037186525402014
0.030686871486238335
0.19890535710385424
-0.012759934485726805
-0.016115058881104226
-0.027779981591735458
0.0110480228429244
-0.015503455046039522
-0.016094141846076056
0.0003187664713299324
0.030780604796176413
0.004063232608686699
-0.016334700914122757
-0.02879325124579731
0.0014742618580680432
0.03397362126112191
0.06807205874742617
-0.029013510412594565
0.011480986602297297
-0.16693932434477204
-0.10707437900046878
0.062008559893298947
0.042901982072921827
-0.024242280602843662
-0.008729707927356936
-0.041543885407721665
-0.013833847890072262
0.007351772811796247
-0.00852028378657829
-0.021924954301869897
0.0055898106194468165
0.08433194827492915
-0.004709369445484459
-0.04898321928065771
0.01147070453174185
0.029182358071908176
0.03393766793183356
0.1021576065907957
-0.015634033215613127
-0.018626679398533588
0.003952467365777084
0.009070998868752117
0.022001222360509925
-0.00851383688372094
-0.02734298124675727
-0.02298177920585063
0.05796476898147477
0.03406935427684514
-0.0034884948516648085
0.016298443352479652
-0.009907083920528323
-0.011714011238833576
0.05670766992993486
0.018891265089624472
0.028313100339245646
0.04017895507663739
0.038533706070949886
-0.00790398045389864
0.031636941110268144
0.05754047830830027
-0.001387354173880105
-0.010687175768982333
0.008485701383076935
0.04875270954295534
-0.19876929212192992
-0.1282826683255987
0.08746695585706514
-0.0013236856522630908
-0.028885503528478608
-0.03874858209807481
0.05958152077097054
0.03214586106472624
-0.001663865020280796
-0.03292462127396183
-0.0917406362020525
-0.028950572602943994
0.06728499839680788
-0.13829229710662921
-0.05572147515522296
0.019790339839251284
-0.019275338249155977
-0.01800399325594445
-0.007377389853927816
0.0018901501807584034
0.05463139979146073
0.04758498108977006
-0.014420290700527204
-0.008025818846539237
-0.003562667051343508
0.012673640885659582
-0.013931718106304643
-0.04615494883980797
0.011667011929738886
0.03867077591512152
0.013694111494115287
-0.007815525706045467
-0.007966667689342071
-0.03300830936009951
0.01505129442345805
0.005460522441579441
0.020879360357815128
0.019187774182069395
0.02045268251785631
-0.008521066241226222
-0.0017661054424624794
0.018543593987678186
0.052667043562151294
0.0009873216275397764
0.004804533923288748
-0.00024244033720725075
0.05459434425805212
-0.14517484326379165
-0.10709254994401414
0.0028206956959570336
0.015315277013331328
0.014066230352344474
-0.035944223234707806
0.11546837736486633
0.022418092668371088
-0.010694362007978053
0.013379392553580649
-0.02864239943724861
-0.007935146381834113
-0.026345357044458093
0.0020726728600939446
0.013850414400280857
-0.02863069105589667
-0.026181657501313904
-0.014264635191059123
0.031661522479702164
0.07138768943075129
-0.013454703162241066
0.009124359872375018
0.07265181371736357
-0.0203012685535828
-0.004553368455438459
-0.03214409348288092
0.026690420553437507
0.03976072897711326
-0.008716339118907537
-0.006581094681129756
-0.014389553474298523
-0.021482726113913376
0.018209130319195917
-0.02121306234055942
0.024352425164418948
0.015029105097922555
0.17653946635633455
0.06058811426009387
-0.1101135878427236
-0.0497537018586582
-0.042235626375356695
-0.03803858165859579
0.02454012444833352
-0.0010462653369359485
-0.03687562155419621
-0.023861286830977407
-0.004041996847175279
0.039593754101009404
0.03019823773641271
-0.044069478338644025
0.03896677820943359
0.024774497119647156
-0.04209746902669579
-0.02144218759382749
0.02931041422487031
-0.0396725289143294
-0.02862615458581301
0.04906038807505196
0.029434558135792634
0.009783719149146407
0.02545859208436785
0.015126974092741094
-0.053464463401873503
0.013907129155599307
0.01306757588412358
-0.010225945202762415
0.00446028374042645
0.02073491922499492
-0.012438252025170378
-0.0013910189912962135
0.02763780462860771
-0.030340162756632802
-0.006444211991447333
0.02105568295114384
0.018685025421012275
-0.016937079936354085
0.00048584482779679767
-0.0460161087127317
-0.004374180734328853
0.04129931484943083
-0.007405266774586175
-0.053467476093916104
-0.0010113604149937824
0.01468107776029523
0.007946618175961078
-0.012097354164446595
-0.005420658732157848
-0.014742535702854513
0.023415730506673352
-0.02021993646865959
0.06422300482248378
-0.019003947044908237
0.035023672230145984
-0.12093231429512631
-0.10955269644092837
-0.0714775002840053
-0.024476928945148427
0.03821116668357034
-0.01165577977250662
0.010761129542656782
-0.018516040085172016
0.06364632869464772
0.04431643899141277
0.05545952668569878
-0.0024318735583932407
-0.04417945277203946
-0.008179573182883227
-0.011314640149197835
-0.015094303442427869
0.012921540846510374
0.016306602546488743
-0.007675351403169419
-0.01879691541296148
0.028342658830474564
0.05658936939912731
0.028760013141374583
0.004033457048481616
0.003446180496973028
-0.01952517050093299
-0.03232100449964926
0.11604978103826008
0.013684121068298225
0.007759092726393972
-0.03646042049583256
0.013558588353512462
0.19241650440630143
0.042428624490489585
-0.031112413671598706
0.008946189711904544
-0.01368227452630202
0.0003295159022089288
-0.026724005121871664
0.020696126230330483
-0.06854811867147452
-0.003158914976812099
0.038571913823523846
0.009444485606840533
-0.20384383636219486
-0.09844266009221958
0.05867295114181198
-0.01479381577073836
-0.005398765311340483
-0.006938278528818886
0.0380212577240806
-0.017984022710678945
0.0006461195225241169
0.003544461017315321
-0.00813322869429062
-0.04609129571856061
-0.01822843558172057
-0.04264390371307278
0.022250172182993477
0.0543011340645193
0.003734494693984505
0.0013254244836635
-0.01718024298025777
-0.012376562585918504
0.027217689183175093
-0.030037602440554374
-0.0058563951750558434
0.051081487011426174
0.047111573406170434
0.011565267252577657
0.0879261597805063
0.0011610222034770439
-0.03015085183816628
0.022146460252557697
-0.017516792507403758
-0.026630326937511776
-0.014901660671640914
0.0020139482294142235
-0.002273642980940188
-0.003861007477520878
0.0019583822712295395
-0.021249985248665774
-0.011433683662744224
-0.023815783788824787
-0.00871622722172874
-0.04392594529761482
-0.039289596176365814
0.01726597290849813
-0.018034937440088147
-0.024565402856984338
0.030726116608402975
-0.015243501616679818
-0.021546500912939234
0.06704484273266276
0.06638116986803708
-0.05111626097649698
-0.03945160718667962
0.026895900235497764
0.046398924758565566
0.03247653329371282
0.005334796097669722
-0.02167012000588434
-0.033971545641196255
-0.018388772929092242
0.03209245125737459
0.008647182650399283
-0.01684295576920654
0.020549593004982665
0.09827723252064029
0.0013222923763139616
0.052297392604313625
0.03189502398340515
-0.017641599468398137
-0.01432032359284189
-0.05416501765758013
0.04350217116587412
0.059421946576446796
-0.06530171708842869
0.006860589065650804
-0.018551222597439878
0.04353892959858906
-0.057689334183671656
-0.017407776362726723
0.024478293938491297
-0.008630588684058948
0.014727848817717633
-0.004954845028082265
0.013374308695836586
-0.027790202588324295
0.006269120128037665
-0.020163897227883542
-0.019801430316275567
0.007936558488434248
0.021731116313534294
-0.02322339601343511
-0.02343058326601128
-0.007292705491691231
-0.017719155899199233
-0.04069943218808699
-0.010752160343224532
-0.02489758670521775
-0.04256051366932497
-0.030836511323073506
-0.01388210792327018
-0.025554347366069336
0.11271568864823878
0.08873623453189465
-0.044660269303240664
0.07458362756951965
0.03241916646704521
-0.023940528598179654
0.012349936883029046
-0.013836128556492612
-0.049909779242168585
-0.03119957637288324
-0.0263559160475787
-0.07014799607562798
-0.023834064622812557
0.022372186183905445
-0.03941914698408783
-0.026222128240599597
0.023874311868478066
0.0003242564484584756
0.005414056449708589
0.07062310851375268
-0.006712886189865557
0.00045763191510265626
0.003918680136365851
-0.04747206302947946
0.005438781200922352
-0.004133918103433134
0.11335321642526845
0.06464023433413069
-0.04861325577992099
-0.030848809867807168
-0.00028514889040787426
0.06958611727716067
-0.0068462813248540266
-0.022855167219479722
0.05838347552836483
-0.02482498936256867
-0.026256635623169922
0.03408681565454383
-0.021562532704613363
-0.017602479231863085
-0.0379027999786555
0.02921060318456467
0.015151985608749165
-0.006419995901768773
-0.032697779367331474
-0.007315553390396964
-0.029616234864506007
-0.029754784877176692
-0.03501161996173804
0.04680344191990805
0.08636844929737511
0.08193516992286513
0.16233650901013857
0.00776029797117278
-0.006786614924250869
-0.046706141007339254
-0.0032966825388451425
-0.006723443338850282
-0.03082968659288333
-0.04682367703663265
0.07930806857887734
0.03243517820324707
-0.007828881046755467
-0.025445712910103127
-0.027787178804290387
-0.040643885297358594
0.020910055015713327
-0.07455017701904543
-0.040208288634433646
-0.09335332927999782
-0.05110324699204688
0.0042880090156407055
-0.016313283703201387
-0.014592533911026526
0.05975348680569909
0.10471404985563021
0.0009457018387782662
0.0018887954846918504
0.005121136398191083
0.014712241418396213
-0.045312418010746154
-0.009967092314092487
0.018277972148270042
0.001753797655604505
-0.0011909729084145302
-0.01012762910738743
0.020864923561681455
-0.0174294219143302
-0.001239328350632402
0.01221283945362753
0.006568687410666227
0.03935698957478812
0.02292407699058701
-0.01357506228938159
0.02686237338134136
0.0029462258722827315
0.026651318937765435
0.001383475342684744
-0.015476641811621023
0.005224238750641252
0.05927771609839597
-0.15230086084727112
-0.12911003904566823
0.022248051687037026
-0.015376857023872354
-0.012871173118821628
0.019674258562965685
0.1394431752575821
0.01134616608722148
-0.09434773541943528
-0.0068955320417970955
0.04135269206433186
0.02257407164280975
0.006384649908473874
-0.03657637032078408
0.01001806083903099
-0.024172611700757445
0.0047644282064015445
0.03641523631914441
0.011761421971320806
-0.04634318407181992
-0.002164971428246707
-0.0005498054181664029
0.01948638859556437
0.0005658817672302259
-0.031316524765248634
-0.019004679701178574
0.00644477852562922
0.004654334902257424
-0.0035666673712678306
-0.009080045533705682
-0.029079436235143967
-0.03057898445694245
-0.00759613501555421
0.026049651223316244
0.05225949345257753
-0.003467079484085334
0.015740966859311062
-0.021086601222511134
0.019801799855545164
-0.01802676350432243
-0.008418601695114911
-0.004399346862530818
0.015186975152524701
-0.007244989216747128
0.02709910496891734
0.048931207559272216
-0.07375399120337701
-0.04522490664680745
0.001357617287996702
-0.029561163512109894
0.00549362602262652
-0.02995771161853674
0.010290690881946077
-0.0026761299137051677
0.04927397754386471
0.01818566263535496
0.03330274041183284
-0.04094721336097171
0.08178623417280138
0.06815850384238806
-0.029563628019083767
-0.021632727367998535
0.057760646116364354
0.058214283982853096
-0.01429770498162571
0.01474635579268424
-0.0187725526181861
-0.017451156474462323
0.007731437663636683
0.0003286790775192256
0.021245348814365673
-0.006122958997563421
0.016954263638868577
-0.005945934697320211
-0.0393234937188538
0.027052674975288512
0.01488492113413264
0.00021460744318597396
-0.004221695870285239
0.09028010489313645
0.00450986688665709
-0.028523564790074653
-0.010009742933218995
-0.04203395918940124
-0.0016235930283541877
-0.029185967411892326
-0.014356308554311515
-0.01165059726008948
-0.011327652392113703
-0.01777413563575957
-0.013052027277570937
-0.019063272235663457
0.01895536233459606
-0.02829442829553442
-0.017212204592227772
-0.040900305552247766
-0.02081637610953129
-0.05687625970655142
0.008579674451616748
0.034739889182859154
-0.041823464946118875
0.0008709100483189231
0.008608488048439186
-0.0110926370446934
-0.002373961804845276
-0.011600282511589665
0.03938702097718174
0.017683164031434096
-0.02470854027004894
0.016611001829554002
0.00874245170714454
-0.027882889376747558
-0.03379038391005546
-0.05674310026445504
-0.01035481571181131
0.018311249997006483
0.0012526199438584987
-0.032006597678438754
0.05584803870834559
-0.027663676903772617
-0.060796839877564124
0.04103378824857177
0.021393098047830454
-0.036569857167891504
-0.0035795912832652394
0.1204924952705034
0.13309245754070234
-0.01638371128149179
-0.0019916066374410747
0.011065574555962882
-0.04633797233785222
0.15433625873163065
0.0968625799065797
-0.018395639333617812
-0.03123224250825948
-0.08094184527932308
-0.00039434179432272515
-0.003910051649560751
0.005371301386527207
-0.029599880595193702
0.040796261367698164
-0.0059499280230111895
0.011810105489660798
-0.015576036774040429
-0.01524908488714338
-0.058258120737657
0.10028049584556994
0.09535904415515441
-0.045807979478446025
0.015475984635145873
-0.007977246746954096
-0.00403694416895122
0.05322925552720529
-0.003595072862881282
-0.018702393292395737
0.01189232867015542
-0.024306718097571615
-0.029673682608110687
-0.04899221563760987
-0.0367918986936965
-0.05564754471734064
-0.012671631168905536
0.0013132936168126573
-0.01820493049976875
0.02403477711739567
-0.004650758657953921
0.03479074693508528
-0.02797329614889765
-0.06233471441841694
-0.006546749455798177
-0.025961521207433075
0.0039550253298403625
-0.023215606181772857
0.060253466148711236
0.02556420233951996
-0.022498766474533454
-0.02195116643319777
0.0030643333610480164
-0.020502382295132262
0.0031896873649723124
0.03324992690905497
0.04447945098809023
-0.012390746114685741
-0.05888713853607997
-0.035063668252330135
-0.02880324089591208
0.019279471538732863
0.02047141816912463
-0.01293666962361593
0.07877833543991856
0.05516429039928313
0.014452412783127984
-0.0002658908852538662
-0.015978179414173
-0.04151510322115502
-0.028334780377575062
-0.0003637434508241263
-0.01723522031791581
0.007841328749215247
-0.009666398424688815
-0.027457166932007317
0.002194543654249463
-0.02931120698041506
0.037837565943297874
0.11181139722675572
0.005347741223101078
-0.027523755408059646
-0.048786313221922825
0.01670252241907394
0.009587738062828144
0.03343871630558459
0.05201052496718871
0.0818403106389859
-0.0030211892787317474
-0.04342300485793351
-0.0398764543931148
0.00019229158079917767
-0.0451625030130453
0.00273900290855902
-0.015315787124379053
0.010075444817669645
0.003539115707623488
0.007203104161569843
-0.03726153399873948
0.00043379230181992117
-0.022031564787534118
0.00927891699833361
-0.026028000413569587
-0.01527791824174257
-0.029946510365871065
-0.02366896107427579
-0.023578806926964044
-0.018438459189250946
-0.020418169819130107
0.030112079805589737
-0.008488359783314728
0.029448819860248495
0.020870586797244788
-0.022070693551626247
-0.023438139855869743
-0.03523894488571214
0.11759797215723881
0.08703010552015239
-0.020176121090425023
0.06332407521653809
-0.04448005458280753
-0.002948730056528371
-0.013481472466516152
0.0033892986304706516
-0.05589376508607441
0.014744551306955712
0.0006188386648117329
0.0020472632646099482
-0.009970079954196664
0.07004784203905089
0.11229578078225418
-0.06445765468667111
0.008072797365453185
-0.002880072949769654
0.02652370708086602
-0.024253447620483405
-0.019024485355432774
0.01511447802834799
-0.02467008277791476
0.01461910644637675
0.001678825735686427
-0.050626374211370596
-0.020112408818190784
0.06294232468025508
0.053151249540759095
-0.026144347892615247
0.01899719608410629
0.015169056493194482
-0.0453956015792888
-0.015845973025379042
-0.005237702710180056
0.015274188308536031
-0.11207623654805171
-0.15996941048631824
-0.01639307833921979
0.024043142554635293
0.12921489867668126
0.1376056945061527
-0.0028889619939192414
-0.02059522609823971
-0.019826554585981787
-0.029138265019729135
-0.03532719153014794
-0.044802616374958186
-0.001778864023636608
-0.008650680312476166
-0.024758656071586813
0.02340491590099547
0.1387874152194742
0.017874404198355297
-0.027800362720364624
-0.03046558049296026
-0.028868215683425947
0.01076566696738648
0.03808933158348705
-0.018233973846387783
0.012617970670063833
-0.030440700734394907
-0.024391314710145218
-0.03328059006960946
0.05263659676710262
0.1734610831159785
0.0036277022160133704
0.011005321188347881
-0.019175995798813728
0.029192651453529287
0.005001605594269427
0.027392965934886375
-0.027906761516196626
-0.12863115409238324
-0.13065332509430228
0.00491651282487824
0.0007796743497404015
-0.059311942927904635
0.007931442269509035
-0.011490858541597622
-0.006127771265006507
-0.020904745359055524
0.025767696582037702
-0.01114744449080191
-0.0012414131098097483
0.028332878066422137
0.000898052815446344
0.0002272923501167285
0.025822338043908606
-0.00673238279909481
0.0036087164118404806
0.014541055987808396
0.008175503531408864
0.14933735060337247
-0.006314209948759382
0.007833327096113826
-0.013335207021667532
-0.008067826651166395
0.015688013764738964
0.007933965685589864
0.06502199529336296
0.039456004894522105
-0.014114431176076771
-0.01154138015656632
0.04117320782380897
-0.09982780899267073
-0.1453300216559849
0.052303655456333066
-0.030828622650127736
0.045001204493439625
0.09941236899134678
-0.06527482089637787
-0.02543751959521377
-0.009281804526112655
-0.024486572916662754
-0.010675980443928873
-0.003034950903470998
-0.052735462002540916
0.01931808844757278
-0.015411821149317193
0.04985064561134863
0.05860344946595113
0.008619702839200886
-0.0012281994764815189
-0.05853131290821099
0.011438763116505136
-0.044442523883319
0.060436149128595684
-0.22152224571182827
-0.13509973466544326
0.05723611269285556
0.022257177439300484
-0.013073649766461064
-0.04369106665617868
0.013940972653015407
0.05744491290774384
-0.0048522385762475705
-0.020514785097243998
-0.026791284595289
0.12038999215126697
0.09810550436431575
-0.038230315496765574
-0.01864911650395048
0.05715006786554595
0.0040205974043898175
0.012355513660630217
0.11817601068699723
0.10006370332578347
0.03685867698383282
-0.013963505682639312
-0.01857730711626824
-0.026215631096519462
0.016240494935489083
0.007148241104534869
0.07036702431401118
-0.05172988031997607
-0.08634906439502092
-0.029916159583134413
-0.01337908798430771
-0.04175709692080088
0.005670896427486879
0.07151051569817554
0.024588897859022105
-0.027746750791873546
0.013121715577557154
-0.05105893101960909
-0.0325755080270995
0.027422783429936565
0.014977431666039398
-0.043412814056645405
0.017290083087747293
-0.010282718701878848
-0.06253358368287222
-0.02393308338416523
0.06996939015312549
0.021953294803674455
-0.022333375032876655
-0.03953007774249787
0.04473883295758249
0.015401614990696519
-0.0014582010578032144
-0.0044258954673189
-0.009240158983997599
0.005321186914837763
0.003477825673903626
0.0016392798068389515
0.028359085755328743
-0.03912105141694287
-0.026792862126669058
-0.01151386321824765
-0.026095247277113452
-0.003360263717433279
0.004751936023264755
-0.02510824336157704
0.00302728282318558
-0.02811598298637452
-0.029973961257861833
0.0073440511451530535
-0.013805365534407445
-0.00344883762786506
-0.04396626312467644
-0.013779757332964817
-0.05859038742229311
0.060802100336245196
0.14265410379345614
-0.012931348675949533
0.020755657844596178
-0.035997968866606805
0.01853471413839482
0.03005668270528927
0.000840048308667986
-0.000968357339377099
-0.012427752554930688
0.03937696239739091
0.10340022259651016
0.003479176572349203
0.009032290314511773
-0.04397673062354826
0.004331748353844513
0.02113493619610449
-0.03921719923940689
-0.03582199006707907
-0.0050403058702825024
0.01764043092832711
0.02991217664251653
0.011044353931828949
-0.029349512619487057
-0.015363202220352808
0.012130695122919446
0.009810943974804106
-0.0069372591465865045
0.03887143716467476
0.06974146890725036
0.002577815771715029
0.038069555809010926
-0.0032664711263638863
-0.03023210872154155
-0.03182705148504881
-6.2593870436949756e-06
0.10069136540119364
0.0473974700068935
-0.04842456611928809
-0.021864563965552877
0.0028658226132973934
0.031237637944325377
-0.3223819354040305
-0.11464821672984384
0.07609197321333301
-0.002026115809982112
-0.008166305209589235
7.43406821088063e-05
-0.04673336618815718
0.050346688885921205
0.013165811487147011
0.024955963651617934
-0.036740206441763325
-0.04703805447495677
0.054906600024486454
0.03075813230368262
0.04991698156524492
-0.03306270650330808
-0.06015602791528239
0.0265692128062673
-0.0398544274047376
0.16463876188492083
0.11181774656253587
-0.08054389404478308
0.023879322227278843
0.015329330385786768
-0.061537927782826365
-0.017077670655260196
0.0205598283440635
-0.01663978376910218
0.004736630555121902
0.003528942595284081
0.016893456394495406
-0.019380751297613706
-0.022030468055376822
-0.016662399462519517
-0.002563365942094945
0.0019261315957495083
-0.00327037361127296
-0.03566124524817247
-0.023110843930747964
0.026283423021104483
0.055751004846337326
0.028961548255723835
0.003035610358622438
-0.023463620935085472
-0.01675002166175537
-0.03504349505748684
0.004176669121719217
-0.025119313177210258
0.007183493128833442
-0.04307944991581727
-0.045461118289973
0.050468839217234045
0.012675788367759743
-0.034715960476716816
0.05135861998044738
-0.022114938750693078
0.023735907031495446
-0.002346463300464741
-0.025120145705530186
0.09214517949201997
0.046661851070708915
0.009829053744403444
0.035364160447323115
0.02978634614309125
0.10282439341671633
0.05307037108154883
0.04386372604280852
-0.11868618241236228
-0.14356759639094394
0.038489962628412595
-0.02613121823974674
-0.04933245646507812
-0.021530906864604325
0.03023894568486742
0.013681753843630634
0.003427284920353072
0.018499823766501982
-0.020961689401912006
-0.03657060558141632
0.00543219726222872
-0.010731551679298307
-0.030431314268759994
-0.03334370363306716
0.020953869428819362
0.013634986506931334
-0.013492919142346039
-0.02021504817353773
-0.011625159789307893
-0.005256928230517375
-0.011210711286281911
-0.007110254934529045
0.012290946784183278
-0.010144998520919886
0.05735699761972501
0.024943500613859797
-0.008760703072676047
-0.007105032722304682
0.003495792775095608
0.02516899569052851
0.008631317675904556
0.008748407730782148
0.0007966138607659968
0.02661999335666957
0.010726305019273498
-0.03480273978033103
-0.018988522944596624
0.01928177654632374
-0.008057671172076423
-0.005374208431130253
-0.03214602850844718
0.002015448800646028
0.06091396786777327
0.0016126944562414281
0.0031199425209567553
-0.05026025545411769
-0.05560447525367806
0.007025782356836767
-0.009316237604291034
0.05787125890942948
-0.028646787300384786
0.08067706976894515
0.03737581563707266
-0.19602454976597852
-0.05782020788889324
-0.0011568447394766461
0.019791452796815996
-0.014503845381016128
0.03069324480801531
0.015595063756324603
-0.03343598472419422
0.013873636132614093
-0.0028774546921845126
0.0022091778207389084
0.02077397272345987
0.08955799124892587
0.09028640866213576
0.013106131633340611
-0.018877369877770958
-0.05319359043551548
0.006991535555814118
-0.005296561138001933
-0.03165579068766355
-0.011486134533749089
0.0008093467224549034
-0.0023295463303918858
-0.0007850416562982808
0.010278445962158763
0.06207259851855056
0.018163791722661256
-0.04099890893731179
-0.01543552751798296
-0.012107002672931744
0.06513421338051852
0.08029893392650024
-0.026563798593358716
-0.04029590087531502
0.0032665312261031102
-0.005255633348720362
-0.012358601032667152
0.006397205241776099
-0.016790785478759222
-0.05827331258663729
-0.006494956956486649
-0.007321435726951538
0.04548854781644934
0.009190136490672053
-0.006536367544341412
0.033389809759956514
-0.004039885349452126
-0.0021486191526044387
-0.003133538787347668
0.010263979186352076
-0.01263693209120994
-0.05693109257559333
-0.001970752091368489
0.03664326678032553
-0.0003535254222063826
0.01745447161020267
0.00190933776157392
-0.009940499181113081
0.1499342985815166
0.001435481253778294
-0.03227811658994039
0.0020151906840730487
0.011736292605133468
-1.8470047730181523e-05
-0.009746807244754479
-0.025671715470020864
-0.016376406206851987
0.029000896098514865
0.004691170169894458
0.0010512247206451867
0.027575856713556023
0.025808931434884733
-0.04080766759752713
-0.05629695103779869
0.05789826511927378
0.013974024565793499
-0.025332350823944902
-0.03874048467998517
-0.0802106099534752
0.0390986775948922
-0.040165358065570866
0.024097769795951154
-0.09787494954968048
-0.16037494656566953
0.03970147867418209
-0.04725510346963726
0.002960495054599194
0.0013716775137476058
0.01005635724029063
-0.0012933234617143643
-0.04788398770306934
0.017844436499701254
0.047688811251465436
0.022307763368434284
-0.002743044303114761
-0.016194729972783282
0.07038441122339438
0.024218461628676902
0.0077195952099583225
-0.033574207023760565
0.08481031931835634
0.016748665313947707
-0.007435645793823686
0.03953875489817467
0.016639521950957963
0.011528478317520512
-0.007903915778825847
0.028676167058460662
0.027476216808941835
-0.0401212737560654
-0.004464406465401286
-0.014258412171529036
-0.041678731006712086
-0.012475531786157873
0.02309345423568287
-0.01054334921601921
0.012492203494129292
0.013701345401087823
0.005706852812151041
0.03026589157698659
0.03302985453958578
0.0012170301267343392
0.005635570364464135
-0.008919199493646742
-0.02331795431227305
0.022721509501716607
-0.03359817621353678
0.0029545855667617894
0.00731180437511631
-0.0026733635355090687
-0.07486819504032625
-0.07770156746931967
0.03057020826325743
0.031409954357907506
0.04704181703673326
0.02907295268564526
-0.10768455468609428
0.04956712459881981
-0.026594645101507348
-0.017089167361537125
-0.010150467706810277
0.004639037126184736
-0.01787875656659224
0.009051642685775008
-0.021903725860271492
-0.03298441027606195
0.008693882718088904
0.01636057162405078
-0.005032290185137197
0.024559688333367958
-0.014205512400531837
0.005304288453584157
0.15362582328117258
0.010490455256826797
-0.022220520002232003
-0.020459553745640204
-0.05415517127689598
-0.021581157761120358
-0.008357290474394326
-5.8679736087783423e-05
-0.019650515547119624
0.026015968829176322
0.006811620239009994
-0.03378248186787176
-0.003111031163976292
-0.020526502214163394
0.06381241402795998
0.078384117174782
0.0011393567893094238
-0.08593751391183155
0.07366039913548049
0.1886752973007671
-0.01086812072163512
-0.03788849503713837
-0.07080126099939142
0.016562393897747597
-0.019530809106410196
0.0008212058131836849
0.032154691583710406
-0.04489770258804372
-1.3060209045255463e-05
-0.05722337310103226
-0.03076021271664561
-0.03903172798461939
-0.05499564128344744
0.005752370552296434
-0.01622956759099082
-0.045706101463997444
-0.0023481130344485826
-0.00626914922884977
0.011138558371135894
0.010369779620275328
-0.020718395746369998
-0.026294711712542312
-0.03922935501468344
0.03186444712118129
0.010355193073834352
-0.024055251659924507
0.03441564994783881
-0.03676381898181997
0.13475595345958796
0.12614933620205168
-0.08231279441742818
0.048712710512433824
0.1706143440598364
0.04248176460771118
-0.008152708489863858
-0.027769532288462837
0.008471632310517362
-0.016187007928887165
-0.050352294416819175
-0.009626880489574814
-0.007947419404737286
0.07174089802896486
0.003140360682023581
-0.002968012714858805
0.01639877816076078
-0.01334449007791194
0.01231784074315842
-0.014589646895927396
-0.0078229849701241
-0.03205744388974913
-0.010885483373126087
-0.0048975088663513276
-0.011510619978963856
-0.025435801926246667
-0.05122769723962141
-0.00043238472129502437
-0.009007971437007573
0.008091031597789568
0.05058852827079649
-0.028556586854054593
-0.0396057438754823
-0.02747610280158998
0.05341230656665915
-0.006743948565552781
0.008048411574920809
-0.014195399893580169
-0.00547764302375103
-0.14777968090309854
0.002211947300092022
-0.05656891101393879
-0.07393916226679846
0.02138508028933376
-0.04308024529227925
0.014792644702474987
-0.0025180296035564056
0.02198034154210504
0.02096580259809607
0.11375946388967105
0.03609088426965367
0.025919938523345235
-0.002608625458635644
0.017881457047579964
-0.005086169506295992
0.02185232602871502
-0.031014574250625048
0.005294918037427334
-0.006663951796935614
-0.01741026016593717
-0.023574108486944446
0.07843534696695782
-0.012736194837356206
0.0626896383492806
0.09934110583179365
-0.03442613575692482
-0.013935043248347273
-0.003049481467358583
0.02273565379996595
-0.002586992226014029
-0.004583464264717573
0.035193726682474835
-0.06696862543912235
-0.05945742636953608
-0.014287463491096188
0.03744799425928579
0.15833523633021507
-0.024574798760978706
-0.05268225174144923
-0.23375104486100678
0.009482992667212697
-0.07031766358329641
-0.07183696191430192
0.004304546549973173
0.004821343837149375
0.015619724208840184
0.0008860809679900483
0.10940077117767778
0.10142225423532952
-0.031242170762664147
0.10057983776919519
0.029643749400099433
0.01002793709354511
-0.06832918953932067
-0.02549790113630954
0.04626086576016182
-0.0177488891243862
0.001110073119440071
-0.06268949525448353
-0.04549595732110242
0.0711420193684819
-0.08046215494765813
0.007815067857382403
0.015304840685240226
-0.026588715159520215
-0.010867510251064208
-0.008067439865830353
0.016747752915475523
0.012767879570277425
-0.03255002743849522
0.043745248828997586
0.03643732499704555
-0.026547556227046357
0.05096541080172461
0.0018923239575880603
0.003220799875752436
0.018428166635609602
0.01806528619294584
-0.013901753242124322
-0.0025393405452320225
0.04046831661178741
0.00897534723639989
-0.020601090620236802
-0.03315602992993412
-0.04520165052095369
-0.03894435197290971
-0.01194101950987097
0.0006322750750983885
-0.0009245012777839012
0.0071229204332153425
-0.03299356910787882
0.04042644609485599
-0.010805025930842488
-0.09777226341671968
0.09359710106117285
0.15547896049895055
-0.016837236882642662
0.00020281834387427553
-0.004962356698029518
-0.010555226264698807
0.017354028500828247
0.025256781336410013
-0.0886810349390692
-0.11728747691640082
0.03459975211666104
-0.02549546495203918
-0.023524597237467363
-0.023483898090484675
0.013764867777194625
-0.04471151889038193
0.11017786604038442
0.07681950572705282
-0.005931135629058291
0.07299084070899339
0.006339293055587986
-0.005059611805288333
0.0127253982350001
-0.001191305136237624
