0
0.00019229158079917767
-0.0451625030130453
0.00273900290855902
-0.015315787124379053
0.010075444817669645
0.003539115707623488
0.007203104161569843
-0.03726153399873948
0.00043379230181992117
-0.022031564787534118
0.00927891699833361
-0.026028000413569587
-0.01527791824174257
-0.029946510365871065
-0.02366896107427579
-0.023578806926964044
-0.018438459189250946
-0.020418169819130107
0.030112079805589737
-0.008488359783314728
0.029448819860248495
0.020870586797244788
-0.022070693551626247
-0.023438139855869743
-0.03523894488571214
0.11759797215723881
0.08703010552015239
-0.020176121090425023
0.06332407521653809
-0.04448005458280753
-0.002948730056528371
-0.013481472466516152
0.0033892986304706516
-0.05589376508607441
0.014744551306955712
0.0006188386648117329
0.0020472632646099482
-0.009970079954196664
0.07004784203905089
0.11229578078225418
-0.06445765468667111
0.008072797365453185
-0.002880072949769654
0.02652370708086602
-0.024253447620483405
-0.019024485355432774
0.01511447802834799
-0.02467008277791476
0.01461910644637675
0.001678825735686427
-0.050626374211370596
-0.020112408818190784
0.06294232468025508
0.053151249540759095
-0.026144347892615247
0.01899719608410629
0.015169056493194482
-0.0453956015792888
-0.015845973025379042
-0.005237702710180056
0.015274188308536031
-0.11207623654805171
-0.15996941048631824
-0.01639307833921979
0.024043142554635293
0.12921489867668126
0.1376056945061527
-0.0028889619939192414
-0.02059522609823971
-0.019826554585981787
-0.029138265019729135
-0.03532719153014794
-0.044802616374958186
-0.001778864023636608
-0.008650680312476166
-0.024758656071586813
0.02340491590099547
0.1387874152194742
0.017874404198355297
-0.027800362720364624
-0.03046558049296026
-0.028868215683425947
0.01076566696738648
0.03808933158348705
-0.018233973846387783
0.012617970670063833
-0.030440700734394907
-0.024391314710145218
-0.03328059006960946
0.05263659676710262
0.1734610831159785
0.0036277022160133704
0.011005321188347881
-0.019175995798813728
0.029192651453529287
0.005001605594269427
0.027392965934886375
-0.027906761516196626
-0.12863115409238324
-0.13065332509430228
0.00491651282487824
0.0007796743497404015
-0.059311942927904635
0.007931442269509035
-0.011490858541597622
-0.006127771265006507
-0.020904745359055524
0.025767696582037702
-0.01114744449080191
-0.0012414131098097483
0.028332878066422137
0.000898052815446344
0.0002272923501167285
0.025822338043908606
-0.00673238279909481
0.0036087164118404806
0.014541055987808396
0.008175503531408864
0.14933735060337247
-0.006314209948759382
0.007833327096113826
-0.013335207021667532
-0.008067826651166395
0.015688013764738964
0.007933965685589864
0.06502199529336296
0.039456004894522105
-0.014114431176076771
-0.01154138015656632
0.04117320782380897
-0.09982780899267073
-0.1453300216559849
0.052303655456333066
-0.030828622650127736
0.045001204493439625
0.09941236899134678
-0.06527482089637787
-0.02543751959521377
-0.009281804526112655
-0.024486572916662754
-0.010675980443928873
-0.003034950903470998
-0.052735462002540916
0.01931808844757278
-0.015411821149317193
0.04985064561134863
0.05860344946595113
0.008619702839200886
-0.0012281994764815189
-0.05853131290821099
0.011438763116505136
-0.044442523883319
0.060436149128595684
-0.22152224571182827
-0.13509973466544326
0.05723611269285556
0.022257177439300484
-0.013073649766461064
-0.04369106665617868
0.013940972653015407
0.05744491290774384
-0.0048522385762475705
-0.020514785097243998
-0.026791284595289
0.12038999215126697
0.09810550436431575
-0.038230315496765574
-0.01864911650395048
0.05715006786554595
0.0040205974043898175
0.012355513660630217
0.11817601068699723
0.10006370332578347
0.03685867698383282
-0.013963505682639312
-0.01857730711626824
-0.026215631096519462
0.016240494935489083
0.007148241104534869
0.07036702431401118
-0.05172988031997607
-0.08634906439502092
-0.029916159583134413
-0.01337908798430771
-0.04175709692080088
0.005670896427486879
0.07151051569817554
0.024588897859022105
-0.027746750791873546
0.013121715577557154
-0.05105893101960909
-0.0325755080270995
0.027422783429936565
0.014977431666039398
-0.043412814056645405
0.017290083087747293
-0.010282718701878848
-0.06253358368287222
-0.02393308338416523
0.06996939015312549
0.021953294803674455
-0.022333375032876655
-0.03953007774249787
0.04473883295758249
0.015401614990696519
-0.0014582010578032144
-0.0044258954673189
-0.009240158983997599
0.005321186914837763
0.003477825673903626
0.0016392798068389515
0.028359085755328743
-0.03912105141694287
-0.026792862126669058
-0.01151386321824765
-0.026095247277113452
-0.003360263717433279
0.004751936023264755
-0.02510824336157704
0.00302728282318558
-0.02811598298637452
-0.029973961257861833
0.0073440511451530535
-0.013805365534407445
-0.00344883762786506
-0.04396626312467644
-0.013779757332964817
-0.05859038742229311
0.060802100336245196
0.14265410379345614
-0.012931348675949533
0.020755657844596178
-0.035997968866606805
0.01853471413839482
0.03005668270528927
0.000840048308667986
-0.000968357339377099
-0.012427752554930688
0.03937696239739091
0.10340022259651016
0.003479176572349203
0.009032290314511773
-0.04397673062354826
0.004331748353844513
0.02113493619610449
-0.03921719923940689
-0.03582199006707907
-0.0050403058702825024
0.01764043092832711
0.02991217664251653
0.011044353931828949
-0.029349512619487057
-0.015363202220352808
0.012130695122919446
0.009810943974804106
-0.0069372591465865045
0.03887143716467476
0.06974146890725036
0.002577815771715029
0.038069555809010926
-0.0032664711263638863
-0.03023210872154155
-0.03182705148504881
-6.2593870436949756e-06
0.10069136540119364
0.0473974700068935
-0.04842456611928809
-0.021864563965552877
0.0028658226132973934
0.031237637944325377
-0.3223819354040305
-0.11464821672984384
0.07609197321333301
-0.002026115809982112
-0.008166305209589235
7.43406821088063e-05
-0.04673336618815718
0.050346688885921205
0.013165811487147011
0.024955963651617934
-0.036740206441763325
-0.04703805447495677
0.054906600024486454
0.03075813230368262
0.04991698156524492
-0.03306270650330808
-0.06015602791528239
0.0265692128062673
-0.0398544274047376
0.16463876188492083
0.11181774656253587
-0.08054389404478308
0.023879322227278843
0.015329330385786768
-0.061537927782826365
-0.017077670655260196
0.0205598283440635
-0.01663978376910218
0.004736630555121902
0.003528942595284081
0.016893456394495406
-0.019380751297613706
-0.022030468055376822
-0.016662399462519517
-0.002563365942094945
0.0019261315957495083
-0.00327037361127296
-0.03566124524817247
-0.023110843930747964
0.026283423021104483
0.055751004846337326
0.028961548255723835
0.003035610358622438
-0.023463620935085472
-0.01675002166175537
-0.03504349505748684
0.004176669121719217
-0.025119313177210258
0.007183493128833442
-0.04307944991581727
-0.045461118289973
0.050468839217234045
0.012675788367759743
-0.034715960476716816
0.05135861998044738
-0.022114938750693078
0.023735907031495446
-0.002346463300464741
-0.025120145705530186
0.09214517949201997
0.046661851070708915
0.009829053744403444
0.035364160447323115
0.02978634614309125
0.10282439341671633
0.05307037108154883
0.04386372604280852
-0.11868618241236228
-0.14356759639094394
0.038489962628412595
-0.02613121823974674
-0.04933245646507812
-0.021530906864604325
0.03023894568486742
0.013681753843630634
0.003427284920353072
0.018499823766501982
-0.020961689401912006
-0.03657060558141632
0.00543219726222872
-0.010731551679298307
-0.030431314268759994
-0.03334370363306716
0.020953869428819362
0.013634986506931334
-0.013492919142346039
-0.02021504817353773
-0.011625159789307893
-0.005256928230517375
-0.011210711286281911
-0.007110254934529045
0.012290946784183278
-0.010144998520919886
0.05735699761972501
0.024943500613859797
-0.008760703072676047
-0.007105032722304682
0.003495792775095608
0.02516899569052851
0.008631317675904556
0.008748407730782148
0.0007966138607659968
0.02661999335666957
0.010726305019273498
-0.03480273978033103
-0.018988522944596624
0.01928177654632374
-0.008057671172076423
-0.005374208431130253
-0.03214602850844718
0.002015448800646028
0.06091396786777327
0.0016126944562414281
0.0031199425209567553
-0.05026025545411769
-0.05560447525367806
0.007025782356836767
-0.009316237604291034
0.05787125890942948
-0.028646787300384786
0.08067706976894515
0.03737581563707266
-0.19602454976597852
-0.05782020788889324
-0.0011568447394766461
0.019791452796815996
-0.014503845381016128
0.03069324480801531
0.015595063756324603
-0.03343598472419422
0.013873636132614093
-0.0028774546921845126
0.0022091778207389084
0.02077397272345987
0.08955799124892587
0.09028640866213576
0.013106131633340611
-0.018877369877770958
-0.05319359043551548
0.006991535555814118
-0.005296561138001933
-0.03165579068766355
-0.011486134533749089
0.0008093467224549034
-0.0023295463303918858
-0.0007850416562982808
0.010278445962158763
0.06207259851855056
0.018163791722661256
-0.04099890893731179
-0.01543552751798296
-0.012107002672931744
0.06513421338051852
0.08029893392650024
-0.026563798593358716
-0.04029590087531502
0.0032665312261031102
-0.005255633348720362
-0.012358601032667152
0.006397205241776099
-0.016790785478759222
-0.05827331258663729
-0.006494956956486649
-0.007321435726951538
0.04548854781644934
0.009190136490672053
-0.006536367544341412
0.033389809759956514
-0.004039885349452126
-0.0021486191526044387
-0.003133538787347668
0.010263979186352076
-0.01263693209120994
-0.05693109257559333
-0.001970752091368489
0.03664326678032553
-0.0003535254222063826
0.01745447161020267
0.00190933776157392
-0.009940499181113081
0.1499342985815166
0.001435481253778294
-0.03227811658994039
0.0020151906840730487
0.011736292605133468
-1.8470047730181523e-05
-0.009746807244754479
-0.025671715470020864
-0.016376406206851987
0.029000896098514865
0.004691170169894458
0.0010512247206451867
0.027575856713556023
0.025808931434884733
-0.04080766759752713
-0.05629695103779869
0.05789826511927378
0.013974024565793499
-0.025332350823944902
-0.03874048467998517
-0.0802106099534752
0.0390986775948922
-0.040165358065570866
0.024097769795951154
-0.09787494954968048
-0.16037494656566953
0.03970147867418209
-0.04725510346963726
0.002960495054599194
0.0013716775137476058
0.01005635724029063
-0.0012933234617143643
-0.04788398770306934
0.017844436499701254
0.047688811251465436
0.022307763368434284
-0.002743044303114761
-0.016194729972783282
0.07038441122339438
0.024218461628676902
0.0077195952099583225
-0.033574207023760565
0.08481031931835634
0.016748665313947707
-0.007435645793823686
0.03953875489817467
0.016639521950957963
0.011528478317520512
-0.007903915778825847
0.028676167058460662
0.027476216808941835
-0.0401212737560654
-0.004464406465401286
-0.014258412171529036
-0.041678731006712086
-0.012475531786157873
0.02309345423568287
-0.01054334921601921
0.012492203494129292
0.013701345401087823
0.005706852812151041
0.03026589157698659
0.03302985453958578
0.0012170301267343392
0.005635570364464135
-0.008919199493646742
-0.02331795431227305
0.022721509501716607
-0.03359817621353678
0.0029545855667617894
0.00731180437511631
-0.0026733635355090687
-0.07486819504032625
-0.07770156746931967
0.03057020826325743
0.031409954357907506
0.04704181703673326
0.02907295268564526
-0.10768455468609428
0.04956712459881981
-0.026594645101507348
-0.017089167361537125
-0.010150467706810277
0.004639037126184736
-0.01787875656659224
0.009051642685775008
-0.021903725860271492
-0.03298441027606195
0.008693882718088904
0.01636057162405078
-0.005032290185137197
0.024559688333367958
-0.014205512400531837
0.005304288453584157
0.15362582328117258
0.010490455256826797
-0.022220520002232003
-0.020459553745640204
-0.05415517127689598
-0.021581157761120358
-0.008357290474394326
-5.8679736087783423e-05
-0.019650515547119624
0.026015968829176322
0.006811620239009994
-0.03378248186787176
-0.003111031163976292
-0.020526502214163394
0.06381241402795998
0.078384117174782
0.0011393567893094238
-0.08593751391183155
0.07366039913548049
0.1886752973007671
-0.01086812072163512
-0.03788849503713837
-0.07080126099939142
0.016562393897747597
-0.019530809106410196
0.0008212058131836849
0.032154691583710406
-0.04489770258804372
-1.3060209045255463e-05
-0.05722337310103226
-0.03076021271664561
-0.03903172798461939
-0.05499564128344744
0.005752370552296434
-0.01622956759099082
-0.045706101463997444
-0.0023481130344485826
-0.00626914922884977
0.011138558371135894
0.010369779620275328
-0.020718395746369998
-0.026294711712542312
-0.03922935501468344
0.03186444712118129
0.010355193073834352
-0.024055251659924507
0.03441564994783881
-0.03676381898181997
0.13475595345958796
0.12614933620205168
-0.08231279441742818
0.048712710512433824
0.1706143440598364
0.04248176460771118
-0.008152708489863858
-0.027769532288462837
0.008471632310517362
-0.016187007928887165
-0.050352294416819175
-0.009626880489574814
-0.007947419404737286
0.07174089802896486
0.003140360682023581
-0.002968012714858805
0.01639877816076078
-0.01334449007791194
0.01231784074315842
-0.014589646895927396
-0.0078229849701241
-0.03205744388974913
-0.010885483373126087
-0.0048975088663513276
-0.011510619978963856
-0.025435801926246667
-0.05122769723962141
-0.00043238472129502437
-0.009007971437007573
0.008091031597789568
0.05058852827079649
-0.028556586854054593
-0.0396057438754823
-0.02747610280158998
0.05341230656665915
-0.006743948565552781
0.008048411574920809
-0.014195399893580169
-0.00547764302375103
-0.14777968090309854
0.002211947300092022
-0.05656891101393879
-0.07393916226679846
0.02138508028933376
-0.04308024529227925
0.014792644702474987
-0.0025180296035564056
0.02198034154210504
0.02096580259809607
0.11375946388967105
0.03609088426965367
0.025919938523345235
-0.002608625458635644
0.017881457047579964
-0.005086169506295992
0.02185232602871502
-0.031014574250625048
0.005294918037427334
-0.006663951796935614
-0.01741026016593717
-0.023574108486944446
0.07843534696695782
-0.012736194837356206
0.0626896383492806
0.09934110583179365
-0.03442613575692482
-0.013935043248347273
-0.003049481467358583
0.02273565379996595
-0.002586992226014029
-0.004583464264717573
0.035193726682474835
-0.06696862543912235
-0.05945742636953608
-0.014287463491096188
0.03744799425928579
0.15833523633021507
-0.024574798760978706
-0.05268225174144923
-0.23375104486100678
0.009482992667212697
-0.07031766358329641
-0.07183696191430192
0.004304546549973173
0.004821343837149375
0.015619724208840184
0.0008860809679900483
0.10940077117767778
0.10142225423532952
-0.031242170762664147
0.10057983776919519
0.029643749400099433
0.01002793709354511
-0.06832918953932067
-0.02549790113630954
0.04626086576016182
-0.0177488891243862
0.001110073119440071
-0.06268949525448353
-0.04549595732110242
0.0711420193684819
-0.08046215494765813
0.007815067857382403
0.015304840685240226
-0.026588715159520215
-0.010867510251064208
-0.008067439865830353
0.016747752915475523
0.012767879570277425
-0.03255002743849522
0.043745248828997586
0.03643732499704555
-0.026547556227046357
0.05096541080172461
0.0018923239575880603
0.003220799875752436
0.018428166635609602
0.01806528619294584
-0.013901753242124322
-0.0025393405452320225
0.04046831661178741
0.00897534723639989
-0.020601090620236802
-0.03315602992993412
-0.04520165052095369
-0.03894435197290971
-0.01194101950987097
0.0006322750750983885
-0.0009245012777839012
0.0071229204332153425
-0.03299356910787882
0.04042644609485599
-0.010805025930842488
-0.09777226341671968
0.09359710106117285
0.15547896049895055
-0.016837236882642662
0.00020281834387427553
-0.004962356698029518
-0.010555226264698807
0.017354028500828247
0.025256781336410013
-0.0886810349390692
-0.11728747691640082
0.03459975211666104
-0.02549546495203918
-0.023524597237467363
-0.023483898090484675
0.013764867777194625
-0.04471151889038193
0.11017786604038442
0.07681950572705282
-0.005931135629058291
0.07299084070899339
0.006339293055587986
-0.005059611805288333
0.0127253982350001
-0.001191305136237624
-0.01665465631142417
-0.02615441070776123
-0.023104611746507603
-0.01872935448964189
-0.019705917631674716
0.023206648619925
0.03731581868449267
0.01198025670123686
0.008923597824835696
0.032107105639921425
0.09247427117113163
-0.016552887405155595
-0.03158843920686068
-0.0073541616118010895
0.004680383979190036
-0.0152922864131954
0.036919101944176004
-0.004580604384255341
0.03623431977305189
0.030042595087644085
0.034927498023536216
0.03531321391165377
-0.02269524108196615
-0.03385597517968498
-0.012617120534729518
-0.26432929816918327
-0.033463957383561685
-0.03646888438041224
-0.045575998739432716
0.024174126353642588
-0.037074507833428465
-0.037522310219233766
0.027163010135550177
0.04550628186692929
0.04260883553166231
0.04164952786425458
-0.028543126697557663
-0.0347689066812064
-0.013743352857829955
-0.02505347336999771
-0.01572476143982551
-0.012968717321535924
-0.023988673047316063
-0.01159235306587335
-0.011398089629601656
0.015614813312571148
0.0070578139654144815
0.009114641574763915
-0.03965302779920656
0.07636122367359524
0.06904239295175775
-0.005198563864308583
-0.0013051343438125335
-0.021076552503975568
0.019318000969473333
-0.011885159592749276
0.005957083588424753
-0.04150882224267101
0.030480714518126704
0.008530098116731498
0.009277937690206127
-0.023949029361352563
0.08832640471032269
0.07745597163818602
0.012799427317899417
-0.010573481108993851
0.0729588441037061
0.0938258750213465
-0.009117626303399221
0.03358937594360931
-0.007314981013347717
-0.14645319522763783
-0.10336737445035536
0.02081811293170408
-0.00991588222137583
-0.008705110348478947
0.06436685998667949
0.0947709419311058
0.014365804827987444
-0.03875237686206817
0.0009698986581017651
0.01768023678550721
0.018807024688780268
0.05243925422028113
0.04131397526639059
0.04477774842975551
-0.025515142784026137
0.03310636432509531
-0.09034754669919665
-0.19701920129786074
0.0004131686757373811
0.0169121843185208
-0.011452310212344797
0.010176291838955652
0.0038145826988364136
-0.023724444460459102
0.013031421018923338
0.0012401815885728677
0.026863294322155177
0.013760334708429196
0.003199451600797151
-0.03619109169091832
-0.005562799977302766
-0.006608977982362837
0.03201429486414344
-0.045423025383979694
-0.008391975363657857
0.011141390204958648
0.03653219887451893
0.0003446997478753306
0.025780771972409626
-0.15823820579893366
-0.1017471233158011
0.05714565190498338
-0.08405959519921186
-0.10956246322017071
0.07643674585620124
0.03779807628135236
0.07197593286050885
-0.019421072898621498
0.011304616169271073
0.022408234362839077
0.01381558305075478
-0.0015635177068547025
0.0302028473090266
0.0291220481718767
-0.22101558983433497
-0.014218752585815295
0.11952835111229194
0.10947016378743603
-0.03345922760858886
0.023762764705139366
-0.027459917610718223
0.08079356144958853
0.05976717952075831
0.007026927169024642
0.0022020635165111518
0.02408782049974918
0.06948841180099159
-0.06443761178712673
-0.04001611476484276
0.0005299567171662765
-0.015849495685075196
-0.005231301947474549
0.025820093698615508
-0.028500864855773377
-0.06523258783593698
0.04070859441795784
0.007073374357220427
0.03015678999646818
0.012745928425279907
-0.014896294481700644
-0.03340516924087723
0.00661314422953545
-0.02183930997282984
0.022568583335331974
0.021528961735985428
-0.048488743611833265
-0.02592428134549738
-0.028898268706250906
0.029688110631524822
0.03124590247043941
-0.02443937693061629
-0.010988155324331197
0.021235051478657643
0.0003129833725241708
-0.0015288729172743566
-0.009364454213196354
0.007156945636329755
0.07311638971613867
0.049759031021731855
0.032177317513246595
-0.030291779977969186
-0.03777348243356811
-0.017055903857472757
-0.006143642801490779
-0.0017171405340614743
-0.00403819859589893
0.0027768256805211075
0.040755863718825475
-0.06072311915524433
-0.16059777531218505
0.020151725467310012
0.025813041965470074
0.015829032248172448
0.0004199970910736267
0.0008035772417200446
-0.02308109373649743
0.10895130317144001
0.06956488572817382
0.0246522879931905
0.05380032734982366
-0.020296083283811016
-0.08936170838997497
-0.0338863943239371
0.027787805323299875
-0.020434997275304165
0.02399879717896437
-0.02837561449991411
0.0951574106971491
0.06634243937221856
-0.018015319136145475
0.013734112824547146
0.04484244759984042
0.01691738654370658
0.008582837631141886
0.04447127186659659
0.03119182911280125
-0.05777496991538185
-0.2852755425911018
-0.006432273964453137
-0.03137768190168452
-0.015422405033840996
0.017013725597441517
-0.03104063145025625
-0.0032251270144057365
0.004078516845309123
-0.007083129630527469
-0.01942378572841234
-0.022713249911307992
0.028899513625533883
0.024752128505129912
0.05864548637677925
0.002843296707154598
0.018642425946371437
0.026437024298204267
-0.013421985878276201
-0.027469399437808937
-0.025738126254623045
0.018973807091684117
0.0006559831731244067
-0.011157088706790235
0.012203668727284563
-0.03635757233015189
-0.0261023475497461
0.006245541163086119
-0.0016540306372788928
-0.008326383577871124
0.0019365946822474938
-0.008953003092673033
0.023092733252461306
0.0014481132563093253
0.023874798911693317
0.031152131051817418
0.06522069922383174
0.05216183234401962
0.045097691331561274
-0.0160951849535611
-0.01718197823724411
0.0007022946041630296
-0.0033858269081641144
-0.018319161983359634
0.01824004807204863
0.024125058602359115
0.005150683242628814
-0.10299559231595921
-0.016797529083445506
0.04163228319234567
-0.07698302835660564
-0.023541125643719588
-0.0011445389852269945
-0.020041191088014366
-0.0014543752490987019
0.10271948745537313
0.030081640908081655
-0.013378774702102365
-0.016225670859783593
-0.103759155984917
0.015584144795415329
0.02514077798755399
-0.015177814690758084
0.021095321683165486
-0.008455538151167003
0.004775929594864296
0.03372360285831578
-0.008090849863832404
0.008950240721206882
-0.002000531464545296
-0.013958552513121164
-0.0005400662249711174
0.02040646201580834
-0.013028545943934836
-0.021149784929947266
-0.07438456909310263
0.007603167643706986
0.0103665243993436
0.006371886986207951
0.02534791187940804
0.025342666144673325
-0.011736418457125145
0.0006996726353594958
-0.035891269614013586
-0.012344545398244634
-0.015038427744166234
0.06363632474461793
0.025125803248503834
-0.013551111446595451
0.010777179934268176
-0.035765887716293625
0.007780960056970044
-0.001694204533866625
-0.018691397730114606
0.00021960659457426998
0.010688467509428097
-0.00030731334742326375
-0.017003847023341984
0.012572299657394394
0.09319267329968789
0.007337125888141254
0.007912712465288492
0.038494337918693305
0.02979411390985807
-0.00633167738791817
-0.031313161980183635
-0.012385012618297232
-0.024548606394164122
-0.022696596307881456
-0.003139113619995421
0.0033275663925578917
0.026411694114495923
-0.03644369357763607
0.0037311477373551043
-0.009587462789290574
-0.0421260857375973
-0.004461079677411424
0.012770431708293827
-0.0033050476429591883
0.04551017890614848
0.02424196023734639
0.024340429518809187
0.05719230517176308
-0.020000354590299627
-0.02103110739534475
0.004250685623775792
0.03184222246504033
0.02086150869612171
0.04705335634019464
-0.007442062571579473
-0.020564424961305255
0.012608065914381896
-0.010792841116890245
0.00023611598497092357
-0.03349358193882046
0.018172268928007534
0.024405962178096714
-0.03637804612358651
-0.04838341287076785
-0.0042397700150147615
-0.02626811776676624
-0.019841501360025476
-0.057170267380885084
-0.037569926263001756
0.02042573112224749
-0.005147092611704135
0.02258253200378806
-0.0015709194748645431
-0.005297376572896636
-0.008998295818646746
0.015244061154498943
-0.006567815318908597
0.007140262893761587
0.022030403978311654
-0.019587332760788497
0.041726244473226204
-0.15781005822495378
0.004845378253478247
0.023471681830913697
-0.00976547743559803
-0.009776665339543075
-0.05369827611447142
0.02831368668349329
0.01338714799022788
0.008388340077982349
0.013936195184971538
0.0208760228834401
0.005548710063259647
0.10440936307511196
0.0018286770580528988
0.0005398604823014927
0.02662369503188897
-0.00906835955394109
-0.007866786218310476
-0.058707712060261895
-0.020249289667621215
0.0003379256926113413
0.02513980795924776
0.061099902409888524
0.015529784623226673
-0.005593328202381237
-0.031163948362761467
-0.10976282625094673
0.034570331037836036
-0.011503573411749736
0.026565843704487654
-0.015154942505990041
-0.019305101979271953
-0.043958506299480005
0.018593198318088377
0.032619969556125686
-0.01347085550511984
-0.02320963568269754
-0.02411366998726061
0.03756940022733935
-0.043242407420981954
-0.022188887601055935
-0.010026339850451751
-0.01430188837458725
-0.015012504777440643
-0.02991794390994455
0.14747521339364594
0.0875026726728653
0.0025476344587738145
0.05776954165018364
-0.020923762587506434
-0.05872103375103178
0.17543845499930685
0.03304619573773778
-0.02717407522102897
-0.00884987775832354
-0.011703773666729315
0.03348299253110504
-0.01854805136799918
0.05436350523350512
-0.0023340215645751496
-0.020020344033861107
0.07152720271683953
-0.008235624231832227
0.014720172890918815
0.01285396623025197
0.006739154700397752
-0.16538169614585435
-0.07279064152483684
0.009631633176291796
-0.014979719207973382
0.028492367887969827
-0.052628991933964815
-0.041776982324478525
-0.00896436284069118
-0.014620333202542938
0.03630545972174752
0.016480033203801696
-0.01607110692163201
-0.04110151250603573
-0.02146509889956031
-0.043715497544687634
0.011334958252091593
-0.019471296318699333
0.012151857780580923
0.017822517337636283
-0.016624563857988616
-0.022853442991292446
-0.022286052304310005
0.05229243590248584
-0.0016931798314785377
0.0032983952507305526
0.0938325802758504
0.016979870780862168
-0.01536535006537806
-0.010512813017800174
-0.004230332716495428
0.0017693409316729071
0.011284778571295805
-0.043495319494995674
0.039188369201383556
0.08047048448431783
0.00918101427116597
0.018591872691395946
-0.005880177183288631
-0.02126376606994895
-0.007176147208845272
0.014997374087220013
-0.022964271188682977
-0.016124087328582216
-0.005247453684882146
-0.01356965503990538
-0.008871514141144971
0.07140136224947821
0.0362123984304823
-0.0025494387483943866
-0.0013942741620231354
-0.005248520729865526
-0.0034070408045409
-0.04298930083601223
-0.015001262193779065
-0.005065576514835319
-0.02295617424095682
0.013189882337753728
0.0250842414145016
-0.016887306569759526
-0.02171271019385761
0.004690650633305638
-0.001014025684501348
-0.04594760371801772
-0.0015101949851389614
-0.014699284143424748
-0.014869268963661711
0.02285436297878895
0.006933527718979154
-0.010596688837155522
-0.026696356379541247
0.0061895910741740275
-0.011001158608045318
-0.002709489865732288
-0.008992549056419453
0.001391559066412419
0.029153800036623587
-0.007272426096535504
-0.019786908329475498
0.05574864023896454
-0.0032062169481698846
0.0036001296190149358
-0.015021908192855232
-0.0058048901254525685
0.015832710392959866
-0.01416646719973306
0.003205496260136512
0.03519465510826193
0.040872905726430195
-0.005119173436845009
-0.013499234881920655
-0.056830342865268224
0.005379945116436558
0.04045664088591279
-0.013680697292432835
0.008428902306557112
0.01120162025608802
-0.0031493893244703584
-0.051582545860177895
-0.016602372261750455
0.01907097203614371
0.04010720741873897
0.09157705614023384
0.009932216626228103
-0.04481438909235301
-0.05808736303610971
-0.019349717439421002
0.014176132662607574
-0.0673116025294525
-0.017033116229406915
-0.004001253619168326
0.005457706279418082
0.008429439546013842
-0.022789032692038233
0.03171193095678987
0.07594768904690309
-0.04172170766205331
0.10274622084735548
0.026632192214202356
0.004758520306039692
-0.03383262910551445
0.09556178568036774
-0.07568671418763971
-0.10591769227856396
-0.2652713860028487
-0.07908113798489447
0.04030683685809165
0.002731780332085629
0.022394178344679532
0.05425894787637755
0.007903738241789462
-0.007852983675542541
0.12635935284480207
0.05353739285818254
0.015518187072112184
0.048661269322638694
0.11010090350554548
-0.00043824879149104124
0.004335890602742716
0.02274398620524342
0.012710495451780627
0.1148806335480872
-0.03788302631242432
-0.035586816521863913
0.013039560659548513
0.020660329059214284
0.020397028717293375
-0.026504219748466264
-0.025032455333191168
-0.09194639304063591
0.12241181102992289
0.025931317073945956
0.0035013589235648093
-0.004957910571631734
-0.09647549430280931
-0.07561625811188077
-0.010523028860948446
-0.02867660885731863
0.03788924372956205
-0.02140724015581884
-0.024972540443637704
0.028304110505408677
-0.02291490224154371
0.028388010733981103
0.07334172159055495
0.015859901466327122
-0.012768862124735417
0.009710202638738119
0.011300814572812313
-0.12260494454816082
-0.0585988466400614
-0.06883775703843947
-0.028595894599510244
0.01645199861925921
0.00016251577767862808
-0.004972078236334671
0.014696099580887191
0.015100175636510846
0.04397617810165139
0.016791366221809614
-0.015730258347860165
0.017273539733364505
0.022699981488094465
0.036723302580093264
-0.11642420713601775
-0.05247998266650051
0.012844923778910201
0.007509108464300811
0.014348376988325216
-0.014370110966207413
-0.05282768366399878
-0.007437292337920215
-0.09496560174731443
0.030183431524606282
0.05243581446135981
-0.015080517736750981
0.02125129227046885
-0.02761183658514905
0.01696331843257935
-0.03300933670235828
0.07517541887451183
0.06523490962397992
-0.014530188996514344
-0.0029060502161815187
-0.015086177262206622
0.026275045359726044
-0.006687133391085503
0.00575546256092516
0.018615634963991243
0.05130625036205525
0.043929693252245765
-0.04001421184287933
-0.021427958821825136
-0.018589110736070256
-0.005819345911947414
0.07531778502945735
0.06400177752763568
-0.03762186579652259
0.04395259329301332
0.02768632337578119
0.00455253253290075
-0.005910488527187722
0.0026082022815632267
0.051118467873451076
-0.013486378889487467
-0.038377204542780444
0.01474925823418924
-0.01186720002446421
-0.0012388162149785777
-0.008996480155269526
-0.027871450894020176
0.004016324331961934
0.02986168389324951
0.022458219091077855
0.06220428757208548
0.009619002453023513
-0.013542961305409237
0.027936239507284216
-0.03651234136529113
-0.0069202118643877375
-0.006576810727242403
-0.03335415677152985
-0.025461396539583164
0.0046486955975451275
-0.008614270811879895
0.038793588658451006
-0.058744044955532405
-0.10485143801484535
-0.0020266349862845595
0.021779757144946937
0.06662981786992844
-0.014944681225812015
-0.015374950231790053
-0.04242436051875237
-0.1010368322910423
-0.010830057736115447
0.02458481376828467
-0.12521412397698445
-0.061330823913374195
-0.02109468786894179
-0.043997665402557735
0.05844553696354465
0.004001832606797335
-0.023438686382061032
-0.04311893106861193
-0.008605376253010728
-0.03070710782846013
0.01781831294044658
0.1289368308588228
0.06505113381804274
0.013848444387226507
0.08859434667967055
0.13806934920243796
-0.02348468585300274
0.004097508369894527
-0.01201593696908989
0.00012927508545899162
-0.0146192591822454
0.004931888192078798
-0.020276355250554635
-0.02644002473608667
0.03674919978813797
0.10025837930667687
-0.04011982507854578
-0.01306287182901553
0.0342690595248633
-0.03428089233084979
-0.007810296961355759
0.011577291296189656
-0.0203966771114625
-0.018501844107321044
0.022961099430680816
0.045000800570468215
-0.03768665578570366
-0.020671292535759243
-0.009604342478228028
-0.051217326571907244
0.07513421666868525
0.12883240715014574
-0.0676438849067041
-0.007097190679131197
-0.053323613468707357
-0.03924983281257284
0.007906121540879168
0.02272910617171968
-0.04108009383210134
0.005033742732313356
-0.013019495914953301
0.08885768284908199
0.02756280865570484
-0.06228769330499287
0.008147535156586432
0.012224790871157337
-0.0799704900354974
-0.06417261565857102
0.0054966719582504936
-0.008682195703197164
-0.011060863346128163
-0.015787702570557907
0.025084168961744764
-0.015280529377031159
