0
-0.04461531138182399
-0.054604927531705934
0.008997288069187646
0.019112841649339487
-0.01885913919446481
-0.04078875343888828
0.045714088511389445
0.02875630042095027
-0.058573516542561675
-0.007597345559677448
-0.006328406718863879
0.042041824166499306
0.08599278287681726
-0.006311975735941288
0.038007329544804035
0.022517773959949694
0.018897851543192064
-0.01887219370817676
-0.05122122252031033
0.00977585543583878
0.012296467046655825
-0.046424663464789545
-0.020097757990597966
0.0334345207552369
-0.017782374166536975
-0.043340810043611275
-0.009395459568725265
-0.02657126743562038
-0.013466659434799664
-0.02764434191769787
-0.08050838539993156
-0.007344795816944629
0.07250344499853044
-0.021150063911432534
-0.009543354640704285
0.08721514899088631
-0.024633594017732248
0.0033613082380607446
-0.011833001130006474
-0.03316116577958269
0.010059598733016727
-0.010835502860765726
0.07814299534123037
0.014978703416782193
-0.01644496444420068
0.018102966388710607
-0.005475123506185995
0.02126137715814317
-0.014403482176288243
-0.018880481488250354
-0.05747132021586113
0.007157916475072853
0.011482306321382918
0.06781909639437363
-0.0013380161836813915
-0.026812071580061325
0.028693060452980354
0.004067244185792178
-0.005745771679020116
-0.06292401374443544
0.16134123760534655
0.030701783387088875
-0.0007621283484705094
-0.02277013252693281
-0.04555091539334028
-0.011226618244530475
0.03678123460744351
0.01853778002984012
-0.03735288348518087
-0.011573318800219876
0.03441850527933243
-0.0017953667742793375
0.00027315461558095417
-0.0229067052675439
0.021502278233786972
0.013483761746699442
0.0063023671551388355
0.006178035669219782
-0.024586848706487675
-0.027667404075661477
0.029116248490902864
-0.0008173006119460035
-0.0051240861260685115
-0.004060803912646088
0.0020297892687200112
0.007138167030572662
0.00040950978928920215
0.026040476034346154
0.015426271361919831
-0.19175741312024475
-0.01967827395144647
0.035905147758077155
0.04362082267518739
0.004418067243238985
0.007352321667305724
-0.007944749171634381
0.01683639588446964
0.04342842585958583
-0.009018001209146757
-0.01014270087308779
0.022083857363575505
-0.03907611580917121
-0.005807201337894849
0.02093367385564147
-0.02849514138348973
-0.03255497502150003
0.011325511676161719
-0.032715990725055384
0.01053011760802874
0.0855209231824767
0.041701454912916526
-0.03337672569363789
-0.0007383156455441353
0.02481373337646756
0.0412088579956268
-0.08565082678394653
-0.09269166466634716
0.014047275836731075
-0.009400331934687934
0.018259791627452993
0.0014978959964654017
0.03540272697875663
0.011832802032526494
-0.020067281498659058
0.04426392921669933
0.004763604867032868
-0.019819152136184476
0.02395087148835718
-0.018030138696934983
0.01853091648745893
0.0072780440981413935
-0.02754426335058092
-0.09405522566460536
-0.0066515463276188465
0.06731110392070815
-0.013452001844691839
-0.0009367364148124755
0.020585314972308914
-0.04637499589248126
0.00563236407125824
0.04470544803824152
0.04526758681620422
0.03795240200699625
0.001391947504715583
-0.12943212064132073
0.025638101175832498
-0.015998771209679883
0.04180589100510549
0.020172431994837398
0.02172206566385198
0.016554980360154334
-0.005826365536791768
-0.01110676563805307
-0.0009827252520490056
0.0037616858601293656
0.018838983015324426
0.007354326945655126
0.029365007333218913
0.0035769749480296193
-0.06117359083997055
0.022174034685587023
-0.07424049434974767
-0.032696396492093015
0.0018667457039120213
-0.02722002993453568
0.0023446189291821554
-0.017217346561428586
-0.006771732493984954
-0.016573363063975895
0.0019171532723382561
0.015947222591349768
-0.016401929358064622
-0.05168447818073483
-0.018003997115350997
0.015736915731890355
0.06119112427881792
-0.07819418396937902
0.04244364386972255
-0.16127037936987185
-0.19060050380998922
0.02953140061992277
0.1438488283080272
0.015333163802492078
-0.06342207231101074
0.005727393236471372
0.00142252296620609
0.04955860389599696
0.0004585376402286299
0.0639582635235331
0.06520502573623159
-0.06066010367764923
0.08944273504341216
0.13702943094562434
0.00016654205840279792
0.02874395532041974
0.07283867074059677
0.10411292240685378
-0.03768039638953464
0.03429373123448018
-0.006004349785612612
-0.012893927890842193
-0.026763859759895883
-0.002335178326609976
0.05216693446173186
2.1162057866138962e-06
-0.018222411243568912
-0.025977528568828307
-0.021172080716762225
-0.020543960942138513
-0.05792010995946672
-0.017155465987453683
-0.06145006726390834
0.08869149754277438
0.05671674564104603
-0.008160813940672295
0.004997959726565255
-0.03201466457671394
-0.012225894252376825
0.0006809963613588318
0.004945976100525626
0.015641101920390987
0.000572776475200927
-0.031146371568826763
-0.013543631512076385
0.014919403413587457
0.022363254198050186
-0.02722536479328314
-0.014069446720386727
0.029050955441097356
0.013221170851984867
0.01112443050169741
0.03999177654080524
-0.012924562935104182
-0.03408568917926365
-0.03579365598255274
-0.0018031209126306404
-0.004747245423107662
-0.040439811063094744
-0.013156294099722275
-0.015143853611972957
-0.016250588067470293
0.0004254913174073929
-0.002501432842249386
-0.014204300815038458
0.0017940696031617592
-0.016091366920147496
-0.013770069855450377
-0.005632027235851667
0.018507733946707367
0.02823038298586119
-0.03862586551780622
-0.028686456986858233
-0.024752153481905525
-0.02353007497884316
0.022681320096166104
-0.019697249109429087
0.004224421615402389
0.030565062328231533
-0.03790846906591744
0.014726673766586228
-0.015401857244582961
0.100679079164825
0.07632699699115746
0.01772179968831134
0.12562328083206017
0.0818567191895767
-0.009339988467510928
-0.04072239262148928
-0.043164416961628004
-0.0017587176382444173
-0.005884750525913495
-0.007896998198522152
-0.0028986458550978784
0.018162300336233256
-0.029163522105537323
-0.00498583139324407
0.012043628614637326
0.012013797809259373
-0.030332364782202043
-0.051405035163931516
-0.027429636068687507
-0.07756519492823515
-0.03239772114301532
0.005085437970020726
0.0034679343502000085
0.008290512463406851
-0.027606861854900504
-0.03672280999513348
-0.0014055750469313206
0.022739535099993654
0.005685288100224661
-0.04562260829197612
-0.00264832126687095
-0.03360917864275329
-0.04028360605909707
0.00016138691917025195
0.03238774897462537
0.025958392002386095
-0.007264155918395353
-0.023852889983936115
0.008894910935530543
0.047429088377959894
0.05278204085506971
0.006638057260238789
0.09026789167556072
0.07620623358939321
0.016758225624640508
0.07035777564447172
0.020099166528145022
-0.03346017825578144
-0.04419117195402616
-0.020907639440718093
-0.013278468124813174
-0.008542049681753688
-0.032161481025554196
-0.03393565377261996
-0.02529436029872058
-0.03627657313011831
-0.013056666287158581
0.021563307428667043
-0.012410854945195757
-0.005448356753231176
0.004132863614097237
-0.04460867082886743
-0.02308472225141753
-0.00207519732041232
0.1024325791775681
0.01917411252583557
0.003711362663120756
0.011056716278139351
-0.01697827323726323
-0.0688038212356667
-0.022800401391602346
0.02417921675383667
0.00428569103589354
0.10809909622488306
0.06424625329467921
-0.05844334240231764
-0.04891474363430326
0.03229298012269057
-0.005089572485474551
0.03535405795801548
0.03919735791610611
-0.0401823741369959
0.050172083405394016
-0.02677512846679849
-0.005266405233575978
-0.06995834425956787
-0.06862271558378986
-0.013024224326244943
0.032025533280184135
-0.02291596914240601
-0.002166745808629018
0.05010919332858525
-0.007458357036268454
0.02743932637589416
0.0010523713321764858
-0.00600895275960991
-0.007850095312631129
-0.009696927849331335
-0.06230660839965148
0.00015283461558108247
0.042342593906894765
-0.006586644582139201
-0.030806451343392
-0.04950855140818754
0.010246344016843148
0.0026931877989288073
0.040214896613928304
0.002928412880869579
-0.019504031479693908
0.028745414783724083
0.0034218416892970926
-0.008885134714750106
0.008738198089428148
0.010953605072045446
0.05227527047551796
-0.013982868940981937
0.04984981201147161
0.06836706566467593
0.02564107841663276
0.04263069376198492
0.00018703553601588822
0.009637082868668942
-0.01734668177789399
0.02391817857873262
0.01925938921692434
-0.01224348793186134
0.005565440774901433
0.005625317324424063
0.00606784155000984
0.003443672247681817
-0.009939356471927344
-0.015820932835174096
0.01112783238087976
0.021389103861745133
-0.04054641978979868
-0.19404583451193871
-0.15368095582327798
-0.02890354935595833
0.012566343476939607
-0.03166000724226481
-0.062477508333297835
0.025386779553145132
0.03388882856003876
-0.021052078851460328
0.040201870960499576
0.0748251586329128
-0.0001059550957733883
-0.052045701051559326
0.023307679952494383
-0.011147283373846571
-0.04890829847449122
-0.014947073095448
0.014111153423612875
-0.009331589240406725
-0.001354394027802619
-0.007682693749268351
0.060131776276624214
0.032557405400299444
-0.01394447957390994
-0.006713130328428665
-0.028643504220762887
0.05396309997352946
0.11901412551195542
0.030586870244096048
-0.02201999631977813
0.03386994965392106
0.029576229430734853
0.02053601257454139
0.06824821333484217
0.05206527243634158
-0.0003535369008109468
-0.022218822755362275
8.792047110614769e-05
-0.04262847387879179
-0.03784155547687156
-0.03544260040254024
-0.010467687752272418
-0.004683423062865493
-0.008830735224228429
0.03303272017807495
0.013607897625052158
-0.03556475555425309
-0.015434011964583216
-0.0029114928557838144
-0.014831308374772992
-0.06902377618014535
-0.04053167714625956
0.040920466114367865
0.03576786084561866
-0.020422197980998792
-0.035647406739126086
-0.012908923024797138
-0.0013396532387332139
0.020324661593706824
0.04016622248805718
-0.008424251748818116
-0.02188043674260305
-0.016591455297286194
-0.00670263752604234
0.008613602495105508
-0.022758580921402823
-0.03169255021592632
0.010145843443825344
-0.027530346831751824
0.08924861890936076
0.10062132416818312
-0.036874244351576685
0.021001616929430495
-0.0068125475573995965
-0.023950996430216104
0.001419271757951597
-0.007002608130144711
0.05415613915164978
0.011145888105210664
-0.003905275610297803
-0.04587268694879481
-0.03924191551021307
-0.0238596776667805
0.014529103568550382
0.019009112253457652
0.04507649653963984
0.009116302175692533
0.009787980496976606
0.024770597834505078
0.04922461622768837
-0.00015808673473164569
0.03358913796851361
-0.0327839664271372
-0.05341235154736651
0.004398990169462045
-0.05771105523513395
-0.01011196753709723
0.024685016215628384
0.024023439964144994
-0.05244817917690831
0.2002729269429067
0.038876345943613014
0.05049940611032524
-0.1270956943063239
-0.11471338684362671
0.005213148872771176
0.01119733834741571
0.07625612431899731
-0.220877859898675
-0.12807061752503768
0.03731229491254319
0.025088575248414104
0.0020056923962453233
-0.024969176209834017
0.016973353330524986
0.02541058272352507
0.011369502803918023
-0.022344654871130524
0.012829954210445483
-0.011206175885037374
0.004120017061194573
-0.004522854939703579
0.04472416454391254
0.02350433050530966
0.02287132617798906
0.008097731446520899
-0.01104310345381563
-0.036065782626481926
0.0037764407806264886
-0.0673573046562573
-0.11165736839314058
0.03740960506807203
0.11255106697341118
-0.02919471987831786
0.045710479106159045
0.19329562606670433
0.017127641821683585
-0.04565342362605527
-0.060634554751615506
0.01977801511479107
-0.013566788067367379
-0.01717670774948355
-0.04526209405431236
0.004873750841604435
0.05732238409663767
0.0227265612633355
-0.005699492161202719
-0.013889240557005786
-0.028662801064632495
0.047249567461625404
-0.006935231316237345
-0.011465841118056352
-0.003566687524679638
-0.0079562890633508
0.006927802201038565
0.007485211143924548
-0.0014692672912579553
-0.010578560136378458
0.014125543027452005
0.0032275434501932597
0.026336022197052382
0.010208077605320765
-0.01244369971618951
0.034381680541087
0.002252902024193092
-0.02913021128806861
-0.0120992270654038
-0.015163585534312865
-0.033749633125512504
0.014768983675770047
0.00945954966674205
-0.02471609430557997
0.006866196070705387
0.05445667612608611
-0.017469050515754495
-0.020980262338857365
0.006374070627766915
0.000525772827779116
0.004884148968219505
-0.022940329678352512
0.010678263532159681
0.020443902751192976
0.03352052031224919
0.011561649420669236
-0.005047077124124989
0.0039886370943657745
0.008580573897847816
0.008496024549813245
0.03429459246488464
0.0022279728200741314
0.027129710650518144
-0.02919945065914376
-0.12017381186846504
0.0023962413436458586
-0.026365554120211302
-0.017258918171673906
0.05363684474727157
0.05089157682541506
0.03586990742397295
-0.15463489349832002
-0.1190851559078182
-0.004193785255839554
-0.03730517764901963
-0.009380258818606926
-0.03821073131890616
-0.014050767304365535
-0.05166855956309906
0.007511429594196028
0.011701887103878737
0.0069579026443146496
-0.0339538969170693
0.011257438575991048
0.00011487839458419474
0.014494888168150961
0.006805756483952248
0.09978714336549874
0.08398298474956216
0.0018811278546784758
0.09472467507311712
0.05120875190994736
-0.00091347163388162
0.0015527815439691126
-0.010866817621132431
-0.0018042043695806673
-0.02482114349949042
-0.026306557793792398
-0.009315041453220738
-0.022446679548122756
0.005080379125169468
0.09957235839404122
0.02860564267931923
0.004298912020465463
-0.0016048466626828834
-0.00042718497983755327
-0.008484980521387723
-0.004677971789613571
-0.03560195606038527
0.006218857217769905
0.02613477004222926
-0.016560641198056728
0.02116613917231711
0.0037040523555053177
0.006126463804799548
0.011381024927238822
-0.004287695894878319
0.0286493065111799
-0.006380092367627953
-0.02306881234102652
-0.001855723762326222
0.030735073091073012
-0.021267207448666337
0.007001560107410613
-0.0679340064900396
-0.0004577341663179177
0.0021012282119926176
0.009801700228698517
-0.009953880736332688
-0.1758790584238508
0.0028669306409993215
-0.0013361260471377253
0.025878982116413797
0.02503465483647675
0.010541703503910505
0.056196666961230685
0.0723630937303612
0.07723696333916803
0.0077410652404033675
-0.002014738655609984
-0.012568849943820598
0.03583355687292123
-0.02264477191635586
0.03321296259144587
-0.07459485435354576
-0.03535144543621796
0.012642830003771427
-0.03561339594287405
-0.07244207690463912
-0.023516769696582424
0.00861417333605277
-0.02229175404619646
5.9458275929966314e-05
0.010692252232791643
-0.002012603751284995
0.02489147158428016
-0.0017068331305422795
-0.02450513042108588
0.0015157256876769671
0.0025030101040993133
-0.007376939936312758
-0.011329592975159855
0.025253859135061868
0.005206817183263807
-0.020495621786176428
-0.006952259955202209
0.006054581064427134
0.02169231832591636
0.01685214712575834
0.022893278981306883
-0.000512586028969963
-0.021790324179051898
0.02926390223132094
0.02720151526358182
0.008927357815285067
-0.0073992046504899826
0.02048549033235772
-0.000768375291457732
0.0306278726587727
0.0645048870785161
-0.0006134287958876542
0.004968893756770921
-0.08674545936910577
0.02578247393170694
0.026626300719508614
0.028816065471233387
-0.12441068831142531
-0.0918075687172097
-0.10542796909731131
-0.0029670347190553763
-0.006479337719224435
-0.022510570165777444
-0.04237056057421282
0.06579718720442518
0.07893789927763663
-0.025956085734526756
-0.000699746103957703
-0.023595584948641366
-0.035265290376972735
0.060302416336429875
0.029356991958012345
0.01627027455293106
0.03360260079949235
-0.0013656334558097203
-0.037729161426469426
-0.033414683296269204
-0.009889412423019295
-0.005749369496964349
0.020272759937945497
0.05193479932836069
-0.007214666230887965
-0.012499559314834327
0.005545498866255942
-0.003182987492345688
-0.029088204646533593
0.08987968839562284
0.10637239456789299
0.06803433247496808
-0.052116310187575295
-0.03997495669021658
-0.014196373022461111
0.0003607292203341095
-0.045707548298251105
0.01671770414680478
0.12736429391886872
-0.04566831995936191
-0.017055928892169545
0.005930808429369957
-0.004971627948072927
-0.007209752866393559
-0.024498575670942005
-0.002954235012582442
-0.010245496219067446
0.004418243519211161
0.013180860651521627
-0.01821768522389613
-0.014129376621803556
-0.004095279286054088
-0.0127641254852998
-0.03547517147371544
-0.0238705901222664
0.033727119317815704
-0.012037375185001283
0.010952436728899808
-0.00442245935882383
-0.03495122312353149
0.08050543752729304
0.007676084992723622
-0.03230868275925037
-0.016987421898719324
-0.03157206642696225
-0.000751221810832325
-0.03939889601716035
0.03861368316395252
0.1514182313008296
0.04670346751243964
0.0023661822165880375
-0.004205372862707688
-0.005891512735410045
0.005913869906788138
0.014415555688053116
-0.0060463725201746095
-0.0285311718217483
-0.05214613599914314
-0.01519934414941621
-0.03423909745405395
-0.019521968121479518
0.009997383732992046
-0.022311403297930122
-0.000513461994140828
-0.007702561294288497
0.006225019002459196
-0.010948484889944913
-0.017568857369453243
0.017253809248514083
0.004714379362421955
-0.007130384611818378
-0.02374116963072897
0.018138146160706452
-0.01548545330199205
-0.023334663364996837
0.02637137553581321
0.0533426611599362
0.020223776235050173
-0.014996442290844694
0.01651658933841214
-0.04261901824927932
0.010636037763417674
-0.0029783534059686536
-0.03932198171785503
-0.007633625733835948
0.009287584638367895
0.0025764534251338502
-0.018871812270063678
0.030149194811013275
0.006391164572520968
0.005266515640959557
-0.011519604777646542
-0.02194622136803442
0.08599004850804266
-0.0027569580821478856
-0.06695471077016198
-0.004985120014410938
-0.030167027177509305
0.01430121882694036
0.023021957493690796
-0.011911490492818392
-0.058611479236917924
0.035640632257296516
0.021891771641743264
-0.02851259601935097
0.03876499404734519
-0.01325706391895482
0.007584110984471434
0.001674261350159545
-0.021936601591154667
-0.0020119294326002824
-0.05142293569843854
-0.014758890851431035
-0.016773447074986184
0.06674445557929035
-0.02032339247662751
0.005995737907516627
0.0008861377176698179
0.040919112483476947
0.0874753230223704
-0.019788637854844946
0.018438690183381394
0.0404804261359489
-0.01392517104613039
0.034028373542151116
0.05888761173904455
0.016504041613506173
-0.0054902215386037545
-0.008947452938577917
-0.028369173491985616
-0.08362800483184198
-0.007257985160547157
-0.013584931970512887
-0.007596904074391074
0.0003910776542939977
0.03418243531317248
-0.03499155206613694
0.034172959093329826
0.021202619483367487
0.024401727372801874
0.003197157560525906
-0.006297462101694153
0.01496195005281277
0.002890179024976341
-0.04915942138313734
-0.012263409326427723
0.020485502805484144
-0.011814121232683553
-0.013481019440446208
-0.009353025476510084
0.002113786163080764
0.005399595481033358
0.02820167643103682
-0.007935307434731002
-0.004228043934850486
-0.13875255588630506
-0.10190011317343292
0.05049402781262597
0.05076083738313126
-0.0055191199948134515
0.007147358770885932
-0.01310675144719691
-0.005334005921143184
0.02803943055335923
0.05379235648235298
0.03383358389478611
0.00011669099895474569
-0.006515145309463265
0.00939688819149085
-0.015370328096438587
0.03044064997214716
0.03918159114559101
-0.044917467779968585
-0.008487728385235151
-0.017667942432246855
0.011640119901618177
-0.05931187052841503
-0.023944531631635645
-0.0214131602081419
0.03761953905875817
0.010611946155043706
0.030048775731440786
0.01223346990898993
0.009195426334046455
-0.006223710883955812
0.0317988576032825
-0.008567651055582952
0.025666481542703515
0.011431722033067705
0.03465507462728479
-0.020761487483781624
0.06395356637470888
0.0835336946826156
-0.001961268072661352
0.01068345526740831
0.02668028552177033
-0.24508889140113385
-0.12052521814501492
-0.010335517626575884
0.020023961931197955
-0.013626150582568457
-0.04452932593921042
0.07133295482991651
0.04439944211439648
0.009285658721060023
0.06863660702543646
-0.012186945258956187
0.059257966552474735
-0.14473005486198087
-0.18913060104656557
0.03499197435076666
0.019923487490711923
-0.009638208013199588
-0.03448407569592611
-0.022905979268927575
0.026596666173351727
0.08512539628247939
0.025345990662948504
-0.017830793632991893
0.08456711523856543
0.07919052922541621
-0.028782656240192394
-0.008125174844325036
0.028846314346357222
0.03452308122624145
-0.028659751516249294
0.03951061377848118
-0.02754985152416637
-0.010320319399631845
-0.02450191854397796
-0.022978541261166073
-0.020319322822950635
0.01740130703524924
-0.0020540388476474034
0.02760167886826328
-0.022214008589601743
0.02990203642269074
-0.01273511548974925
-0.007394631107438142
-0.01965673720060535
-0.005125084577991326
0.014974485060766088
-0.05363606081194481
-0.02515274403124179
0.009210978799781744
0.0267652932848275
-0.0005587997370185961
0.00011750812583121394
0.030544571674035535
0.02626530231272943
0.008913739690493527
0.009998662344329716
0.024741906327672772
-0.039211735014576365
0.009111043880078426
0.043828462608761054
-0.01334407572357854
-0.03575786838577257
-0.001475493040260259
-0.0010735199726531746
-0.015338591457479716
0.033909140868206865
0.04119865811230488
0.006948634655705741
-0.01322014794365163
-0.012219196831681147
0.017506582735088823
0.014252603303471303
0.005615449258438634
-0.02256161811221978
-0.02693424594646663
-0.01927350257995901
0.016925734048987937
0.026826324097417385
0.009110011969239058
0.02995454082558746
-0.0010354247888125184
0.002048746238769397
0.00722563249401516
0.0006719326047858686
-0.0059095747773229
-0.007861231192345799
-0.039279832689418454
-0.01607422759952556
-0.0023347537694642963
0.011961194151000203
0.008499241245373556
-0.032068957804408785
-0.02225128078521751
-0.011319093312085414
-0.0009964505516019482
0.0027648906761794045
-0.007304425295727076
-0.016595115893573195
-0.020328501924049353
0.0019185824917169767
-0.009535694277204012
-0.022435318515221955
-0.006917273060377393
-0.0025165770475462797
0.010824006553712706
0.006091036427640922
0.0269315800632325
0.02437091006267231
-0.010540440108241076
-0.013193015400738027
0.012886651928019861
0.03261415801997609
0.021840570058080908
-0.04614926824225668
0.011152148884494782
0.026875267483912894
0.012258673691794453
0.020592805684698148
-0.038858051487117726
0.05150149973663796
0.17540986282631482
-0.04842230388831837
-0.009993342474539526
0.002873495996646612
-0.10087733222289451
-0.03291646984283343
-0.03136626669552938
0.006379398211491191
-0.01718353647072486
-0.09760097110265974
-0.021711375025374898
0.03519647265633066
0.05219346570672567
0.051779487604412096
-0.05747172229723227
-0.056469312880426996
0.004500095818336753
-0.0046619187914079
0.03640009115848056
0.017950275292914233
0.036004417837255935
0.02659177613997591
0.012242869603925361
0.07472238661196443
-0.010095145387792515
0.007139582029945921
0.03644576868262104
0.01833089650669071
-0.01589531422406336
0.02411856667205419
0.02253855856145625
-0.04345499871401467
-0.036250476500502615
-0.005939341221523312
-0.22263828697118365
-0.10139289243903796
0.029542852690544713
-0.010116810776180131
0.2110348725313844
0.00812068496004013
-0.008275619142996057
-0.011081163777176644
0.0363214881247322
0.023846259894288124
-0.05287573835802764
-0.029796745388310904
0.00565048091785728
0.0466918344740944
0.02746810118438862
0.010093556997334755
0.00947878641270425
-0.0011493808090540553
0.0035092269913428887
-0.016313280785921855
-0.0018964945115977532
0.018246284854017445
0.03860987737051587
-0.026987807752352398
0.019031753284248817
0.03640830837412433
-0.03349770788092494
-0.18470339662526597
-0.059292477812345576
0.023925658537245896
0.012356916819259076
0.014790310895311728
-0.04183269401172156
-0.03205324475287587
-0.00888635182061522
0.0030570357062365584
0.06329148317188071
0.043185604414806456
-0.017879356570359405
-0.016401081949183122
-0.06225736545657951
-0.028802208711993342
0.0421288060460162
0.008899723771500457
0.012699033205506275
0.03488541794021273
0.03764332655018829
0.007117316034157333
0.008359132644674264
0.016101970642888336
0.004758666821672451
0.08612168724944846
0.02848190765224779
0.012088187443838851
0.027285528018550217
-0.005482515943213255
0.014422780352232729
-0.027025594488426823
-0.07631375006988342
-0.051392631089633135
0.014754203095766574
-0.0058006887293936835
-0.040087807012048005
0.00013376090097194253
0.007521911560895926
-0.017747390314627964
-0.0016482119785644533
0.009396338304144151
-0.01769952122742022
-0.007103266440569907
0.0012422818986373156
-0.043444114929655074
-0.023876778234747986
0.012795585513830338
0.08863453327096547
-0.02416586659758715
-0.01611170164038879
-0.012563889850871023
0.030337769143304657
0.022798827781678785
-0.00515573723330246
0.039546321804497964
0.007474467333864446
-0.0006489412575615253
0.01471994508361365
0.02211911127130481
-0.028630300164384438
-0.024792645717555493
-0.018348657584919006
-0.003436040999188093
-0.0016541443584296186
0.02406962360895571
-0.014386931200344006
-0.03327484106701098
0.02564111998529823
-0.03383920995260716
0.01813228112595982
0.018207309188478786
-0.009819966805358623
-0.007392764684489481
0.00480487625482211
0.024754518603813294
-0.006784758828083825
0.027236662408723716
0.09161546523202015
-0.015340839521544674
-0.028983355848179144
-0.010278396495814503
0.029302371924447165
-0.011768923319788929
-0.04472177131678624
-0.0001902915971229079
0.02198206470317406
0.001171871537377525
-0.04408796991325826
-0.03866445554551597
0.002963226422162493
-0.05301022527783409
-0.04520884035782331
0.180368388769811
0.020742411624062543
-7.690039335905767e-05
-0.020061095393656567
-0.0657622244418981
-0.023405330889981417
-0.021947030108238504
0.009737091470244747
0.056454665396727936
0.06197695675805651
0.005902756612083399
-0.01262343138486737
0.14469614629477626
0.056227538706002674
-0.04336560232534571
-0.030688918859275462
-0.0150763473884233
-0.039247981208415016
-0.04742640297848413
0.027367665833249497
-0.04557852515738051
-0.13662937924015722
0.0006999433722131431
-0.05262411379998528
0.006990088393437149
-0.027026458515944124
0.050431828087398614
0.07388608298160372
-0.06835624671538634
-0.04688315323077704
-0.024229561631580646
0.005141514007250291
0.035914338244745575
0.035209971840017916
0.05369962801251229
-0.021139610659154106
0.025305456424429804
0.058682949082834855
-0.0022237266454888864
0.05287187544857055
0.041108280848554495
-0.016497838564974134
-0.01566867488407462
0.0026876193030239844
0.03525315695332305
0.030408149593191137
-0.09905881557831589
-0.02069153040371894
-0.04585919246246024
-0.021419916217617525
0.024822635486983956
0.00974333538133317
0.013327562164987148
0.02738496293954377
0.01121940630456995
-0.024350624183336396
0.009571508606210975
-0.020260799542188613
0.014419794219689842
-0.042984101740193986
-0.045346932907834016
0.0061261707303320815
0.04190281767830367
0.09921111963790655
0.01055136169837019
-0.20618831564999998
-0.038465395062512515
0.010775016720191167
-0.02933711527054517
0.015553228628632175
-0.02721502833891069
-0.005892174567854973
0.008414004155613362
-0.015149943690273497
0.012841920195499493
0.0004409104462704462
-0.034606832900746315
0.041035561469118215
0.06183486495041078
0.041649242971643956
0.03876041793558148
-0.0194795499503579
0.027040976878167235
0.010100227038583012
-0.03164960198957571
0.01995277250022018
0.0048049346428455705
0.005060719191828952
0.005762626583782086
-0.009494732922190682
0.017397776881999737
0.021478946660121918
0.03462355231582626
-0.017705913430267995
0.023684245707695555
0.003829811899224314
0.02041619651834978
-0.00872446531230015
0.01653992312809224
-0.014518460512596296
-0.007218655736986411
0.014519135131789486
-0.004580785890357537
0.004713312362179612
0.020686029882758628
-0.019192735738536897
-0.058565597617048375
-0.013346118192821369
0.002842187634766966
-0.03472903502916024
-0.038875465702152445
0.018785489514493405
-0.0009528506318532203
-0.03146511970508188
-0.016726454746305783
-0.033191944633224515
-0.0023778913634336886
0.034272383253033896
0.0348865208728089
0.001279319167543957
-0.00022021978366124716
-0.03362734406251462
-0.00627616359599249
0.021025772087033167
-0.0012816763777734135
0.006320460124214276
-0.005021009842003627
0.041863098741606465
0.001945262032275942
0.009735664712949644
-0.00521045961324378
-0.06063974989235941
0.030294544379757257
0.013450301409525273
-0.03019515201697882
0.004737082852226339
0.07077894954475092
0.029576930931808677
0.06735008117667575
0.04479954212461269
-0.019813935987281713
-0.012396348079580326
0.03888831786330821
-0.07798070978505894
-0.11845347652345713
0.04574169976901139
-0.04139863933690002
0.07336637698281578
0.044666496249876134
0.008889892242566151
-0.02966726360135804
-0.022323209390782275
-0.03053431618283707
-0.007586332304988852
0.002862416942788141
-0.02490815154406358
-0.035039910232010085
0.01811722995530654
0.040908427281558524
0.030762696624649307
-0.041780616128477714
-0.03165966247133392
-0.051156093292203636
-0.029066901800060458
0.005508517642884065
0.04369038668171885
0.02133017633124147
-0.053575560411694916
0.030847658745858233
0.011848795546959796
0.02592226616259258
0.022920134256506176
-0.005199513579094268
0.0032545980706954586
-0.06388722294809189
-0.06008705638365994
0.016224618126790793
-0.022882250037311563
-0.028942824788893748
0.012216503635302852
-0.013694864942509686
0.1956069071164055
0.14448707600575617
-0.051809044812813766
-0.012803836837475602
0.00031600838739517117
0.0130711305536637
0.037344897674467366
-0.06273128408403049
-0.08051066156315739
0.031581534584791626
-0.04005559532914461
0.007926115655474398
-0.04680180946314987
0.002661856916720393
-0.00955005975502349
-0.0005948374264521575
0.003005917709563192
0.016622462299478606
-0.031770902681043156
-0.06277631818225314
0.005577707032144395
0.016865963237706668
-0.05412527639636542
-0.054477278780306754
-0.059993955094223624
0.09914900502464138
0.08500021471345455
0.0008437481727960502
-0.00623511045951041
-0.03005865224614196
-0.01095008334628495
-0.03982503336195048
0.11343063922943003
0.0889814075520293
-0.03928998535257312
0.09055214986882072
0.021250351179221433
-0.001132434019422212
0.02928750496220792
-0.0395978754853412
-0.009364279730123635
-0.004906063066405345
-0.013078554231956748
-0.005405363035423989
0.0066542171326798285
-0.02036629582242939
0.08877991770980298
-0.07224490959771139
0.021661716487706716
-0.054238245827202186
-0.020831380446209996
0.022283373249221874
-0.01257146108344447
-0.012457402272496603
-0.04074460684067766
-0.019530130837608854
0.037036034739519795
-0.010588254393963378
-0.04382391215178919
0.00041832620234117675
-0.05288308816571732
-0.016394349953313767
-0.018078330702202317
0.01518382199575799
-0.01756912063148331
0.1027453973843971
0.13089196721141524
-0.04035419116694216
-0.0038729151562247556
-0.030359375978199175
-0.008017846716488865
0.01519877833606577
-0.02248291036438178
-0.010323935199400254
-0.02568212372389222
0.005832303931689361
0.02395326797481193
0.018855066025052263
0.010725167834921768
-0.008457767586887785
-0.03573321695512756
0.019006955527203877
0.014138825571805104
-0.0029342051517737213
-0.002568030184678887
-0.03459802748968367
-0.038935048042875585
0.08069081336968263
-0.009437346885586234
-0.022107516721932372
0.027182814185927048
0.009226769247315837
0.018074922207832952
-0.004717171867079668
0.016340551552532646
0.004807038035900924
-0.029998390200857823
-0.023411826039156217
-0.0024978614295483306
0.004703075067534899
0.020375592308038287
0.020400695353382636
-0.04255199044913536
0.018475411494329682
-0.01599381544295159
0.0006561061024786756
-0.009163170779078373
0.06382043050334912
0.06132311914923911
-0.03387931532887986
0.01958055743586704
-0.057529124023540164
0.008870888128652036
-0.006923528618612218
-0.06042443716423457
-0.02118377669819857
-0.030107742171192112
-0.056560847187382114
-0.008187772471210225
