0
-0.17241839939647563
0.04596071751337268
-0.024628828545639848
-0.049520142378362234
-0.027841478484455895
0.0020965676755729757
-0.004184910525960993
0.013648685217828494
-0.0015670121096837445
0.023600809873104672
0.03522177652745415
0.0021499725583174413
-0.014742873261232732
-0.016316884233724106
0.06420514568435251
0.09584865008048524
-0.06379547504978156
-0.0405339039616756
-0.010255055287928312
0.02988205357123419
-0.017990932705878534
0.018833258797144245
0.014978326668379923
-0.010751658487832444
0.018521703049274217
-0.017309448428817223
-0.021863179397589944
-0.01405067857547702
-0.013802081682534287
0.0026121483455191948
-0.005440669309029394
-0.031344744261281976
0.051155811875583664
0.1414213826668055
-0.004805630943387151
0.0022893655362923675
0.08086048879281821
0.11845930683383911
-0.0031908682621227115
-0.006145800418671941
-0.042448981838937486
-0.01993202964502089
-0.021452261717148695
-0.035857120634352604
0.006229909948139353
0.022425984444425492
-0.03039061259084578
-0.0006498065672133276
-0.027790779589714078
-0.004927406639980009
0.013909524846128337
-0.004930849418404683
-0.023728576329164853
-0.0004406482319008393
0.00036397364395202714
-0.03721106095831395
-0.044875668950164684
-0.03335192187636726
-0.02608381069113821
-0.03251639041127262
-0.0003016592107905231
-0.013057595203627856
-0.006400118512116564
0.012194245039687945
-0.023603829294105615
0.04357814435630576
0.01175577430764728
-0.02327974763954178
-0.0037439568125964976
-0.027230557725308406
-0.005171263792487728
-0.03263119356046084
0.07347917291851393
0.1326131476786378
0.1251428947250365
-0.0027432746459031565
-0.028456356646114143
-0.06408278924979217
-0.024891977324566748
-0.021714834964148146
-0.02788777850293244
0.04749814696157516
0.0025933987051830966
-0.031543658490522146
0.010600991990920587
0.009591969422495539
-0.0005578124958744625
0.04795903352572661
-0.004393642309688189
0.011405621989598555
0.03489066854740555
0.019714260465487382
-0.019019910059315935
-0.04938670489125453
0.03281737058351139
-0.03999735199126286
0.027686915305192364
0.006906509445226776
-0.02451919078358706
0.03318773139942168
-0.022875177167057593
0.06182096633669266
-0.046155597029888154
-0.04239148848905321
-0.03161705839264592
-0.011097507170449217
-0.02751980935870974
-0.003374475252875202
0.008246557925189189
-0.016683373703515525
-0.0030004753306606
0.02340980452562092
-0.0009125073558806347
0.08463287497039393
-0.008136460135809771
-0.03431183965965065
-0.014031331661899508
0.054472670566024374
-0.00337089698467517
0.024574830036191018
0.019836073415180237
0.009654827103325356
-0.0008613815154651394
0.027984159307449845
0.02002492930201682
-0.018198517444135705
-0.07626258085934697
0.036032422968559054
0.01628193623746887
0.028581375469945047
-0.0008774730239597401
-0.008914497145770035
-0.06917383461264118
-0.030871836911757048
-0.004230462687713614
0.030213932005786665
-0.018354162629212824
-0.02268591072716024
-0.03261370371675787
-0.014910850926582066
-0.006791150108992878
-0.007658124083488225
0.007629376231747969
0.03079392928337889
-0.2093342561825668
0.022732103241908126
0.04780653429613655
-0.00969171973120516
0.00902344288885822
0.006883453492221859
0.014236719505089515
-0.00485738671362843
0.009289123366558842
0.051149598295958665
-0.025579454126082594
-0.023035406927733152
0.04045773917659966
-0.014976797298959434
0.00719051210222473
0.021290362197044613
0.012002561634193625
-0.02241447131200133
-0.006449345012776827
0.016779377944103915
-0.02475509061260966
0.009164799118824707
-0.0031913986992952942
0.04061638790961839
0.0450519585965509
-0.007324277719280291
-0.004536492592914861
-0.02753812906993233
0.025079198406480936
0.030819801460672328
0.05242438823440389
0.035978216124343064
-0.03059630785878534
-0.02461133326887999
-0.03009796242659405
-0.008298573132066464
0.09021056946382827
0.054772921204843485
0.0030824883087474924
-0.15102734763729694
-0.044877242724463966
0.021366399481167704
-0.02177171607571363
-0.02004862202634905
-0.023038961438245454
0.03791107500457233
0.025240415797747443
-0.019392592333994145
0.02605020691865324
0.00791707568377891
0.020542120723292992
0.007206620410773075
0.0013548862116775982
0.001643124433190247
-0.07102478477173393
0.03543125511726495
0.08910061638551303
0.18461665362180418
-0.008387913612197827
0.05734551578002292
-0.07289380316602162
-0.13608758367838272
0.010976911412015289
-0.0032334742216167667
-0.026305007916871015
-0.019379715865205132
-0.005091947967272265
-0.002996650519299919
-0.016961267937727946
0.02107580329810124
-0.019515370709245843
-0.024069026841533236
-0.03595980457451759
-0.017004473178728923
-0.009424136540103274
-0.006094696834126631
-0.013477108351207351
0.003072768453618788
0.03266549332395693
0.021193133037127793
-0.0036500407951651787
0.0051050989919972254
-0.019196292066973708
-0.013988205601798451
0.036547827995944075
0.006132484343410646
-0.1127503656407612
0.0017443779203081854
0.053621286219475206
-0.014428263205556614
-0.015078384741542742
-0.018584738214543824
0.030887124472213312
0.03503704409041628
0.011862995453564722
-0.033476825521391404
-0.004333440277781802
0.03164898646866706
-0.038196592616329884
0.06242379717777124
0.04938940187115792
-0.023985910843948938
-0.04112172377164472
0.005013713857521535
-0.009809868699582733
0.01775303502443881
0.12219161926163336
-0.005310972408572812
0.06476171427977014
-0.14818093330412543
-0.17330056618337392
0.00031161431270923875
0.05942127736804639
0.14948407809348868
-0.04914477043622993
0.02226733673840565
-0.0157362489588276
0.012470607793267136
0.010572992618120516
-0.0015296085478028905
-0.013976597276565233
-0.007891796157222764
-0.026667376182964643
-0.004753407485015586
-0.02707267679800922
-0.02461267166304766
0.06093936180384858
0.04896028505801831
-0.08652697770988067
0.05653197013360893
-0.02911035811021522
0.01571298748532838
-0.012007775033491297
0.014243012387279807
-0.011878610647133305
0.019920691551638052
-0.01855993363902947
0.000917136521911989
0.020755198670312388
0.020576282666337237
-0.014854602802131103
-0.00918744842054257
-0.005322314775636137
-0.007271618708555673
-0.07407500146120104
-0.0923190328184352
-0.02477561710519432
0.020388509379085956
-0.007670678526608537
0.15295150522423637
0.0718623221167014
-0.04050421970027471
-0.04398611981035018
-0.00736999538812468
0.0038569139251213537
0.0429513545334779
0.09714812361816647
-0.00900119106682633
-0.031955353320157434
-0.03313489671069371
-0.0030598746915413873
-0.017988229701993364
0.03091477304501783
0.07725053118552641
-0.026990537789279543
0.0292650479993661
0.0050670514558136745
-0.027377327576637214
-0.00389302528466576
-0.026662584027526106
-0.0026669054263326344
-0.02492925009119364
0.03463472288551173
0.03390630000293336
-0.0016093221193933642
-0.009906794331169099
0.018334378328877535
-0.004078739376362474
-0.027205275557362216
-0.001871697450143451
0.029087638802688852
-0.021114176052931487
-0.008196482532709319
-0.01159651561655668
-0.029788172868315765
0.01616616961634372
0.0026133088428369187
-0.058585497359244655
-0.060201301592897195
-0.0029318314661037734
-0.011380256700864047
-0.004961797509483426
-0.034631313077596954
0.03769628206398174
0.025609968733297007
0.03425527978867369
0.020684469843473545
-0.06226836396204969
0.019546669648559976
0.03734003758609235
0.0032963333441035996
-0.008601570849039559
-0.016277656743935043
0.005235662060519757
-0.04975809069769408
-0.044308645190326144
-0.005072103736356687
-0.01037524130902578
0.008399585764975945
0.04823708981800927
0.01889899439167571
0.024802654818206937
-0.003460726595262667
0.010332592346779601
-0.02856390660465732
0.0076528174785066485
-0.0026000440333466732
0.000969878929064372
0.03139156596291103
-0.038195187621950115
-0.017289326928085876
0.01252655356981508
-0.023996476060772126
0.05038094592161212
0.02989539825681025
-0.023012754806384966
-0.013524220680956048
-0.009170964537342112
-0.031109469912022847
0.008030510075315783
-0.019063566210231035
-0.00227050754522641
0.034440061574361316
0.0797239196046834
-0.0013945427581015303
0.00596516225671101
-0.007354518700393901
0.012997894595855347
0.0056347092689801245
-0.03940909722864427
-0.0063669403198350445
-0.013397746163811666
0.037890228733356186
-0.008504144002414499
-0.0062472141604679385
-0.02071975535221183
-0.045482268368041485
-0.04277305500164843
-0.0099816823027896
0.022598074815432117
0.171200567122126
0.008848217603316555
-0.0656636305874227
-0.005313201182988861
-0.027779269933232254
0.16009789177922273
0.05545360014573621
-0.029042772692289845
0.003961900094643694
-0.06565753239472832
-0.030652074498642663
-0.023376612285086258
-0.005885310081945696
-0.015877677654403073
0.005049615926443705
0.05868104027885273
0.018668906114890894
-0.02725522047419185
-0.0502733419107896
-0.016209389584789596
-0.017444914644306378
-0.01465831071690907
-0.005945454448940839
-0.0019455899929175621
-0.019910270952571068
-0.043282400763724485
-0.030523598536835624
-0.049692636636069716
0.06342615088799292
0.07275121312456616
0.09651288933393072
0.032255030760843365
-0.026578631658354508
0.011120630103643486
0.0032401426185259753
0.03770068679660932
0.0032247406260486
-0.033847084540093254
0.016194709310981558
-0.03013416337661577
0.00820019737823555
0.012777478709381986
-0.02162256166539431
0.02374011315466179
-0.05544485384150399
-0.01343254890373994
0.024107107022655252
-0.009551554687359316
0.004725686874367338
0.006481645987093392
-0.0003428954782714724
-0.014359651634714723
-0.025892739732495063
0.08001144012740648
0.10992244242917694
-0.03717754819230217
-0.035089033870406634
-0.01403960001146832
-0.01562160485814449
0.020749643431247827
-0.005679570630438105
0.006865736145258289
0.02464909901202561
0.009511188802447789
0.06409671636294924
-0.2203971017995048
-0.06646325002279017
0.10497303737899556
-0.027472878786820705
-0.033232405250763146
0.0007146716171894434
-0.1441443195411023
-0.10907538295241244
0.00157807672092648
-0.06691718956358682
-0.050513615851890487
-0.010594199972436909
0.03847051193603847
0.0006069939613779897
-0.0015204405281278497
0.007178189473461313
-0.03934507466735798
-0.01522883472826089
0.0034600909953958555
-0.026428334338765225
-0.009337991404148184
0.10510791293020678
0.13193762524900327
0.23967153209819614
0.03093837654019845
-0.0878674841838819
-0.07480640674225109
-0.09476746842542724
0.15336430240311097
0.021782541151725072
0.05292203342147287
0.055719800582064355
0.009040891679593007
-0.0011199515593232313
0.006893334159518309
-0.001426800841455384
0.026664485829109436
-0.06283261232538218
-0.008840255804504161
-0.06933593979768504
0.013748044977690008
0.0036943932982286118
0.04843885477666891
0.05454158925670465
0.06450813816721292
0.031141916546893245
-0.03967713647483462
-0.01693323481878124
-0.0065838072980193936
0.010740673171289053
-0.0088971249576577
-0.04715347532305722
0.009746087592246976
-0.028680830456912245
-0.004774232314565066
-0.027656167541272408
-0.009827028124111953
-0.04129514661183633
0.016421075784178306
0.030087675231256755
0.08928107651474564
0.09871056701222017
0.024969334031002863
-0.010963610211757261
-0.04183644649855139
-0.021028856886208314
-0.04011084494787127
-0.045342089760524666
-0.021348748926414078
-0.016844023555389213
0.07747674160985651
-0.016069741961559223
0.03720600211282367
-0.22276833735071802
-0.08832804442532091
0.007477331442495024
-0.07013332482834886
0.04183897582120334
0.0561125962428543
0.0658046674301753
-0.03982456157680985
-0.0037465269453626836
-0.048666218404925
0.0037791543109142755
-0.00445226712183309
-0.03235923755103446
-0.008583743649196743
0.021080666362836998
0.011308426916258506
0.01504026283535348
0.014593307945083853
-0.010416623393296564
0.016267788196940185
0.031438309209299985
-0.04760415629994531
-0.03478372609350745
-0.010236513516977618
-0.00036030044127155654
0.01016167502032723
0.09060312439650742
-0.018155417669624925
0.015401864115997938
0.02502173956618353
0.01912854497179046
0.02035102288816399
0.016477973451361656
0.07428879395085633
0.03387814101903114
-0.05530499145742775
-0.0026560200791221674
-0.03414728578043891
0.05214960031557811
0.002320455296820726
-0.03855382663683485
-0.03537709593752442
-0.0010775083379670036
0.004220692095692209
0.027478710847452396
0.02334125460055111
0.016440106842888425
0.029134158334965618
-0.03371168129615674
0.01603629363788641
0.004841022607704993
-0.008408169809127663
0.00666863612075661
0.00026456762551015984
-0.005196395744536318
0.005476945650006885
0.07584662759768104
-0.10308830855899724
-0.168689153153804
0.01685251637104985
-0.030331831343097564
0.01907338407497029
0.09910834233332436
0.04818934276081898
0.009442003565933482
-0.02622641217394726
-0.004962410908955727
-0.02446801058399687
-0.023998120260603696
-0.0382159196240507
0.018754820435266994
0.057310073798230866
-0.0005212483701838876
0.004879055299766414
-0.003759951698052382
-0.04314325957521591
0.003303147561368586
0.055116985956924075
0.00757324133401889
-0.03512895944501997
0.0582356278920704
0.009993577798062314
0.09252540980037358
-0.02882892593403155
-0.04172760156086829
5.066664025413875e-05
-0.010183166924532314
-0.009876846252778711
-0.023941159469805
0.10614249496447874
0.057235709060916413
-0.059290026620645975
0.01955450339482006
-0.1357042389362067
-0.1940872170389511
0.013090131148961364
0.06680243284733423
0.030442421533585975
-0.0750650466122099
-0.03194307003416352
0.07140912078116439
-0.030550326208725605
-0.02779412782422027
0.02148844773062291
0.005262444265040738
0.14324754969407522
-0.011504410337823585
-0.025072725230591435
0.009566007553546635
0.0029441105632399362
0.01038537745447295
0.0035950492409033137
-0.017170671668738556
0.02178627686622397
-0.0006330246736982138
0.01835785442121327
-0.0008908972787384136
0.024926984855874478
-0.02773270758534241
0.03474157014650113
-0.1254947158486178
-0.045491442051957966
0.0010750559893395954
0.06679440135200379
0.07155492010035144
-0.02101087235383609
0.012509223241577647
0.006189115662557267
-0.011359967353640423
-0.01565192238387677
0.02334566103853681
-0.007979955071058786
-0.06787408609430053
-0.024797973389750528
0.014998303439678694
-0.03264700932796571
-0.01665100305204954
-0.031629923367673646
-0.02634165170388299
-0.04122389578087026
0.002781644421276012
0.028783649105143177
-0.007236092144655716
-0.06123900305098971
-0.012151517315512877
0.003906452178207056
0.014714662593639554
0.011274721765607312
-0.0026451138930327525
-0.024637100822516106
0.03995458492419305
0.15547328309910718
0.012595098979245553
-0.04280398493744372
0.13532756043197947
0.10641579465725523
-0.03813417172392095
0.015388908917642694
-0.0037775908534788934
0.01852086599173404
0.022318275488308375
0.010831618979826083
-0.035214485174955186
-0.020076978257227224
-0.027255505996009
-0.04871037857384703
0.04977552126952084
0.19603273512572267
0.031979989278389714
-0.039267557998730926
-0.03889824092031384
-0.054584900520808215
-0.002334003871141995
-0.04256288170422705
0.01243711715330079
0.05687875112461873
-0.012675807812378426
-0.08018506020211688
-0.08844000196598374
0.024382276670169293
-0.007745773922679318
-0.02967449549155904
-0.02876468751555783
-0.024585920412412875
0.013497300073474086
-0.11554934088055366
-0.0319382010213508
0.027734238981106364
-0.04115383824626533
-0.014927083533689066
0.117879199446147
0.10204349574934338
-0.033200341740861734
-0.0674666460886385
-0.03975695885542032
-0.007436453610340138
-0.042006819833628396
-0.021802145869926633
0.013492513735684655
0.05569302604008612
-0.0024536878270049146
-0.010317265143085527
7.571097377542508e-06
-0.0005797285025985865
0.01852671188670927
0.020607405016965723
-0.012580888749327664
0.000580338948590568
-0.0071022699381739045
-0.024050086569330574
0.12395672965068409
0.1557163074949085
-0.06161378397290456
-0.003395460639654924
-0.024906729205098763
0.0022361276064938517
-0.042655041350717585
0.007171800407859363
0.0007264153323459763
0.017352362432040698
-0.03033920985864692
0.028389555976832855
0.020428061411134582
0.030340243111614734
0.012764563363749227
0.0375345894668363
-0.009636646103078563
0.011374771833208312
-0.033182234148056704
-0.08315225665179013
0.026333735850696913
0.029124928703176765
-0.028388479780041716
-0.02892768939907112
-0.043577691241411184
0.037374380138366144
0.13281116034179
-0.008047459408754344
0.00841573913191387
0.010184796109976852
-0.03452428407072293
0.0003736958330523382
-0.03303920443023794
8.950212414176845e-05
-0.0023900614905027584
-0.012482724139332208
-0.031077333610107984
0.02496933346495475
-0.16453594588596954
-0.11123875865858832
0.018306392462841863
-0.0008145660024797594
0.006836842789254132
0.009449005369941135
0.005528497508324262
0.029159742144564352
0.014403552457254885
0.03406838867029484
-0.05167417746771691
-0.08573747910118372
0.002985520574080133
-0.016323708459682614
0.0440895629570335
0.05129470163366686
0.05829598747218174
0.04649105787644979
0.002599834580813008
0.006657737865093112
-0.04620745362114238
-0.06581159819609285
-0.052228731476213534
0.06983728149144272
0.08742456203582652
-0.004623003496371835
0.00010636107135654369
0.06806425013569249
0.06100327335418424
0.034879581576703726
-0.021443767886473085
-0.04316212225610648
0.017610854612382095
-0.03746729121957613
-0.007304211281352876
0.03900572498098324
0.01193380495677693
-0.050537327411952014
-0.08239657219098064
-0.02509473007384328
0.04797881804719407
0.04783022193769635
-0.045020789194147856
0.030262106286706367
0.0011677838638792634
-0.021040720201052826
-0.029796352453453582
-0.03107047030209002
-0.003912788389836402
-0.0035294736836479048
-0.007820925231832527
0.03252598209489703
0.023152912593043435
0.020998180478839244
0.06103866333228599
0.005091981537392045
5.071467033016375e-06
0.0368571527694292
0.011537911191920349
0.003512938830294061
-0.005311705863300996
0.03701046475007209
-0.05755156840331399
0.025052156124357766
-0.17610134175418576
-0.163613904069659
0.09492736905837457
-0.002106249133584098
-0.0047601103670453886
-0.000519654186422928
0.041366229824455376
0.05435313164354726
0.08739256472233961
-0.03500037498287591
0.017638580141687198
0.009810147618143604
0.01222899688352313
-0.012260947784178373
-0.0012715415440641572
0.009539125534481207
0.021567049508899958
-0.05175583833179633
-0.03475786825558656
0.019600447724821453
-0.012344888374881615
0.006080089064884707
0.03735862428030605
-0.02086549831236414
-0.00798091951719341
0.0336627940114778
0.028077709484120455
-0.008722950254730681
0.05027657999461641
-0.009540077806905868
-0.000404385528966007
-0.012714275804717906
0.08929446367920878
0.08347976399741779
-0.027396196164263028
0.016953124993708203
-0.04417892417144923
-0.08542841256530488
0.03472290392426226
-0.023691334333429945
-0.020283786345009994
0.04674143033538556
-0.13932521631146078
-0.1803946603727705
0.035452223764918314
-0.01597765981897148
0.03027499874325587
-0.03097502115802473
0.07178108570511706
0.03216813335595972
0.10100992512240534
0.04279939608142597
-0.044171928496483714
0.01854646200398723
-0.015402112976462523
-0.18437355281662593
-0.026163463475291766
0.00021302531294342046
0.017822783727567102
0.02597736634552794
0.008426518428245414
0.02277069206116798
-0.028555116631588787
-0.05678932622234804
0.11832722579540768
0.033094144434724644
-0.01302118498187439
-0.0028972396596165123
-0.013397730752846941
-0.012346448480310487
-0.021801985696651257
-0.0418008503654888
-0.0038037763476239162
-0.019472891488573917
0.031824644756378154
0.018435910039617753
-0.02156169836084979
0.02636465898560863
0.10361033701028156
0.02712075207875191
-0.004169062763968419
-0.019042338698096656
-0.03837544266543329
0.04331550686018303
0.035108081613830514
-0.022245769559259436
-0.007199781349974661
-0.006492878112216999
-0.020832971883592972
0.02302216613538464
-0.008609851741656271
0.05422121333626876
0.009513172820575642
-0.023169506922125677
-0.029520625181937668
0.00448066239794718
0.011336852868492613
-0.05205772250926896
-0.05330616613242051
0.01339200706376198
0.021711501297255985
0.01564248655010022
-0.020366666633532204
0.02292182237201563
0.00044417266180446014
-0.027595078535872626
-0.027540738951167935
0.015639474228158215
0.0011899391384272851
-0.002430085520350353
-0.007056553961659355
0.024452722304332347
0.016895774265626537
0.031370223280664036
-0.053959442404845584
0.03518505647192178
0.0439873859978716
-0.005634090630336647
-0.009719445519725919
-0.007106071118781528
-0.015726573259810278
0.0028842902775003763
0.034663941243335536
0.015935577739677305
0.012413041665966277
-0.0028812199793150244
-0.0018083748912201547
0.007811999363300098
-0.021159521071762298
-0.027266380670754667
0.014964249186884937
0.04057802138028459
-0.11147857541718628
-0.044193663931454207
-0.006639823625380762
-0.02412744134859865
0.004664288339242217
0.043631250237081226
0.026972250257251106
-0.0150588463048985
-0.08202527410281182
-0.02487012881698748
0.0027188195054616616
-0.013588545036582819
-0.01726250276571751
-0.006471826690433947
0.024601533841507775
0.034048767494074816
-0.04957596104897375
0.06874618010553366
0.1946069127359988
-0.0032117982110805945
0.008940615196122423
0.009905887044154925
0.0067532391936342435
-0.004304413650194849
0.0549245901182034
0.0024303871408400276
-0.025784116257626586
-0.054865336001927986
0.05434015258908538
-0.011645523884847221
-0.009236791144477459
0.0006163162010604345
-0.0003128690238722393
-0.014588059485243913
0.0008443977694270271
0.004596571463461194
-0.01721212520712502
0.005155835292822447
0.010846829483190993
-0.2190687107144767
-0.008245102515991198
0.03584153385491737
-0.008787827023863643
0.02408718036275017
0.0419843924899425
0.03774366860274265
0.03620002903731321
-0.0036379037760737717
-0.04779823477906188
-0.02332636143984676
0.060384335900723195
0.027134040065161007
-0.012555355594730495
0.013249459016681762
-0.0014296009429210603
-0.04291846715084718
-0.02059871086585141
0.015472388755967001
0.05251411022364777
-0.054873814154534635
-0.07929048090543309
0.023253847994251342
0.02543581596383071
0.018140407267965196
9.530233846385117e-05
0.004065968688103645
0.01868122510642175
0.00420909811978536
-0.053201806829915106
-0.04050666618515153
0.039074360454661325
0.042798052649923125
-0.00043324451720840783
-0.014657441589041614
0.02772421339846742
-0.019236539164532024
0.01109470754207087
0.015353499593139298
0.018436133074916875
-0.05309814706669425
-0.031869415581332466
0.03813697774411159
0.025673351918299
0.05271363229475142
0.029507156252281144
0.0871751157856481
-0.10325773448050529
-0.06509539546118158
0.041438197643089786
-0.021153364006482902
0.013955429982347292
0.011343654091675506
-0.021377657457666902
-0.03654615929076731
0.012985202838304417
-0.019289158013678018
0.017793879239069388
0.0039509646909895455
-0.09896395022352944
-0.01497311210931553
0.04795745351624753
-0.01969510529917801
-0.023386335075725347
0.02195190313064418
-0.060779040297101385
-0.04717095442568329
0.016990136062206035
0.004758839102129428
0.0037837571459223033
0.017930259842907498
0.02534591583740048
0.033774355990035046
-0.04148069106310831
-0.05622067936015502
0.0200186931021276
-0.00926386872958762
-0.012767485630509612
-0.008380836036160974
0.008814842353747005
-0.004103955835362966
-0.01144687723065058
0.05136833747604789
0.0398406226714915
-0.03153366093961907
0.02643715130018206
0.00734866038118871
0.01571455424995491
0.033146346643954036
-0.003675588141073456
-0.0003565442591526541
0.03990655266967133
0.04084171680502597
-0.049185985112370996
-0.01947538107075396
0.007698294762057274
-0.0016698921189505361
0.03551871962134391
-0.009697309221786809
-0.019642040227106042
-0.04102872825586282
0.14453054609319882
0.08685058188457377
-0.05112202198511838
0.012862527632170594
-0.00311437220234556
-0.008364214494387633
-0.053479111977759626
0.003181473713332535
-0.03011549570265211
-0.007795757332919742
0.007243177645214384
0.012353548861620845
-0.03207744341057475
-0.04875247677930508
0.044413362310437896
0.02933717522812743
0.004814644133421501
-0.006032416999096936
0.014288657394144462
-0.013884424810233637
-0.021675542349314004
-0.006869597885560731
-0.008021921088687661
0.014685908688561145
0.013198263900954195
0.049066569038380234
0.03727748046483166
0.024965379609267722
0.08141595432299652
-0.00851927155315368
-0.023334574912554307
-0.017535892915528584
0.029768461907012465
0.024393437199366524
0.010580147562757516
0.01938938965803355
-0.03182574282710427
-0.1508814109881796
0.02214885515980377
0.11465000656779543
-0.06063589837722998
-0.12370194110599003
-0.0094433917192327
-0.04619800949813388
-0.0323984921097377
-0.019085545630749785
0.05194609214891757
-0.02146173295265305
0.025398052227305932
-0.0011860506898229847
-0.06389722377814058
-0.041387660403007495
-0.03360107668849524
-0.005920006281268969
-0.05761221031413805
-0.02683830653862658
0.015220800577298542
-0.041728491346140116
-0.01374574534043537
-0.001958288249984327
0.0014705818758564717
0.0005949057805559936
0.02627598631171258
-0.004800633376059954
0.018605221754555517
-0.0008523211524526257
0.1434227129583527
0.11190481388884191
-0.03688921631283132
-0.020431305563015933
-0.007424466410696366
0.012428604358587282
-0.0018900342688526826
0.05961413971876045
-0.04485762093347348
-0.003363933041885239
-0.00970412910308845
-0.031466317992156156
0.00476753850382428
0.032794464946282825
-0.03712155487901013
-0.006794186999654465
-0.04755345116066139
0.07946162390903909
0.03956398703294546
-0.007084634387487476
0.08407343496237507
0.02635442084641406
0.008195291262859334
-0.009998879356614006
0.002572076194217208
-0.015491453252062195
-0.01819436152012311
0.004569751761296771
-0.0022316543128728028
-0.010134040213356373
-0.009178634224274793
-0.0121260084510813
-6.0811520609343597e-05
-0.04131545245261856
0.03054683499922847
0.07080104045134523
-0.02939937640912432
-0.022611064621402218
0.003147602829628705
0.11199324090421814
-0.007284246450350751
-0.030767123698792455
-0.04665443623256823
-0.0010052893791457007
-0.04026501495176913
0.03247249874234649
0.0067879668138489625
-0.0011759262555820127
-0.060523193944048606
-0.00762143280496426
-0.013784472901206294
0.0023883501860365547
-0.0031382611104936917
0.020868755511716342
-0.012432966354531986
0.002941865062394881
-0.019337054766543897
-0.013460420593647935
0.034403206185061916
0.029994670649009774
-0.00887560757939314
-0.020754516395919576
-0.02213803000338938
-0.008365747962691733
0.0015692069936479474
0.02518504748526942
-0.0037232699616454594
-0.01016111530288121
0.053744681437029394
0.02146420604384433
0.015723609452828413
0.02781051935630712
-0.04536096649031139
0.02430257529767668
-0.14808719981190047
-0.16772895651497632
0.02554402924814097
-0.04654371438845975
0.11286500714733516
0.03642167925544156
0.0043250868151008025
0.0432592781799658
0.0009291803973203833
0.031141094458367616
0.03608391820584711
-0.059015849212183294
0.0050520084506651235
0.00547995636728697
0.004531109554313167
-0.0014006430706843404
0.08046302055275215
0.021687805638580922
-0.014845119943562633
0.023743713875074044
0.006420008221835973
-0.03183757218814452
0.005804786153954824
0.053391599287259194
0.025738864154239392
0.07642091782465893
-0.008258621561255883
-0.0003443938526922151
0.022719382333326134
-0.0013584150154191217
-0.015876574203671168
0.03476294710211392
-0.024656166314217163
0.045413781928753366
-0.13125831598128654
-0.20402550175761736
0.05218651332463975
-0.09062938419450371
-0.046406800302596904
-0.012525673521143888
0.04450528889849243
0.011310273487287779
0.010510450396604091
0.027477515422728156
0.0131316045673098
0.008550036680221532
-0.009166120785082815
-0.05021651501754899
-0.012811484427522762
0.05024143923202415
0.08893277918000823
-0.039843320108118155
-0.0005628313213001073
-0.015946457385832873
0.0674723601041776
0.08673224310286354
-0.04130024458048853
-0.0798459218476218
-0.05434504095432322
-0.05938323924864528
0.015448025437249574
0.005170555580804917
0.007711167057556775
0.012102874444233287
-0.01738582278085275
0.0019716118343355285
0.029216255945117037
-0.01673969534622531
0.008868837563537724
0.0018485258575444345
0.05864919375539842
0.000182427833108574
0.022113079924497608
0.0029251311347228224
0.060776131994934555
-0.003446491709325512
0.00995905493120603
-0.05030638553398593
0.009517469244142396
0.012787162881067064
0.038442774586533605
-0.03147176043217122
-0.043750914668917104
-0.026460647221153
0.03223494425608843
0.01842818385048255
-0.022730753962134663
0.02934372395428661
-0.02134955889834488
-0.15360750766044023
-0.030619271558672886
0.022210054282529854
0.005450926224104856
-0.017111134126195807
-0.12445523008017698
0.0770894113646553
0.0790665847777172
-0.03285488462930261
0.21525548225805408
0.10970812804629788
-0.05821476995936053
-0.010409347385899721
-0.03571167527233758
0.028913775137372196
0.008128144022480245
-0.04371435314788967
0.011365786714524699
0.006725522712118102
-0.021157061328750296
-0.01593860800763461
-0.028322634474774514
0.11466863407512856
0.04906553618797464
-0.057146036221295715
0.0047928464220081774
0.0030666189883774312
-0.016534642553780437
-0.014510214978107956
-0.012145169801987423
-0.013927759253738896
-0.11418503644847398
-0.008819621136853594
0.028338417704766743
-0.03299643304492022
1.6595017152293853e-05
0.020880592248064996
0.0268088193207946
-0.02434143034533701
-0.03210952623797706
-0.021968128245012094
0.019390868669525153
-0.00917064339767126
-0.007641757932927818
-0.01631669212425393
0.01208354759817156
-0.03381791964734666
-0.055419686598159594
0.03908782450679068
-0.0018286200338586839
-0.012213369031416954
0.0011929669829575716
-0.00848920166327391
0.03653755856131029
-0.011885796811686942
0.010354685773552016
0.049141022083696986
0.02697009775688582
0.022690127897587422
0.028747372513406037
0.06790800111517095
0.013473439863134793
-0.042042444889982225
0.0017084673168676248
0.15951038371693887
0.05016465014749824
-0.006059492928431065
-0.01642939162200568
-0.03479248849903604
-0.006316098580287677
0.025271492754687184
-0.009312759208750675
-0.011731917509979402
-0.01535041055914392
0.0003116223722514596
0.010050891837635885
-0.07151075156829366
-0.1129183812607595
-0.032751579123919
-0.008601560450541354
0.003371956377846752
-0.032478476080756914
-0.010912939901745142
-0.06521071541192276
0.024233386996418305
0.04159990515057323
0.03070275216849411
0.04602583522487316
-0.017338418801780577
0.04228055608459766
-0.007727733442739524
-0.007046549556920526
-0.019303704303869452
-0.05415011445787124
-0.02422037562151485
0.0008603940084149634
-0.002299786236708342
0.04479232171701759
0.022148571571847814
-0.02937898874450905
-0.043146147240502676
0.0029776273798329277
0.0012327315491931104
0.03392262047961983
0.03535818523160693
0.01053778765813064
0.043320405577288806
0.03387330541888653
0.06587395343261211
0.015470801632758182
-0.019124230964562818
-0.02938591538561602
-0.009080299822379836
-0.033573812779172034
0.00275385399980515
0.03145234834526811
-0.0018479764544807327
0.03663703736633565
-0.027445435141982246
-0.013469113875473152
-0.023631948676277718
0.007442867128594257
-0.0448579009611277
-0.05413743053700448
0.01858709087323243
0.004138705823727525
0.015360537269621813
-0.1590369178718639
-0.06993100026540487
0.043571381874504676
0.009092101868622724
-0.003977785735569492
0.007262061099956657
0.035503569049491444
-0.025740284245864505
-0.0016963761466287136
0.0062800304043882805
0.023634708964078776
-0.004136371016375403
0.03276488605901951
-0.009840431119943423
-0.017976396355651257
0.05202600744715133
-0.005328700532669136
0.035411152070940685
0.05014769027242421
-0.04052263265806741
-0.0012316035341293412
0.013435565292144208
0.08043932902763158
0.03254530989213755
-0.02411685938420615
0.03729975289071657
0.04294350534738323
0.0045336599422187915
