0
0.013256872178882974
0.03299605323260053
-0.014054143695715565
0.01919204234322093
0.006309067521434148
0.03784699059081212
0.030005836087602062
0.004420307114977938
-0.009216492829107466
0.07213210986055967
-0.01834084187991548
-0.036709033039708884
0.003048756653775782
-0.005750680693324557
0.06255801716029133
0.01705298193313193
-0.012999253230331867
0.016521320929060744
0.023720677464094946
0.0067239847544088615
-0.004042372315733557
-0.03193895786106215
0.0035021407733841327
0.009608862955093103
-0.008458018388715191
-0.003238158680086458
-0.01969300998787496
-0.04252906548330454
-0.05575393721347674
0.005778089352070288
0.010314651439147771
-0.014618590292505122
0.046063242930344445
-0.029279269159566468
-0.07932925242499272
-0.01552559545603734
-0.0018214123868591301
0.036293637984961484
0.012971791402052355
0.018899897643363365
-0.037521913020237156
-0.032612494518214456
0.010260268838535506
-0.001141719717393409
0.006866726392867144
-0.027504613037560206
0.050306239540649
0.04659655976058318
0.0023995142622714027
-0.04630007256134479
0.004543396704449163
0.0006057763795007321
-0.01580639551626731
0.0019250538946327044
0.021635781662427054
0.006196446827514987
-0.030073560577251104
0.006505680897900217
0.03394610502415438
-0.04289740623535792
-0.02532400777496062
0.023752888952405442
-0.08286006737490263
0.009078403910900375
0.06905830415839799
-0.029125485153341537
0.00983938337206219
-0.021211881393415306
0.018245610187772987
0.012977600254784952
0.12822638348506102
0.10828586740607964
-0.007008877070574916
0.024191876500972136
-0.021376190851274516
-0.04423967380809123
-0.06353325882917855
-0.019425751335034158
0.025377519631891103
0.1388537754009282
-0.012650900293821184
-0.011011638658995897
-0.003945739382948082
-0.009132084991102069
-0.0030663800242775063
-0.036254471241393395
-0.0025195343201015173
-0.012918992057060995
0.02971626787122923
0.04942382936263629
-0.07514429895499848
-0.04931769389082724
-0.00428070360276471
-0.012986219076392273
0.0121438728310919
-0.016435531741194432
-0.00323954937561592
-0.023492883028818256
-0.02423534383775565
-0.010250556806374232
0.03547133660298224
0.026086929261035965
-0.008808631568049197
-0.0039762145112157594
-1.803919759271826e-05
-0.021722694545933303
-0.06263326880347846
-0.03531686685446499
-0.0671753684505475
-0.004546927951831299
0.034373618319134755
0.01287018349715792
0.020848510458852977
0.04413899649311325
0.011569210228969503
0.04970941285313463
-0.01566303154411072
-0.01835035734040332
-0.01334622479106065
-0.011484558290096867
0.018304537537227602
0.017260862058842266
-0.06682278700738119
0.002677723283522411
-0.005835593215824794
0.00851241377378958
0.029207037090348494
-0.03768143213487765
0.029081702002670105
0.05824954346287089
0.0050466648647636905
0.015426201226084424
0.0011214435615702033
0.09088525284146111
0.04581246319459776
0.004244143391581224
-0.010501403443605914
-0.0006411782578342878
-0.025655336337188698
-0.01029889879043938
-0.019277751180437893
0.010276816002278906
0.009290465864901766
-0.011593668694407163
-0.034104680569183914
-0.022975907473722208
0.018434118069618335
0.01776370405680111
-0.014191142243873602
0.023110126899147963
-0.00996617558821111
0.011904844427930635
0.01912123610895224
-0.029330655670361742
-0.013964788581297502
-0.012524668317143004
-0.013302619316142536
0.017916871907676293
0.007860326104566535
0.010927258022682459
0.009298262085347482
0.0037390524505580675
-0.04116639781039255
-0.021894317153617806
-0.059342532506799224
-0.027021487492223245
-0.037892872347739706
-0.03498276535360631
0.0019036672575051161
0.011835367490353585
-0.0011186725506261523
0.0022934434223342995
-0.008007407852821235
-0.011737112615436886
-0.012762137600410438
-0.022116221004577448
-0.0010230192987969748
-0.07959861285658348
0.08412028602534635
0.20155641854789055
0.041867050323903636
-0.042590828110406355
-0.01399157785060838
-0.022841336654401644
0.004820492591432929
-0.019710629363405528
0.01267514188599953
0.0027089887548997524
0.0018107546774210515
-0.011479989240956718
0.011989510215442494
-0.030509084361066186
-0.03735818549866684
-0.016402570622641378
-0.024952716438637872
0.07288074253595772
0.1701307273383349
0.0006373091708492841
-0.012239844859425971
-0.06356639881781852
-0.017344253468440346
0.01999006057113238
-0.015871381442306605
-0.019209684143974448
-0.015816271972158683
-0.013741071042048181
0.011799376835439059
-0.00853011498987923
0.0005955110035944187
-0.005832384777913559
-0.010977732497290237
-0.01017288825073974
0.014615026638658022
-0.021619480241972577
0.022870380105359415
0.03707996201118441
0.09497223330411105
0.02296322471294348
0.025732560519732425
0.007788620647860626
0.00356163325476322
0.03552124295498104
-0.022139115685284354
0.028407810494300127
0.02086205394125365
-0.056358114789223875
-0.02221781943766504
0.008658492563917222
0.024559180284266336
-0.1799178439834912
-0.07165654087009596
0.04685822643570269
0.012628164272910388
-0.02615139469620551
-0.05564346108106764
-0.007599209767439835
0.007291126474195323
-0.005107076784667278
-0.03473084382499953
-0.002388153407188725
0.03485082338687109
-0.005956581298062426
-0.004697221914373175
-0.01949868618112844
-0.01544449383538514
-0.03564852417020797
0.13044826089266848
0.145513742501281
-0.024293346097417214
-0.0318242935938628
-0.024130945204038422
-0.008406769897806653
0.004866522907475896
0.03082151639169102
-0.009973225144301306
0.0013511452738141883
-0.002802037271227723
-0.05168156625704519
0.010327411044978975
0.02520460892466765
-0.01978419324486892
0.04956226141710914
0.00852082020574186
-0.00113843427473059
0.012063137184006525
0.008639834989438171
-0.02881461730397045
0.04072369051437951
0.06573310904310059
-0.08666804429974015
-0.008196501302586064
-0.0049771833787077046
-0.016473504307921678
-0.0004864929574901763
-0.04933826421852783
-0.051274128309169886
-0.059010022298825675
-0.019885295551101603
-0.0319335669982897
-0.010727900139573456
-0.05617292802082846
0.008640039661857989
0.0715477803047764
0.06607193056311746
0.01719988960487084
-0.0007830456228022179
-0.0018080124584963966
-0.010147607152859776
-0.018722740314395105
-0.12815596808206903
0.012663395041569192
0.06412457069963476
0.06873831723641352
-0.05126482212121731
0.02134399290794536
-0.02187169495118057
0.0007062407103726374
-0.01137775811268026
-0.004433388540292679
0.011706084018002449
0.013411284112085798
-0.009730857415531197
0.047928940679053005
0.2019423361894197
0.03986184392241291
-0.016107375010697134
-0.0037177854057093727
-0.011797907963000601
-0.03269891106289478
-0.006478425208628801
0.047451061542230076
-0.03558576156562253
-0.0052720212970442625
0.04939562220906275
-0.053199909219426904
0.006114712989968288
-0.042356954942570246
-0.013377223158621585
0.017707092273058927
0.01375392194329481
0.017448174837852062
0.06866586869055975
0.02921037992851925
-0.05542655462923378
-0.0186092932448077
0.06361250360997361
0.02731009529155309
-0.0056865194275318234
-0.0038992059663847346
0.013330867491671014
0.013487241972820646
-0.009338484680502912
-0.007198151345103277
-0.01212737053812205
-0.042854563079373006
-0.022065217463293405
-0.0054486219604444495
0.01098725094228254
0.020808266894924234
-0.008881506940253074
-0.020415670000321965
-0.0015336655990206066
-0.035487127730432
-0.15297248030752703
-0.010024407675959609
0.041572580524331826
0.006667340112734876
0.005884262508100726
0.008977305136235732
0.024324611261997225
0.021558916426824865
-0.029277224438009362
0.00838144197022047
-0.014485165532537885
-0.09757715984729373
0.03682941313957951
0.045185823088260496
0.024233962069748583
-0.05451811556493609
-0.005106058646976358
0.028806770034420216
-0.013286258460460332
-0.022990113556485826
-0.00922825532321311
0.025421602808497906
0.028438169932486674
-0.010208248277893385
0.031147241933890922
0.014767451132891353
0.01595972183187178
-0.03799738805038282
-0.005199168081543385
0.06693430555829578
-0.15659713127565045
0.031437732133761144
0.0013892843174794114
-0.015688303023321356
-0.0011237488809929786
0.002783190544698862
-0.009475178105249938
0.08585563601666177
0.009943719369308213
-0.056769361277283964
0.02522829967356934
-0.018177076465006617
0.005423888303591679
0.14222851073704787
-0.0596044667176662
-0.23564439251253416
0.02065010067875908
0.009956109550452251
0.03835755954583133
0.0031936287417450014
0.04167611313798184
-0.02486067213631662
-0.011352965058674135
0.017132457398380155
0.014803665313790296
-0.011658437539302673
0.024605066147091268
0.002387289626910795
-0.004487108712182317
0.006778028793096399
0.017592012344702337
-0.019446736120193417
-0.011823811213771662
-0.0024881240557934462
0.00856776928191651
0.01982879822968882
0.036256158175652246
-0.02110984002080549
-0.0034451976771285066
0.014530557446540767
0.004650591814979223
-0.007261332283163656
0.04107112514814249
0.10923751233191345
0.03857098802666414
-0.007987746302369718
-0.014046409780150574
0.05825833853765489
-0.021119823930007598
-0.052348411376379564
-0.029485576382361746
-0.053554990307309557
-0.007367376202532449
-0.02609236062619958
0.0763490907279434
0.030643380791565134
-0.03239210600123835
0.05411160475811916
0.009166003616807259
-0.024357282534441634
-0.019394317553318472
-0.008317445695508706
-0.004034981224347376
0.03164309011284995
-0.020548021845079444
-0.02920953431718597
-0.07903441856889303
0.05927811059910382
0.1171705659479562
-0.0065920545049440475
-0.04591475415306604
0.02818007463165746
0.008281292320495195
-0.05310792127330677
-0.0859813440578913
-0.030566950301854252
0.037637851757601835
-0.028583415657831575
-0.023054948853849896
-0.011903668406047249
0.03902105614897087
0.04251875196348648
-0.05223900805827492
-0.05921649775619094
-0.030153466739891617
-0.006983356602169558
-0.00876178829437471
-0.046786175133112645
-0.005216628765909153
0.028139176442418125
0.004764616435768367
-0.03306452994781949
0.011263405591593756
-0.0026355534076729628
0.0373662840463796
0.06961325128611937
-0.00895854595846589
-0.06492140396162567
-0.017386102045528574
0.006048063055605503
-0.006026632357856726
-0.014976544768680202
0.07656647138912134
0.200987511528942
0.008905821654460733
-0.011569596773428416
-0.06796600127270927
-0.005380726127959617
-0.015097348735024921
0.012096305855309753
0.016441514076997114
0.0022231489112354377
0.040543664170936376
0.029591344098243492
-0.00574467848141074
0.03585245929786339
0.02259785583847558
-0.03838912754661059
-0.011567206034696341
-0.023733554839179993
-0.01131170681512502
-0.01793141533844214
-0.0010267188163751322
-0.021365809024855305
-0.018671718046602663
0.002736962846985934
0.0026003334125844955
-0.04318532924035209
0.016965555299809233
0.03568064414844055
0.013509873905585012
0.07480733295254466
-0.04448063383601906
-0.01868658774798442
0.028841028552150188
0.029137929555359314
-0.06895010293858377
-0.020890094702805447
-0.06389136704442595
-0.04145247108534945
-0.03437499323695655
-0.008177101591738614
0.017013271460635224
0.035391863082481996
0.013928523033037628
0.006651602269175512
0.011023724328477643
-0.00420756328240885
-0.004202350259911167
-0.008432573933039051
0.022607899095255752
-0.011998398046812589
-0.006744607940003627
0.01488005770386524
-0.004043407017503943
0.04062441681125395
-0.0028140193584995556
0.0611804303905204
-0.0009811623988652202
-0.01035707415095641
0.002883814670440818
0.004862795125240961
-0.027937471909722286
0.00020177716917184522
-0.010683459705489699
0.06082542155701833
0.029137589681957718
-0.0055684493833481775
-0.001037570911692846
-0.014797735088169103
-0.04311880451937074
-0.06969961371598557
-0.0009311668707125853
-0.0034161670445514354
-0.030407757441782132
-0.031569924249370204
-0.008685028028191122
-0.02323526048306979
-0.0020479200336133087
0.0001533054906781019
-0.012609939560887752
0.0025661898210373635
-0.00018336792024619666
0.029973773577427195
0.02425688974486455
0.004343995682812079
-0.002985163021208055
-0.0655308981214429
-0.02067348140899826
0.05223096903558128
0.052882875309439165
0.047495277916788134
-0.00953819729400237
0.03795767375346809
0.007306410023683573
0.026441387518216255
0.010451370132960885
-0.01308839712325661
-0.0061837116082958206
0.00667372457595855
0.010244223134984711
0.02423857849815194
0.05087214392796576
0.028501847232325295
0.0032223767602149785
-0.0016690880852015923
-0.02813702938000946
0.0006019641663341822
-0.002612213705566165
-0.062306918773573666
-0.027608861817488187
-0.029861492308377764
-0.007687914424396058
-0.001350901782285324
-0.012349232861564271
-0.011489718824924297
-0.008155716322324631
-0.009648314911057936
-0.018525939954573474
0.006706348207493858
-0.012951702203533562
0.01638203931955152
0.006656815488498586
-0.04778771762051033
0.018586064612161265
0.032354804554904956
-0.008241936881718764
0.04420939824527432
0.08192370514902314
-0.015965766394783792
0.0024125283693617557
-0.011922389419784381
-0.01941609153213846
-0.02856573097584584
-0.026202705050183354
-0.027038703673987575
-0.013855665785106903
-0.023107431625175215
-0.01727407147952549
0.009579541208603128
-0.01721979145070135
-0.05157734824887408
-0.04000239222853044
0.02762356740749046
0.015607670183069763
0.0024605290210495305
0.05003934863251268
0.06180740311793615
0.026794490806044558
-0.03240877624516092
0.0019569457082964435
-0.022756877952173835
0.10742928102673963
0.024012619953626635
0.027084128891564446
0.06824761317472323
-0.03795426556699438
0.00921910803936759
-0.010602950939182397
-0.019969759450652876
-0.0846153261074336
-0.041906116964188986
-0.03006325582201586
0.017442839454913015
0.003543308641797362
-0.03081663170064643
-0.016617995271205888
0.018010295027336046
-0.05890734767293383
-0.0447531635131845
-0.007487168533009207
0.08249829727864037
0.05172338353278715
0.0054285032133732205
-0.004817647362417965
-0.019767657922725466
0.02503315684697024
0.15978286487084797
0.01579637344189927
-0.026653848116646513
-0.008831032847321767
0.007035466850812619
-0.018464811685112305
-0.02203612822538766
0.004057961880823685
0.0013374860334014972
-0.05699693877629517
0.011299073082069377
0.03533701862458684
0.04459000387648821
0.20741083215860026
0.0232796274021261
-0.007843853374571073
-0.0992099141026869
-0.08462213817211327
-0.1555612391044662
-0.07166152213948308
-0.14356363914218653
-0.04525996553391053
-0.019665310406150143
0.052844668706467715
0.07054217486076843
-0.03693377354619326
0.20292438330635632
0.040820832934835946
-0.02244340992158324
0.005121114059578531
0.0026983307658074453
-0.016985987315223685
0.03530426260049583
-0.19259602145525825
-0.092552070872499
0.07219746696836152
-0.011817741401170824
0.03923296127852628
0.0666756300989299
0.09191658271499183
-0.03498262511756018
-0.005759135915966356
-0.018540925277539855
-0.011767792841941679
0.03541310848378701
0.0038269335152218064
0.0471480094998321
0.020120874357435797
0.019327918089148483
0.037305208162451614
-0.00962360630306901
0.01116412645591317
-0.08155724488966057
-0.11707552196478606
0.03196808246429607
-0.009401780397820256
-0.028981473751595488
0.01623756891029627
-0.017087523763447632
0.049139497966172715
0.05768268228951642
-0.046090996708794074
0.017522159530461334
0.006956923998688485
-0.024543104856861137
-0.014440489173236499
0.014139110694398377
-0.012090654948807263
0.01622882291347413
0.00781464472076561
-0.0021049566844636362
-0.0058939694504803915
0.053938795072347605
-0.0008537522765415679
0.06553206564671783
0.06531394236095248
0.05689195957390723
0.05364400177449116
-0.03911739308206533
-0.037833308605365774
0.11368388822720275
-0.05540598505065413
-0.1566307330827354
0.058807177572335334
0.00042069866995825305
0.06679590546983827
-0.0844571647099929
-0.12973746215448506
0.026132633685152746
0.006942880492358743
0.005561472182267401
-0.0030436029935766054
0.010963865702906752
0.03575737037330174
0.0009330118284704171
0.039390790616920454
-0.013836741771697485
0.023029281162474827
0.020873940528742998
-0.13376206183076345
-0.17241839939647563
0.04596071751337268
-0.024628828545639848
-0.049520142378362234
-0.027841478484455895
0.0020965676755729757
-0.004184910525960993
0.013648685217828494
-0.0015670121096837445
0.023600809873104672
0.03522177652745415
0.0021499725583174413
-0.014742873261232732
-0.016316884233724106
0.06420514568435251
0.09584865008048524
-0.06379547504978156
-0.0405339039616756
-0.010255055287928312
0.02988205357123419
-0.017990932705878534
0.018833258797144245
0.014978326668379923
-0.010751658487832444
0.018521703049274217
-0.017309448428817223
-0.021863179397589944
-0.01405067857547702
-0.013802081682534287
0.0026121483455191948
-0.005440669309029394
-0.031344744261281976
0.051155811875583664
0.1414213826668055
-0.004805630943387151
0.0022893655362923675
0.08086048879281821
0.11845930683383911
-0.0031908682621227115
-0.006145800418671941
-0.042448981838937486
-0.01993202964502089
-0.021452261717148695
-0.035857120634352604
0.006229909948139353
0.022425984444425492
-0.03039061259084578
-0.0006498065672133276
-0.027790779589714078
-0.004927406639980009
0.013909524846128337
-0.004930849418404683
-0.023728576329164853
-0.0004406482319008393
0.00036397364395202714
-0.03721106095831395
-0.044875668950164684
-0.03335192187636726
-0.02608381069113821
-0.03251639041127262
-0.0003016592107905231
-0.013057595203627856
-0.006400118512116564
0.012194245039687945
-0.023603829294105615
0.04357814435630576
0.01175577430764728
-0.02327974763954178
-0.0037439568125964976
-0.027230557725308406
-0.005171263792487728
-0.03263119356046084
0.07347917291851393
0.1326131476786378
0.1251428947250365
-0.0027432746459031565
-0.028456356646114143
-0.06408278924979217
-0.024891977324566748
-0.021714834964148146
-0.02788777850293244
0.04749814696157516
0.0025933987051830966
-0.031543658490522146
0.010600991990920587
0.009591969422495539
-0.0005578124958744625
0.04795903352572661
-0.004393642309688189
0.011405621989598555
0.03489066854740555
0.019714260465487382
-0.019019910059315935
-0.04938670489125453
0.03281737058351139
-0.03999735199126286
0.027686915305192364
0.006906509445226776
-0.02451919078358706
0.03318773139942168
-0.022875177167057593
0.06182096633669266
-0.046155597029888154
-0.04239148848905321
-0.03161705839264592
-0.011097507170449217
-0.02751980935870974
-0.003374475252875202
0.008246557925189189
-0.016683373703515525
-0.0030004753306606
0.02340980452562092
-0.0009125073558806347
0.08463287497039393
-0.008136460135809771
-0.03431183965965065
-0.014031331661899508
0.054472670566024374
-0.00337089698467517
0.024574830036191018
0.019836073415180237
0.009654827103325356
-0.0008613815154651394
0.027984159307449845
0.02002492930201682
-0.018198517444135705
-0.07626258085934697
0.036032422968559054
0.01628193623746887
0.028581375469945047
-0.0008774730239597401
-0.008914497145770035
-0.06917383461264118
-0.030871836911757048
-0.004230462687713614
0.030213932005786665
-0.018354162629212824
-0.02268591072716024
-0.03261370371675787
-0.014910850926582066
-0.006791150108992878
-0.007658124083488225
0.007629376231747969
0.03079392928337889
-0.2093342561825668
0.022732103241908126
0.04780653429613655
-0.00969171973120516
0.00902344288885822
0.006883453492221859
0.014236719505089515
-0.00485738671362843
0.009289123366558842
0.051149598295958665
-0.025579454126082594
-0.023035406927733152
0.04045773917659966
-0.014976797298959434
0.00719051210222473
0.021290362197044613
0.012002561634193625
-0.02241447131200133
-0.006449345012776827
0.016779377944103915
-0.02475509061260966
0.009164799118824707
-0.0031913986992952942
0.04061638790961839
0.0450519585965509
-0.007324277719280291
-0.004536492592914861
-0.02753812906993233
0.025079198406480936
0.030819801460672328
0.05242438823440389
0.035978216124343064
-0.03059630785878534
-0.02461133326887999
-0.03009796242659405
-0.008298573132066464
0.09021056946382827
0.054772921204843485
0.0030824883087474924
-0.15102734763729694
-0.044877242724463966
0.021366399481167704
-0.02177171607571363
-0.02004862202634905
-0.023038961438245454
0.03791107500457233
0.025240415797747443
-0.019392592333994145
0.02605020691865324
0.00791707568377891
0.020542120723292992
0.007206620410773075
0.0013548862116775982
0.001643124433190247
-0.07102478477173393
0.03543125511726495
0.08910061638551303
0.18461665362180418
-0.008387913612197827
0.05734551578002292
-0.07289380316602162
-0.13608758367838272
0.010976911412015289
-0.0032334742216167667
-0.026305007916871015
-0.019379715865205132
-0.005091947967272265
-0.002996650519299919
-0.016961267937727946
0.02107580329810124
-0.019515370709245843
-0.024069026841533236
-0.03595980457451759
-0.017004473178728923
-0.009424136540103274
-0.006094696834126631
-0.013477108351207351
0.003072768453618788
0.03266549332395693
0.021193133037127793
-0.0036500407951651787
0.0051050989919972254
-0.019196292066973708
-0.013988205601798451
0.036547827995944075
0.006132484343410646
-0.1127503656407612
0.0017443779203081854
0.053621286219475206
-0.014428263205556614
-0.015078384741542742
-0.018584738214543824
0.030887124472213312
0.03503704409041628
0.011862995453564722
-0.033476825521391404
-0.004333440277781802
0.03164898646866706
-0.038196592616329884
0.06242379717777124
0.04938940187115792
-0.023985910843948938
-0.04112172377164472
0.005013713857521535
-0.009809868699582733
0.01775303502443881
0.12219161926163336
-0.005310972408572812
0.06476171427977014
-0.14818093330412543
-0.17330056618337392
0.00031161431270923875
0.05942127736804639
0.14948407809348868
-0.04914477043622993
0.02226733673840565
-0.0157362489588276
0.012470607793267136
0.010572992618120516
-0.0015296085478028905
-0.013976597276565233
-0.007891796157222764
-0.026667376182964643
-0.004753407485015586
-0.02707267679800922
-0.02461267166304766
0.06093936180384858
0.04896028505801831
-0.08652697770988067
0.05653197013360893
-0.02911035811021522
0.01571298748532838
-0.012007775033491297
0.014243012387279807
-0.011878610647133305
0.019920691551638052
-0.01855993363902947
0.000917136521911989
0.020755198670312388
0.020576282666337237
-0.014854602802131103
-0.00918744842054257
-0.005322314775636137
-0.007271618708555673
-0.07407500146120104
-0.0923190328184352
-0.02477561710519432
0.020388509379085956
-0.007670678526608537
0.15295150522423637
0.0718623221167014
-0.04050421970027471
-0.04398611981035018
-0.00736999538812468
0.0038569139251213537
0.0429513545334779
0.09714812361816647
-0.00900119106682633
-0.031955353320157434
-0.03313489671069371
-0.0030598746915413873
-0.017988229701993364
0.03091477304501783
0.07725053118552641
-0.026990537789279543
0.0292650479993661
0.0050670514558136745
-0.027377327576637214
-0.00389302528466576
-0.026662584027526106
-0.0026669054263326344
-0.02492925009119364
0.03463472288551173
0.03390630000293336
-0.0016093221193933642
-0.009906794331169099
0.018334378328877535
-0.004078739376362474
-0.027205275557362216
-0.001871697450143451
0.029087638802688852
-0.021114176052931487
-0.008196482532709319
-0.01159651561655668
-0.029788172868315765
0.01616616961634372
0.0026133088428369187
-0.058585497359244655
-0.060201301592897195
-0.0029318314661037734
-0.011380256700864047
-0.004961797509483426
-0.034631313077596954
0.03769628206398174
0.025609968733297007
0.03425527978867369
0.020684469843473545
-0.06226836396204969
0.019546669648559976
0.03734003758609235
0.0032963333441035996
-0.008601570849039559
-0.016277656743935043
0.005235662060519757
-0.04975809069769408
-0.044308645190326144
-0.005072103736356687
-0.01037524130902578
0.008399585764975945
0.04823708981800927
0.01889899439167571
0.024802654818206937
-0.003460726595262667
0.010332592346779601
-0.02856390660465732
0.0076528174785066485
-0.0026000440333466732
0.000969878929064372
0.03139156596291103
-0.038195187621950115
-0.017289326928085876
0.01252655356981508
-0.023996476060772126
0.05038094592161212
0.02989539825681025
-0.023012754806384966
-0.013524220680956048
-0.009170964537342112
-0.031109469912022847
0.008030510075315783
-0.019063566210231035
-0.00227050754522641
0.034440061574361316
0.0797239196046834
-0.0013945427581015303
0.00596516225671101
-0.007354518700393901
0.012997894595855347
0.0056347092689801245
-0.03940909722864427
-0.0063669403198350445
-0.013397746163811666
0.037890228733356186
-0.008504144002414499
-0.0062472141604679385
-0.02071975535221183
-0.045482268368041485
-0.04277305500164843
-0.0099816823027896
0.022598074815432117
0.171200567122126
0.008848217603316555
-0.0656636305874227
-0.005313201182988861
-0.027779269933232254
0.16009789177922273
0.05545360014573621
-0.029042772692289845
0.003961900094643694
-0.06565753239472832
-0.030652074498642663
-0.023376612285086258
-0.005885310081945696
-0.015877677654403073
0.005049615926443705
0.05868104027885273
0.018668906114890894
-0.02725522047419185
-0.0502733419107896
-0.016209389584789596
-0.017444914644306378
-0.01465831071690907
-0.005945454448940839
-0.0019455899929175621
-0.019910270952571068
-0.043282400763724485
-0.030523598536835624
-0.049692636636069716
0.06342615088799292
0.07275121312456616
0.09651288933393072
0.032255030760843365
-0.026578631658354508
0.011120630103643486
0.0032401426185259753
0.03770068679660932
0.0032247406260486
-0.033847084540093254
0.016194709310981558
-0.03013416337661577
0.00820019737823555
0.012777478709381986
-0.02162256166539431
0.02374011315466179
-0.05544485384150399
-0.01343254890373994
0.024107107022655252
-0.009551554687359316
0.004725686874367338
0.006481645987093392
-0.0003428954782714724
-0.014359651634714723
-0.025892739732495063
0.08001144012740648
0.10992244242917694
-0.03717754819230217
-0.035089033870406634
-0.01403960001146832
-0.01562160485814449
0.020749643431247827
-0.005679570630438105
0.006865736145258289
0.02464909901202561
0.009511188802447789
0.06409671636294924
-0.2203971017995048
-0.06646325002279017
0.10497303737899556
-0.027472878786820705
-0.033232405250763146
0.0007146716171894434
-0.1441443195411023
-0.10907538295241244
0.00157807672092648
-0.06691718956358682
-0.050513615851890487
-0.010594199972436909
0.03847051193603847
0.0006069939613779897
-0.0015204405281278497
0.007178189473461313
-0.03934507466735798
-0.01522883472826089
0.0034600909953958555
-0.026428334338765225
-0.009337991404148184
0.10510791293020678
0.13193762524900327
0.23967153209819614
0.03093837654019845
-0.0878674841838819
-0.07480640674225109
-0.09476746842542724
0.15336430240311097
0.021782541151725072
0.05292203342147287
0.055719800582064355
0.009040891679593007
-0.0011199515593232313
0.006893334159518309
-0.001426800841455384
0.026664485829109436
-0.06283261232538218
-0.008840255804504161
-0.06933593979768504
0.013748044977690008
0.0036943932982286118
0.04843885477666891
0.05454158925670465
0.06450813816721292
0.031141916546893245
-0.03967713647483462
-0.01693323481878124
-0.0065838072980193936
0.010740673171289053
-0.0088971249576577
-0.04715347532305722
0.009746087592246976
-0.028680830456912245
-0.004774232314565066
-0.027656167541272408
-0.009827028124111953
-0.04129514661183633
0.016421075784178306
0.030087675231256755
0.08928107651474564
0.09871056701222017
0.024969334031002863
-0.010963610211757261
-0.04183644649855139
-0.021028856886208314
-0.04011084494787127
-0.045342089760524666
-0.021348748926414078
-0.016844023555389213
0.07747674160985651
-0.016069741961559223
0.03720600211282367
-0.22276833735071802
-0.08832804442532091
0.007477331442495024
-0.07013332482834886
0.04183897582120334
0.0561125962428543
0.0658046674301753
-0.03982456157680985
-0.0037465269453626836
-0.048666218404925
0.0037791543109142755
-0.00445226712183309
-0.03235923755103446
-0.008583743649196743
0.021080666362836998
0.011308426916258506
0.01504026283535348
0.014593307945083853
-0.010416623393296564
0.016267788196940185
0.031438309209299985
-0.04760415629994531
-0.03478372609350745
-0.010236513516977618
-0.00036030044127155654
0.01016167502032723
0.09060312439650742
-0.018155417669624925
0.015401864115997938
0.02502173956618353
0.01912854497179046
0.02035102288816399
0.016477973451361656
0.07428879395085633
0.03387814101903114
-0.05530499145742775
-0.0026560200791221674
-0.03414728578043891
0.05214960031557811
0.002320455296820726
-0.03855382663683485
-0.03537709593752442
-0.0010775083379670036
0.004220692095692209
0.027478710847452396
0.02334125460055111
0.016440106842888425
0.029134158334965618
-0.03371168129615674
0.01603629363788641
0.004841022607704993
-0.008408169809127663
0.00666863612075661
0.00026456762551015984
-0.005196395744536318
0.005476945650006885
0.07584662759768104
-0.10308830855899724
-0.168689153153804
0.01685251637104985
-0.030331831343097564
0.01907338407497029
0.09910834233332436
0.04818934276081898
0.009442003565933482
-0.02622641217394726
-0.004962410908955727
-0.02446801058399687
-0.023998120260603696
-0.0382159196240507
0.018754820435266994
0.057310073798230866
-0.0005212483701838876
0.004879055299766414
-0.003759951698052382
-0.04314325957521591
0.003303147561368586
0.055116985956924075
0.00757324133401889
-0.03512895944501997
0.0582356278920704
0.009993577798062314
0.09252540980037358
-0.02882892593403155
-0.04172760156086829
5.066664025413875e-05
-0.010183166924532314
-0.009876846252778711
-0.023941159469805
0.10614249496447874
0.057235709060916413
-0.059290026620645975
0.01955450339482006
-0.1357042389362067
-0.1940872170389511
0.013090131148961364
0.06680243284733423
0.030442421533585975
-0.0750650466122099
-0.03194307003416352
0.07140912078116439
-0.030550326208725605
-0.02779412782422027
0.02148844773062291
0.005262444265040738
0.14324754969407522
-0.011504410337823585
-0.025072725230591435
0.009566007553546635
0.0029441105632399362
0.01038537745447295
0.0035950492409033137
-0.017170671668738556
0.02178627686622397
-0.0006330246736982138
0.01835785442121327
-0.0008908972787384136
0.024926984855874478
-0.02773270758534241
0.03474157014650113
-0.1254947158486178
-0.045491442051957966
0.0010750559893395954
0.06679440135200379
0.07155492010035144
-0.02101087235383609
0.012509223241577647
0.006189115662557267
-0.011359967353640423
-0.01565192238387677
0.02334566103853681
-0.007979955071058786
-0.06787408609430053
-0.024797973389750528
0.014998303439678694
-0.03264700932796571
-0.01665100305204954
-0.031629923367673646
-0.02634165170388299
-0.04122389578087026
0.002781644421276012
0.028783649105143177
-0.007236092144655716
-0.06123900305098971
-0.012151517315512877
0.003906452178207056
0.014714662593639554
0.011274721765607312
-0.0026451138930327525
-0.024637100822516106
0.03995458492419305
0.15547328309910718
0.012595098979245553
-0.04280398493744372
0.13532756043197947
0.10641579465725523
-0.03813417172392095
0.015388908917642694
-0.0037775908534788934
0.01852086599173404
0.022318275488308375
0.010831618979826083
-0.035214485174955186
-0.020076978257227224
-0.027255505996009
-0.04871037857384703
0.04977552126952084
0.19603273512572267
0.031979989278389714
-0.039267557998730926
-0.03889824092031384
-0.054584900520808215
-0.002334003871141995
-0.04256288170422705
0.01243711715330079
0.05687875112461873
-0.012675807812378426
-0.08018506020211688
-0.08844000196598374
0.024382276670169293
-0.007745773922679318
-0.02967449549155904
-0.02876468751555783
-0.024585920412412875
0.013497300073474086
-0.11554934088055366
-0.0319382010213508
0.027734238981106364
-0.04115383824626533
-0.014927083533689066
0.117879199446147
0.10204349574934338
-0.033200341740861734
-0.0674666460886385
-0.03975695885542032
-0.007436453610340138
-0.042006819833628396
-0.021802145869926633
0.013492513735684655
0.05569302604008612
-0.0024536878270049146
-0.010317265143085527
7.571097377542508e-06
-0.0005797285025985865
0.01852671188670927
0.020607405016965723
-0.012580888749327664
0.000580338948590568
-0.0071022699381739045
-0.024050086569330574
0.12395672965068409
0.1557163074949085
-0.06161378397290456
-0.003395460639654924
-0.024906729205098763
0.0022361276064938517
-0.042655041350717585
0.007171800407859363
