0
-0.0068928655342246565
-0.011942388186288568
-0.0020361335531764386
0.03648544438947255
0.049088363812143085
-0.009032797179049019
0.0009376371279685406
0.013339071664801572
-0.022822041800850373
-0.013301105335475247
0.02433372622282117
-0.041798175583599835
-0.018866304000708854
-0.02723781867479929
-0.023037626496829708
-0.02069693196855955
-0.005903758202967403
0.016118451127318332
-0.017596955150542767
-0.09468386547413421
0.004243779622274375
0.02546653910110001
0.005613798802697935
0.005129916219564506
-0.003962090058784851
0.01817878620877345
0.023853867743631314
0.037327101753232214
0.045794444662312576
0.01804210291872202
-0.03478886861155863
-0.01472001111589843
0.00521951820637285
-0.010819819484149189
-0.013034529244082296
-0.0026435493496357555
0.00624803204230826
-0.015504093120200521
-0.018000518288201855
-0.0060183429118986585
0.022975499307875243
0.005913889403134926
-0.040198031380006
-0.012590350723251617
0.015261158876028833
-0.015951324227286366
0.002309898545652576
-0.02101201406136602
0.015498350135166778
0.0023150426636845416
0.021485915087686425
-0.006459636141584245
0.0036177711293452555
0.014816689513645495
0.05812293497883091
0.030459775221810183
0.006826432922901919
-0.03894982726813607
0.0916334262336658
0.08994103308656168
-0.05142949966490988
0.050386268582612755
-0.042200740807073686
-0.016121073904259042
0.006409461082908011
0.009437067026169584
-0.03713739923387637
-0.13871990966575237
-0.007020931858851692
0.0035555895333719625
-0.017407598272996164
0.017553416379317236
-0.0068233533740943075
0.007893202108829003
0.0011075166731381366
-0.040827097401659206
0.008782361186396801
0.0025183264669654585
0.008554545538395452
-0.052888802149354805
0.0129554683453925
0.08564938477766179
-0.01950827707603056
-0.010373689567919009
-0.0044852530373223004
0.028701827290919284
0.05428234722246684
0.00644224891246493
-0.0030698536742845305
0.0061998698408712236
0.02982017654582433
-0.018171384940780175
-0.036584944326573714
-0.13310474546350481
-0.013505291180796632
0.0364486810175846
0.015747710849669843
-0.009388884662123433
0.015483711513396167
0.018485974883360907
0.043441088144451
0.09365132071972299
-0.066526284703445
0.024669657569589682
0.007898682042892503
-0.021281335106117665
-0.04907682156489853
-0.029261023097942915
-0.011890519491137414
-0.016235854755908777
0.002461422729345235
0.06299567999873333
0.047238738251070396
0.00501834046647728
-0.024320821736333625
-0.00895782672537049
0.03345597467780869
0.00866205218976377
-0.030471066574852587
-0.0190342982605051
-0.11601660566149104
-0.01069461705158122
0.034654522621102836
-0.01656814685473328
-0.011416137210899563
-0.011486497954754015
0.00014475220377768684
0.011494454555313869
-0.026416846184924552
0.007062388266227945
0.03128447810359357
-0.010231817107766654
0.007781114300365188
-0.013130904287488615
-0.014984825624682984
-0.017773360659095502
-0.0013957657033196054
0.03427453519868564
-0.017476710727116027
0.029214686833661525
0.06508668515267815
0.009365263671236109
-0.07909312876744638
-0.03105518625552167
-0.09034795767481851
0.07717341972058407
0.09587717335857311
0.036708044195639625
0.037367724092395575
-0.01473713564621648
0.046352752475220735
-0.038007103905897704
-0.03991245751262747
-0.002734542856591713
0.045016452975821304
-0.0026362601959705
-0.021136857607386105
0.08980773660290764
0.09695855430388355
0.02547551173114398
-0.003719744515522883
-0.01309761550327655
-0.031991151864832
0.04879632564679675
0.02371732798506284
-0.00042354654488648366
0.03551441219532765
-0.0446516651523215
0.014492399760296185
-0.02217672043716708
0.0014713601949487803
-0.01205985185201239
-0.17309530265561845
0.06317873006088288
0.08215624736012343
-0.042176692303404935
-0.036965120438242724
-0.039581092726332236
0.020782234092778504
0.01553828572565773
0.017248053820868293
-0.03665884848415587
-0.12291348438118832
-0.015667675967837573
0.01583642929289781
0.0018705572759339219
0.015312982666919222
-0.02468703905601385
0.03591578278391996
-0.02133419959470217
0.03443056773265987
-0.008111432805575691
-0.015424773596412982
0.007816609247558877
0.06340544824445526
-0.11971137683780272
-0.07504073030592698
0.020766235484446043
-0.02001936432690813
0.0009871810003673253
-0.015137936156778165
-0.008895792258535195
0.00442124492156621
-0.00908320299612425
0.01207381155752925
-0.011337894317643512
0.03107292369527608
0.005015719627952812
0.011143495024384309
-0.003966640117839103
0.0022974796079987874
-0.028731222230040432
-0.013136047826675216
-0.0005669334999965129
0.01021238251263953
-0.005678241669525557
0.022973426533029594
-0.04696130391658559
0.09946589641306167
0.06562878245538502
-0.018233932917146558
-0.016289047441245527
0.05407797853235878
-0.06234189089302572
-0.032753371336904875
0.12124408122293318
-0.003356288278181461
0.009113356964465675
-0.02347782108712923
-0.011555469639917196
-0.0043992854320836945
0.0219628165543496
-0.0018270312260087126
-0.015212469742287656
0.03865559169627585
0.06889819020505132
-0.07035500379732687
0.00809605714138379
0.019452501796114324
-0.01598005326732611
-0.01055199615070426
0.018626338184861587
0.008619582947628483
-0.010417643727621911
-0.01909431971824518
0.037769633628748855
-0.015581526742437048
0.0579902128578273
0.0432509709900747
-0.03233243804553495
0.03473920400166255
-0.006184181441016643
-0.014824604904366172
-0.0028008053181554212
-0.011690930070352103
0.00023367660871278443
-0.007821715550779363
-0.02322896736144492
-0.007164604490991847
-0.034632264410039915
-0.06775454191489914
0.024743506421244656
-0.00782726545764755
0.03852497979168924
0.036137746984584954
-0.013408773277111905
-0.05605474651510036
-0.0008098205645545007
0.037146509212764425
0.0027563745628603874
-0.006919584818899878
-0.0022978400072686525
-0.02491047245576886
-0.02180115499532697
-0.022643476027738217
-0.013370820550593372
-0.02702625018525088
0.04845953830553633
0.0043931721817294595
-0.035038571209366653
-0.03812531799624851
-0.0334173847769687
-0.004561182217406933
0.09366040846324528
0.009554567172671804
-0.029634329946200005
0.020620647118795656
0.027167254736972037
0.008211430879278158
-0.001482534312940496
-0.017075844796527278
-0.023229579767447973
0.004306865251009512
0.020304216736772778
0.06476073135375512
0.018849252724423334
0.018045178459503777
-0.006902434820732447
-0.011749853355194996
-0.0486315385194699
0.003233872925624442
-0.017617144399205243
-0.062392701862244174
0.003003567468302081
0.001470465353575808
-0.01221983941164382
0.025093564613263914
0.027170156273176777
0.12749400141614017
0.04341246774565262
0.02920166420150291
-0.041968511905298544
-0.14054549774748712
0.029807145460931068
-0.03046018989302891
0.010809928537837576
-0.021384528226822852
0.025782177002688523
-0.02161047076823373
-0.017652268883314476
0.06632713232482433
0.01902732115405903
-0.010575261555834539
-0.010382924549307181
0.01626242024519558
-0.0023219357741653297
-0.013829593808686397
-0.019433739251405006
0.02223701394342057
0.013601482906748506
0.021973110609141467
-0.017553905579541326
-0.03722062518758326
0.01299747590012783
-0.03609377660328094
0.01472218272324538
0.010652542052917555
0.008679972077436003
-0.0030551387148326946
-0.04226994741397521
0.026812164375379942
-0.0028511932078900985
0.014661838082217528
-0.03560189456015668
-0.053372017361198176
0.002301926713575624
-0.02275772815378021
0.008783499654079959
0.003110806933927418
0.01596187389854022
-0.005168799896745292
-0.02770744509166203
-0.02148308152179142
-0.001674543860372735
-0.00549953238059035
-0.027001026576666243
0.01385277926110819
0.030732113190211297
-0.0019879383298180295
0.019326003011258596
0.026408379603865332
-0.03158617646583282
-0.03850232612242592
0.04659110841140196
-0.0645049658926729
0.11177997791858209
0.11115049494405238
-0.04883628283808572
0.0025597564103931048
-0.007648198960865317
-0.007277603800222361
0.0012368644577858137
0.03757139671001518
0.016755340614690802
0.017887428211201494
-0.022572685767933448
-0.008780571392324509
-0.020804184079925805
0.03752232804797315
-0.00016768500705599147
-0.0037639635156231387
-0.013132674939441542
-0.019110153954686397
0.013781165615562339
-0.0021160269688694703
0.031613390106122276
-0.034413988619221916
0.02053627607010539
0.025630234541131707
0.0573746518229614
0.0025045213243916893
-0.010557493581478086
0.013163990674904898
0.0016179681223053698
-0.024257293853681257
0.0008306032218236688
-0.014282023871200252
-0.014823800575192163
-0.032723063040090046
-0.006782387486754055
-0.021256195991069943
0.025450171451118563
-0.13955133038709575
-0.12791885684735246
0.05323438103275926
0.025642169677844044
0.01070118307653548
0.04279619619097986
-0.013123087388911835
-0.023047973232336226
-0.06993517698363158
-0.01497287029919788
0.04908995662003143
-0.012969350928301038
-0.01707621885995688
0.007425714689916122
0.021837704668240317
-0.011942695150358302
-0.012637638053840917
-0.0324976678670635
-0.011115581934941542
-0.011413852497823482
-0.03683469026572214
-0.014566290186489772
0.037657532044857875
0.029041164828826214
0.008428384840229666
0.012540986497290423
0.0008836563050737716
0.11617320760292238
0.03718479616456263
0.04010232078344976
0.01780529039310831
-0.014298899291061928
0.01036558069174431
0.010026190378529469
-0.036092654096982923
0.015695665340199852
0.18001511573584572
0.02285276555132029
-0.020408717788701947
-0.019560707046499603
-0.0023507302645919617
-0.02123998860514565
0.007050528566053859
0.011894483551259737
-0.0029996453683225253
-0.014330841177217954
-0.022107856470720073
0.01979885850588491
-0.007782845209273927
0.004033829314901019
-0.007468086099227676
-0.026592060302993048
-0.004335022702721246
0.0036352649879202595
0.0024372932096188467
-0.023915195277403305
-0.04322212137113058
-0.046516803461475104
0.013405067976244866
0.056322706267523996
-0.009169063286800052
0.07676914576043563
0.036809914553445955
-0.007840339822338692
-0.03954076480107832
-0.0028160540496685285
0.02348634398438013
0.014239417058648467
4.650949031422002e-05
0.036136116963574424
-0.0661107436013233
-0.009722107909393428
-0.09139827076278269
-0.04538411529145388
0.0047737967385518346
-0.014829989573514871
-0.0732114940158992
-0.007989179098380862
0.004595101952257733
-0.005843028197693664
0.020006225791421167
0.03807821320672248
-0.0573892609405201
-0.048945139210576916
0.010550155318378732
0.0048083836983249945
-0.004561139607398647
-0.02256014189396394
-0.01566317064730908
0.019880195853567303
0.03274237653368402
-0.020986408738482492
-0.0026323262612169924
-0.03218256768849011
0.003303972679253352
-0.016746747928152176
0.023514841888818628
-0.013513226153615832
-0.01658473504766198
-0.028888156184813576
0.06374823761255341
0.022306766435921582
0.15964467864138815
0.05629057753521648
-0.01745838027188269
0.029506000995149592
0.010531717100800857
-0.005098625248802064
-0.007246584931431408
0.002134154338647949
0.01901170048302005
0.01716571437246033
0.008432908316256494
-0.02317110624220515
-0.05985233497772489
-0.018196754949838197
-0.018323613815328682
0.008533134049506477
0.03488922402212781
0.1658658490852904
0.17453124937245781
-0.04032845848962641
0.033417347510383555
-0.02571486637932076
0.04308452148310065
-0.1221035171480649
-0.12204453908719408
-0.004234078385132718
-0.013338986647917063
-0.07166260636106236
-0.03379164446773806
-0.0009860210622030321
-0.008031630259339347
-0.11037588720846198
-0.042362391058358546
0.016933465295204477
-0.009076542188310414
0.011988071761122498
0.0010106758434039785
-0.0003070669346968016
-0.019708231775514066
-0.02473090603262767
-0.004328235018920285
-0.06740074526069886
-0.05454770465477801
-0.009910479566955569
0.012496802415006268
0.05247133260501037
0.002149075998709767
-0.002526742698172047
0.019341710662020395
0.025881030119539652
0.06545219278689744
0.06364697513915969
0.018489637876686466
-0.007068079805335307
-0.0072400506492514395
0.013444315383413875
-0.01761701463939642
0.014920704728899328
-0.012861766965025142
0.008820990520168104
0.004675854419556309
0.012906638134338733
-0.0267702367465211
-0.008159677979457167
0.008972224857321411
-0.005814986796608296
-0.022829652764908122
0.011662847519423447
0.010753281902869578
-0.001216148457228382
0.0011095027696400481
-0.004991843130067737
-0.01203903207891912
0.06031354528703897
0.08342043048183366
-0.01119474614175446
0.05756276593879551
-0.007993016559074766
9.487947053766947e-05
-0.006856728156065562
-0.04153002927391988
-0.0182401033040987
-0.00884418669825656
0.0026262364200808144
0.0009457346739112424
-0.015825454530111548
0.03877653560242972
-0.015465409722231012
-0.04086741619808282
-0.011451459994940892
0.002428781661737564
-0.05649032995375504
0.03486269136607102
0.07996402466812112
0.0101776460879957
0.0027329318041938258
-0.02216397450421285
-0.010926481701281576
-0.03128259205534065
-0.00784387118848117
-0.03312654747252042
0.04271844087789736
0.0011240152155001938
-0.015999151538093483
-0.01443397519968589
0.052568221867682695
0.008219801615395282
0.0014877066510160118
-0.019573297072536733
-0.031912857824797566
0.029062576973760176
-0.018831004220301567
0.0016450970663907162
0.0027515878878171447
-0.030311373101422765
0.01565454488220746
0.018127019015415444
0.029188564321650106
0.00457375699499789
0.03789830891535457
0.034911608073366004
0.011201647817282308
-0.02294332210412447
0.03344401569281602
0.021490637670136443
-0.033272216517874174
-0.030967007901021273
0.04224956887410809
-0.04421484715806685
-0.10916013082462417
0.007513321229756457
0.025642920275906318
0.0075845017027771884
0.020984748072258263
0.022491931455903377
-0.0048702956522723205
-0.02633950886695794
-0.023851432697646308
0.009362811253000926
0.0488717865236958
0.042222808435123715
0.05090365465826392
-0.09545218047236606
-0.15398125207905405
-0.002587730867923267
0.019400996523807293
-0.02099040177546166
-0.1077201592506528
0.02033426074194825
0.010100147869321447
0.027749529828508514
0.03492179366883393
0.016392250105109606
-0.015472238556294576
0.003679477020802585
-0.031740980915374715
0.004951022824447863
-0.0057422975897430135
0.0797068432432828
0.1616708594132135
0.03461989811014113
-0.06757188669480556
-0.045018998601333515
-0.03551757044190396
-0.01061329566325823
-0.016399112321472568
0.05326987745668032
-0.05474232079435933
-0.0636253892202794
-0.006234972022690888
0.07358376373443164
0.04432394725039988
0.0019176833040055366
0.021442747130883955
0.005938159650298518
0.00015620231477161465
-0.052491571281478744
-0.0289410032799724
0.09718042826658801
0.015622994178551508
-0.029160020956716794
0.004026893226310924
-0.06316684332094431
0.001559044967116003
-0.005239451053497002
0.025303109803897047
0.07626767204001436
-0.08925122893975429
-0.08368739197639768
0.048124153574588775
0.006552350177211409
0.035767794581847624
0.1376244732405604
0.07321893749162112
-0.03862367316594526
-0.10099584578281805
-0.037931819414067196
0.01567291821209412
-0.018308630049577113
-0.03956583929756086
-0.022266562643779683
-0.006130229223958904
0.011115826760095962
0.04942690169367668
0.0036058660340141826
-0.008194127965231142
0.017108183915292764
0.05353651054767846
-0.02327121487454574
-0.12190908173913127
0.035824510188288076
-0.044153571817432194
-0.10830361050258759
0.012217158534950737
-0.0037868758854653663
0.0983061199307597
0.04601587574251165
0.005777259774337891
-0.01896883339488322
-0.0021259059891591513
0.00621556206612068
0.0057704391579300246
0.01284082616959306
-0.018287684072356664
-0.006007714517826745
0.010677303029610972
0.01189193746782136
0.0240932699956386
0.017981473953694285
-0.014583573758970325
-0.09014048197521206
-0.018133984678276115
-0.01737428962554893
-0.008183200928918654
-0.03472202118119106
-0.013279696057788533
0.023629343578700748
-0.057893452938203784
0.0832674605348052
0.12542677597249158
-0.002795684832149442
0.03726560536519328
-0.003483398639966118
0.028024168554049073
-0.01812931022354088
0.002793412137837986
-0.011466014588756355
0.023055738272627576
-0.0039650682268610035
0.009453195017581142
0.01363600659343399
0.05044518296606273
-0.013253590457503295
0.06891000202612839
0.1163980960122599
-0.015264281839370508
-0.0342373136464273
0.03351560711904569
-0.15917023771880406
-0.15017392527633874
0.022946569527705737
0.003922310954855621
-0.022591265561526637
-0.004293997103708768
0.005268214647346383
-0.011526844224970476
0.0052406766740064215
-0.0020108765243119844
0.00032396034892141697
0.0035750844109830636
0.0699381130692858
0.016450667418625622
-0.017718501331697743
-0.031275219795036294
-0.03567730367441589
-0.19717129222677654
-0.059855847665917894
0.03395414997873916
0.012699406774227028
-0.013161352056433068
-0.030226339958324078
-0.008433217854896747
0.015877621618675893
0.06203084570682476
0.03726627097982284
-0.02554983689698141
0.05041321464966711
0.1341292598748931
-0.030042666425000017
0.00420352476675663
0.025266154648113534
0.023617490323073507
0.012118048995715594
0.0549417073620334
0.05288786513087514
-0.006966628036383755
-0.03471024867689092
0.006246503444434737
-0.0016249752462593255
0.014909504670543012
-0.018791855650248105
0.02510422805642398
-0.014005654819429692
-0.04788676826359416
0.0035010440799138147
-0.026080458325238517
0.04033832925573066
0.05918995227629042
-0.02410892252460891
-0.012003012839184098
-0.015591141235945558
-0.005763829472339004
-0.1291066849482187
-0.04988469027009749
0.05845966177432161
0.013796674593715324
0.024023947025253237
0.023563839874307393
-0.05574909865676837
-0.02742846837502328
-0.010437742855298544
0.05125472475039796
0.02266855598550088
-0.010268819150108485
-0.014430491202663185
-0.028088624126833252
-0.01657435695735283
0.0362372864464795
0.019620610069172102
-0.013821216327489777
0.0010616835484989458
0.0029726967955011744
0.015879417296709258
0.013808378328289671
0.014436012272435317
0.04054374221415148
-0.01925971042874799
-0.01693990823977445
0.016176389096275366
0.03792833243155149
-0.017236930234876158
-0.01602037398099391
-0.02310166733165485
-0.015565891228175942
-0.01625189579824774
0.021794983693714513
-0.008193881531386917
-0.012941762366046798
-0.028214046654627404
-0.03655693863075895
-0.0185843345531235
-0.0003380386689101178
0.013632226706984524
-0.007614777711774856
0.028651508675465186
0.0262930373585823
0.0016588387338779499
0.035978392088694036
0.009988660786787019
-0.01068732697255438
-0.02047527719959806
0.018588206073630247
0.010210274663393573
-0.0031673315797561964
-0.006330036465277128
-0.0055330868464269
-0.049074978074854614
0.022438595678292157
0.01760669129953894
0.00019673998163090986
0.07680596683239874
0.039768669781157465
-0.01791490791942424
-0.0025790028037976395
-0.007562229433807959
0.0074128876035253225
0.007120421257186729
0.012795504642791646
-0.03753208260741621
0.06210791101382418
0.1797864967709543
0.00968888758021477
0.016559020625413236
-0.07415620468507016
-0.16208733164887096
0.0058797294299084025
0.05560606193931702
-0.16005795869911296
-0.04790484445011614
-0.04493289247056337
-0.05319827685290047
-0.006380293306073767
-0.048051902400965636
0.0026223338302747558
0.03782115083306316
0.014899397915014158
-0.020381889528864827
-0.00776553531360434
0.07143108171412572
0.06521422523840395
-0.023710573861211014
0.0026030823302166813
0.06298743817498448
0.028732026501465713
0.00030381392356592166
-0.050823924833593645
-0.012718045837448747
0.05134307960252953
0.01030943515090051
0.0005871136081815227
-0.06360434962458592
-0.011320884951193376
-0.006011039124474766
-0.02862035181646158
-0.018018765016140238
-0.025309431408922674
-0.014225552844903953
0.02652657790572748
-0.04267714797756139
-0.015334698299101251
0.05123950245432305
-0.016354273868309
0.025720620483311057
0.010201807617675926
-0.0009751003004512425
-0.026136764846579813
0.06257719586725757
-0.0037108962058021895
-0.03616522143571711
-0.025115216780417407
-0.02497605490036404
0.06626630109919487
0.026688999402101697
0.028440272576651337
0.018790754502046186
-0.012745941287917584
-0.0058007362581006545
0.03042862036823071
-0.025646224686348685
0.05909565538431118
0.04125036041558761
-0.03605217133763208
-0.03216593581171341
-0.02965765051981928
0.05769075191481107
0.024980889000710188
-0.014224428900761083
0.0049670830967132205
-0.02838754644680898
0.04091713952091053
0.036829913499382305
-0.021698769643062027
-0.01200293412868176
0.006421335974218404
-0.033332441710617826
0.057154587278890175
0.06811859722159036
-0.010987322030571796
-0.02169691983273289
-0.008839610260705707
0.00034786152684262127
-0.024629030484249276
0.010726604421924028
-0.006677586328067693
0.00786450273777684
-0.0067027756713416145
-0.00712383850633572
0.020658090439137234
-0.03966192119045006
-0.047308821832930885
-0.029649979147279525
-0.04463262550546126
-0.017673875774906977
-0.02973323962776844
-0.014951942628114685
0.028402179431727632
0.013216995167001476
0.012227683979292112
-0.0069781976737962855
-0.021831023664751172
0.02080373074488706
-0.019560984300386098
-0.009965519430749678
0.009855805485610911
0.012054358444325
-0.0012874964931905424
-0.02447182543841805
0.05396957996641535
0.03277609819406005
-0.021528233637756546
-0.02713060175220043
-0.005787589039788698
0.025595414606144038
0.03580018204970297
0.017345478628037293
-0.042716479829671805
0.0014785894549414287
0.021945319039873956
-0.0042076924210870045
-0.00022006028018432732
0.025649252128347882
-0.016608688981401987
-0.006143996073421668
-0.022002458887331273
-0.0070656836117077675
-0.02767845654426017
0.005111657956198319
0.04581327981224556
-0.002101322157407581
-0.0256023080426681
-0.02296699308995349
0.002912665248829143
-0.0017426070607001736
-0.03393926892256757
0.05166862116761896
0.018060162006472046
-0.029109877317664335
0.010800802857317425
-0.009395944668416588
0.015417486204292188
0.002493957663711417
-0.0057843507490651525
-0.014619408107303517
0.0035260799427760353
0.014809806900429297
-0.0008079832051494844
0.02274330204537515
0.01656511302098847
0.06957112399923107
0.0614591648580787
0.021990498418451857
-0.02184780773367152
0.029841667839614682
0.03681056327803351
0.016893714533176913
0.00240324362896435
0.0336983062538372
-0.022875208962669008
0.02753993891475726
-0.10297338106606599
-0.059219511244062085
-0.030161456322995127
0.03537639362106516
0.00360904039558529
-0.1774626556461323
0.01771678751129564
-0.039133181953915464
0.012803342407180212
-0.0010149688539753128
0.009180657361116529
-0.008385928561984663
-0.02297179441261159
-0.021297693097482067
0.03675322907141652
-0.020716252087082165
0.034903813816167466
0.035063530237762326
-0.020863790770919707
0.004679365528260834
0.008177657721607697
-0.04104842705981314
0.01896935983283462
0.004138172572440543
-0.010616211350200749
-0.005980064316750866
-0.00852469986475941
0.011631758763359258
0.028379988279532302
-0.01767421325732223
0.011544798599501672
-0.013011490604837906
-0.03892812867987216
-0.036564388556808165
0.02603130940544232
0.021048637179324522
-0.004358387120896154
-0.018871490145695342
0.10445860659839863
0.016298890173960738
0.0027268815618881267
0.008673952973096272
0.0472568417026775
0.014942164196249854
-0.04431925295959551
-0.0036617971429085683
0.016383937795952538
-0.02304945785068012
-0.003074120718416684
-0.016258082498127362
0.008708446722165539
-0.01060858434430448
-0.007920958953651311
0.03060285935678921
0.009949984040212306
-0.11467222029805822
-0.058804627172460024
0.0843284742035403
0.08542996782928326
0.002618960527109709
0.0379491544655609
0.009273975519761814
0.014244980215309015
-0.07510939641243775
0.022454543469828864
0.022019323937238763
-0.0087431054230881
0.009480930541266147
-0.038015622940807216
-0.007676770327930308
-0.016554586884178532
0.009314872592344637
0.027403688104690762
0.010541361767867203
0.0010938681399071419
-0.013173257608917582
-0.034532988631194035
0.006849447598867223
0.056878602843735006
0.014405784270096459
-0.017451761195052595
0.00822617688338896
-0.016577321659892997
-0.01855131010566813
-0.014291869586408469
0.02929325393816525
0.0132490269026102
-0.0023461469879609703
-0.04762363542031832
0.0167731537913654
-0.1094744997200323
-0.02543480973804934
0.00474007710331139
-0.021550284850321916
-0.03825417609072035
0.026101268000323797
-0.03329766114635731
0.008164625005231378
-0.029117047375011185
0.019197928448881355
0.012035730888434112
-0.005059531184638401
-7.551444451641342e-05
0.11089828598002029
0.07810287043039825
-0.008069365630279756
0.03739352065262243
0.002350887497140035
-0.023801134451671275
0.011230335309655712
-0.012527718421563113
-0.00987793009241958
-0.004339719808155975
-0.0156637971770689
0.011786623689977202
-0.02191236492587129
-0.04302553057194197
0.008864275015469153
0.027030014252677457
-0.013863604429022373
-0.011856961116991676
0.06738342637108517
0.1668154255680279
0.01409438202448411
0.000830120607216409
-0.028775677267682286
-0.03082425163146772
0.010771011145385652
0.03463167602745993
-0.00126192491363157
-0.033607892271064525
-0.029955236840673288
0.00012234704255252764
-0.032394394859316486
-0.11097702423469882
0.03706655072063748
-0.017514418347747092
-0.009634854219786092
-0.0710741923552068
-0.059853732213220434
-0.001535766910152916
-0.012815608234825004
0.004732006038110548
-0.008117588174950247
-0.17615100784070872
-0.04894263553356851
0.1566755796624782
-0.00630752570691558
0.047850649577271885
0.02778427286631169
-0.013601878481914468
-0.010263644991510895
-0.0088738030994685
0.1307113026061721
0.10940782263828477
0.0028240060279525214
-0.009784387471065388
0.007881895068213777
0.02481232906436609
0.04178443133418353
0.013687499311707775
-0.06100028612115535
-0.043265920961380884
-0.01773243668075301
-0.037349715187071815
0.027842084698349187
0.06881218211072293
-0.0519347335300376
0.02645797743258083
-0.048615091449733715
-0.007198976755485078
0.006729965303708795
-0.006883743385065495
0.018833252375850113
0.0156468236720881
0.00531101799869457
-0.014115675078566344
-0.026173376728236185
0.002453921177106263
0.032268965989777375
-0.026260664253470935
-0.01866354526399934
0.016077434078805082
-0.0014103345311425196
-0.03472599503670141
-0.019425819128924184
0.02882356024786928
-0.0033632656105109108
-0.0021141759855123803
0.01239388400572854
-0.01902611034860297
-0.012104336753960422
-0.02664298134698764
0.03720941419506128
0.13332068774935918
-0.026334705901892057
-0.014761576351638205
0.04488293495744268
0.009601111753042211
0.01593562893960218
0.009128390084498401
0.023070523016998846
0.014933434890768624
-0.015141408110566443
-0.06181094748060102
-0.01983031308492643
0.002013441791347777
0.004278802871093628
-0.01552053104930848
-0.00010614415567643366
-0.03504837456536404
0.04086500615797786
0.02900519040935169
-0.014588978275131987
-0.15760868347857881
-0.009413022864937974
0.020377387643453062
0.01187007987202274
0.020721910575552817
-0.018991775726131373
0.0007208892897619308
-0.04094692013878839
0.03806998660708157
0.008533065159078831
0.003922538888982687
-0.007128304702356512
0.0030717704245061535
-0.00239710171249487
0.015411028946433415
-0.05036486094023161
-0.013424783292407932
0.003262940629291421
-0.0915266201633822
-0.04065743878283434
0.015159506776132703
-0.02477590572066795
0.001647671599841347
-0.047523115160284284
0.1162022895659102
0.11125865808951192
-0.007644981003325498
0.015376007287310593
-0.012909601497563122
-0.00894708018365825
-0.019793971174813966
-0.005132452121211828
0.022414335623408874
-0.01885873646687028
0.005878100588159786
0.008130897707078307
0.052226495756566974
0.06601564497226878
-0.028345680897892942
0.03082828219972011
0.0030837198167209547
0.03572959446432998
-0.0014056355850930909
-0.006197252018729002
-0.04286438718882474
0.004735424072408113
0.003495980614089502
0.014456172315033355
0.10281204096909191
-0.025414334209843785
0.008091146317720462
-0.027612092496822494
-0.04098236144161025
-0.01414940100100563
-0.02675998366503335
-0.007436228888355778
0.01685089673939786
-0.005006588230424191
-0.0083982680888835
0.07487275106934316
-0.013201993790378262
-0.05640827301352921
-0.05735773449331912
-0.019223530364946645
0.01773705383140612
0.008970302385032816
0.018516205956806444
-0.03540393600122182
0.01056344089274293
-0.014329165654840775
-0.008630761549754052
0.01253363691065981
0.060203070540174396
0.09418841829433093
0.0019120411767547712
0.009261343708473436
-0.004494798725999396
-0.008320733491155257
-0.004225402824328527
-0.002045276747001819
-0.020658625025361296
-0.02978863842349537
-0.007992449216471922
0.012266206994278881
0.0009835664824756243
-0.02787460745272959
-0.029627285923068476
-0.021332878927798605
0.03637216404743048
-0.056632394226919555
-0.06265601823698251
0.03484007226389008
-0.01519268927126791
0.0333543749821565
-0.07581261912396713
-0.02931210661076419
0.010297429372565638
0.05144712508815654
0.0013622661717741327
-0.030164595011019507
0.03716559383309159
0.06024102438397882
0.00721349780767074
-0.006714535722521174
-0.033041160547867245
-0.01483200705414939
0.005198529789212597
0.03286882676342438
0.00104233011400035
-0.0030048336494221724
0.0167636580080394
-0.01305981137046503
-0.022243385667274282
0.010473258942370863
-0.013540718391289758
-0.003360909321662996
-0.028602343059292257
-0.021756261047166797
-0.062469754838864355
-0.0069540578836559275
-0.011563624816676076
0.02002515334248394
-0.01567392272329581
0.016375075326859227
0.09866250440508434
0.1074547745428804
-0.0072200218818585194
0.043779371506989725
0.0331665970507166
0.010833449308898126
-0.019396412732420102
0.010030853319763935
0.05238128927712285
-0.07826676026667685
-0.03335849889347572
-0.024826844732460922
0.034330009728369255
-0.009241786697267712
-0.01598387838183061
0.0015535733161038852
0.0004199909602385936
-0.008253939556071056
-0.003201324291465524
-0.033231344272386935
-0.029849375479803486
-0.03930077213825888
0.020452326762528287
-0.027505261137212335
-0.03293844700537295
-0.09257029725904144
-0.009379159467625763
-0.026724416303379666
0.03979401756505337
0.2598978514237123
0.03272861318139928
-0.0629731702329031
-0.041107528422188164
0.0019454029400478034
-0.01818210061164682
-0.004452045786341095
-0.029078260980656374
-0.08309799517556203
0.03959473634795616
0.04053390825618721
0.07478757127004615
0.02445756778583586
0.04189445500945607
0.007855763113257364
0.024379947130060246
0.04767781952116911
0.0008820862594666404
0.018414769230455284
-0.011437694541941108
-0.010870513981540665
-0.04997729360087289
-0.048062841637079044
-0.018476355851565224
0.006276495329116224
-0.009985727783336942
-0.012473692863164864
0.00597338113470084
-0.017267540633679777
0.012320423284804878
-0.006297454800034942
-0.015387361493755324
-0.010226051074665572
0.022245852640395695
0.0009146152759413261
-0.030630787330772753
-0.0030628721974939425
-0.017552971373155563
0.009082758399724456
-0.0488332471574725
-0.01823610217284833
-0.008122276268899673
-0.010956411700477908
-0.02652977339647961
-0.0219137719695897
0.08341391245993693
0.07083788406866032
-0.006067270747472453
-0.008687069067968203
-0.02597882476680849
-0.022731046217617238
0.0243038256334387
0.030636384292442566
0.02950699485384475
0.03934603097524617
0.03711939809384157
-0.04070689174510291
-0.027874642589895703
0.01230787947585079
-0.012648169856422704
0.016237222380130322
0.013841012014077963
-0.12830767570135915
-0.010679144965986641
0.04512753607762666
0.02393714538038481
-0.0273270797070818
0.0030844402139014555
0.059295373189256796
0.04886847885390065
-0.04534884636540738
-0.009535647324835918
0.003137652456359031
-0.009550589034855728
-0.005165071407130554
0.03440228109900224
0.02134966770910802
0.02856007197146746
0.0022097258271881214
0.016695491114843725
0.03716304339295225
0.05740404001400193
-0.07405288790760081
-0.0037012800399907745
-0.036213303099185065
-0.10293453193422213
-0.013033735821160816
-0.007026287351035731
0.006060765133310101
-0.010635599077585349
