0
0.042929254658106396
-0.021907680383362608
-0.0004236126930133218
-0.01854594420667446
-0.01754164475981772
-0.020684899721327785
-0.02121160743279539
-0.011469012175665745
-0.022149873573835348
0.02982261564742136
0.01888867058594752
0.03505592981086908
-0.0281906873136491
-0.0544987711820657
-0.01795479008030949
0.0003079809412714509
0.05624066881417076
-0.022131754848436064
-0.015769659994511798
-0.006471506159003925
0.006384516839924876
-0.03963947290515136
0.018134283221851653
-0.008599957826321999
0.06708682265051732
0.14672554356072257
-0.015908108711992545
0.030305748496401462
-0.006381637953149572
-0.006072174869831875
-0.028810361268541963
0.0506359168366907
0.01206046591580994
-0.000541202146419542
0.08267836056784204
-0.020808722854358093
-0.010832157127220332
-0.0408385987378655
-0.010605669714239437
0.018672038577038932
0.0436163875576168
0.011460681741897882
0.002366783797078387
0.014053498359838932
-0.034578575686549456
-0.06523805818888437
-0.024965176998449117
-0.004135231988910515
0.05790557296630209
-0.013511653307424744
-0.09867528765239132
-0.045635595482462286
0.06133530794196212
0.006658956849148076
-0.022645407466597482
-0.008008304050000253
-0.027848256457924384
-0.005770952478818002
0.0005027263609118774
-0.009539685813579
-1.9712862733143786e-05
-0.05306010959204576
-0.029652261627677104
0.035218353526626646
0.003221234170988928
0.017897533968364833
-0.002328543110230152
0.027142361798750996
0.029109319825334795
0.03213261597462906
0.014289392402692763
-0.019117193825394126
-0.025537525835654426
-0.03151695542085238
-0.0033426003851676693
0.03491622392630473
-0.015081563699868277
-0.015366725848896519
0.015169775911207937
-0.00014922088149128934
0.028771361119040093
0.04965485801177249
0.01775522569456289
-0.05548631333158597
-0.06039665892857005
-0.012452306571224448
0.0003532090053951835
0.019280348556923437
-0.006335771959174003
-0.031887905340341895
0.008561805568597588
0.0008388702757699452
0.01585326098296438
0.03059979565342075
-0.015813876247459318
-0.007571545756605091
-0.0010831400945851462
-0.0034966232528780843
0.018553189834477873
0.049533899243342075
0.005511090597346263
0.09534612556086396
0.05261041378390353
0.028666501285411115
0.00897269369771022
0.010881206444988446
-0.023157130341646938
0.023874186773243277
-0.11389556305700302
-0.07355196164196826
0.05904650764576026
-0.0039346195330098414
-0.004228704273121597
-0.0672894246797514
0.007658021853327319
-0.01793494550183109
-0.012381712824324055
-0.03333127832830164
0.028949282550651774
0.025917515714309683
0.009459848811380664
-0.14743575305894693
-0.13477996856005425
-0.007361715044977445
0.012813140134480077
0.08729732426171773
0.024097197465799077
-0.02160709054804566
-0.064196147354116
0.019957973370351934
-0.0016072303378124246
0.01880834962675231
0.10825815628549404
6.687866527301631e-05
0.007446275288696597
-0.00812844077490616
-0.031021528437747938
0.004209192309917352
-0.018070442594124
0.15252226712300437
0.05034166043818261
-0.033035546165099225
-0.014973649336745352
-0.02104192304857295
0.0006975065600562106
-0.003136133217488238
0.028941817093610617
0.0054941156674947035
0.0041613111554257955
0.03601515349608422
0.01803934129679325
-0.0056164345812802115
0.004212360648765093
-0.028517573834897687
-0.0036802376446161645
0.032445038422952654
-0.03635561432438908
-0.00920598012467688
-0.004036775697210419
-0.011337668341344729
-0.000988656065295945
0.0055272267508287756
0.010504918340050282
-0.011362166841173442
-0.0037828893483443787
-0.006829872104542994
0.0008647493839213187
-0.0036004859846387226
0.0155271432152551
0.026324728725019623
-0.004217270856724711
-0.01915703553945644
-0.08434038000319896
-0.0483897663562976
0.02716776838588054
0.021366253647809533
0.030097419447037924
0.017002207416453478
-0.0040779552445772875
0.0036082486592002266
0.011081794477212236
-0.04007419804445662
-0.01553191610128724
0.027693915817082755
0.04135296723635233
-0.001160223934098351
0.005332335455445218
0.00568021369674417
-0.008779397308864014
0.016783382839198387
0.03997926524267797
-0.06690850482618191
-0.019381204313856613
0.11065047246704159
0.010448797531739322
0.013931575579949392
0.03146241338274443
0.021159488517299558
-0.16944752076074554
-0.1255941285336588
-0.007340281084080668
-0.005966386641092947
0.0033274371710599283
-0.012170648206590959
0.026713238052983188
0.000328636033824409
0.009201753320194704
-0.00806427036048071
-0.028786621868939825
-0.008406270971623454
0.029641327462112437
0.005952173891784175
-0.01275701425561503
-0.011331589427095477
-0.02707012877547483
0.030577434421981943
-0.024334617739179203
0.043076861985789805
0.1215888625331562
-0.04179401528864676
0.04545206412721253
0.07796578036682093
0.02305160488062465
-0.04890834771591041
-0.020892256843733966
-0.015986432837791574
-0.0067475797372521145
-0.044938530932912536
0.008159370063368136
0.015174549619769282
-0.013241125614239303
0.02990578166076588
-0.04445499081313981
-0.07436902414017403
0.022387914117660317
0.03265208640440296
0.016631762685644383
0.009893591219336773
0.017484626571021723
0.06515206372164498
0.036482581256746985
-0.03673301101402662
-0.006484752934329296
-0.0008446364386243267
-0.018641681004656577
-0.005906453122023952
0.014608577221062378
-0.011077306448629934
-0.03774773075045733
-0.018914960116419594
0.035481070690773234
0.05501336417543717
0.15610654149374797
0.02670363674551126
-0.13648408087395544
-0.016786985740537153
-0.002961734537744275
-0.011633911846243272
0.002528551922156638
-0.09943010119087034
-0.06588522531472857
-0.009501983566602819
-0.0015599659773929807
0.025240534702824405
-0.015697753467003625
-0.07046390821890217
0.02286840011802704
0.006772531589137306
-0.0111300792002064
0.016413090226169786
0.17980977597808798
-0.06162221070777033
-0.036964873909853965
0.030058594362805724
-0.010790966890793816
-0.005519630502395148
-0.014641435947694017
0.12035552515481843
0.06394920672095471
-0.07717521702648468
-0.04374898844115693
-0.044238412794142944
0.0009537836604788809
-0.04129162552455847
0.0450830093443212
0.019209288116154667
0.0020271469179679253
0.0009652167877696214
-0.039132051102660284
-0.06513956979859334
0.03256237800621604
0.06441124703834457
-0.011242244867920618
-0.008387797779767097
-0.003980516641684599
0.025700921083104997
-0.042079488652479353
0.0035077562896492103
0.02252228686273867
-0.0028557919268444466
0.02864508811127796
-0.00856854231764428
-0.029238362090735468
-0.04117386070571985
-0.06406626365752366
0.014798894054567862
-0.022247755523031536
-0.05437391853988556
0.02320621666340958
-0.028266357376061087
0.01628358554870724
0.13796388110700747
-0.034126204315814354
0.0039595201643294635
-0.0007426675643044748
-0.0020050120365111695
0.005527472052167464
-0.03037367849942102
-0.08026328254345833
0.012695287298133554
0.010337802441659185
0.08928742582513627
0.12332897644733037
-0.034852737668001114
-0.012905035390409225
-0.007691076666485313
0.009488729913015772
-0.016045056438948862
-0.02321889104465568
-0.015964627380650274
0.12993750424642286
0.08379716343482807
-0.09927743726175384
-0.11085252945207219
0.05847124210038132
0.04103060219215331
0.02470879446631771
-0.0624834824953954
-0.021524680337992763
-0.026441778004501138
-0.013044621313618469
0.015534184137214172
0.0192882936026548
-0.02581734477791015
-0.0429605137097573
0.0918649663328555
0.13287764718117878
-0.06406759888990492
0.031932978945994346
-0.015549526589698161
-0.03081832672978392
-0.038055642147123994
-0.03153030812134216
0.02633407320376219
0.0037839556892933206
-0.0030419828612965804
0.015299181083439698
-0.0053231390528488895
-0.0006519533711837843
-0.021252001186348204
0.022103734841592657
0.018689737649618256
-0.00044197962957373164
0.009839608671623104
0.026158026920608618
-0.03088886167045762
-0.004490926371301331
0.01780932713391104
-0.020133747108499248
-0.005998367916566695
0.027474112479606856
-0.03617852006460993
-0.03228134695228992
-0.01669134100316121
-0.01410800906860976
-0.02722544567314179
-0.011921801315651003
-0.0023415564436488454
0.008753786777171728
-0.0006573108064439439
0.017244203354848133
-0.004343356651076588
0.010131621075216304
-0.08157274308317934
-0.09129560160555401
0.006925213439783526
0.046168797491205275
-0.00033362558535947253
-0.0032878301179970863
-0.018359512616335765
0.02976125126395026
-0.013624172289423583
0.1239882102153772
0.059097623199098136
0.032980846870806164
0.04110488695065598
-0.013686622951810966
0.04543133468135164
0.023810218937334187
-0.04176448802204402
-0.006498810226485863
0.0072601445443003215
-0.015062202279186532
0.042423979685012526
0.0075290028441002835
0.0006092443478639594
0.013636617849630541
-0.11873913654958951
-0.16003495256107095
-0.00970999190076252
-0.008706899794010374
0.005611268975085401
0.036791783881149905
-0.019370845594666036
0.04619730856963967
0.004641791104415253
-0.019798493675991315
0.009421980343564033
0.024208012724454907
0.0035265116562343043
-0.017494052819886387
0.0006530574792192488
-0.02454252565459143
0.00444689118344065
-0.018156174480247464
0.0007969727790671134
0.12754303128257236
0.011947475802893289
-0.029460099008542562
0.03687912848048085
-0.015420741034701995
-0.026719836143610298
-0.02887487227636793
-0.006225807630885765
-0.028365470421038343
0.005608501701482917
0.024407535038522932
-0.01952214677757276
-0.028106278754646837
0.0814208993289161
-0.0003553789087069115
0.007810160695808656
0.008031170631131205
0.03199214671471976
0.023525437575564905
-0.033278348649562625
-0.022278935760483717
-0.062352006564969704
-0.004431814037732901
-0.03755971072350318
-0.017776493715198845
-0.002186998143739575
-0.006583245525311815
0.05342347663056746
-0.005992337311272362
-0.006911974618371176
0.0019232292226331535
0.05418269451359273
0.03179736427924384
-0.02264424691493542
0.0026509542137187663
0.026953530689455066
0.02175935460657596
-0.012569242629983633
-0.03430738344962027
-0.043684362177080785
0.040823905387574036
-0.009804262168013365
0.005573535465572326
0.002688102344058994
0.02118934515938614
-0.006784644735524756
0.002476895530115161
0.01104594799921576
0.014288547670570109
-0.060027061909168955
0.026165580367296087
0.11716026649129402
-0.053977176767928105
-0.024587414899375545
-0.010093902148272493
-0.005820476701653301
-0.0280245744983301
-0.02274877519033226
0.0036969574927111022
0.00854790789234787
0.007325703881179844
-0.029224621760479456
-0.03170141332404782
-0.044640690092719294
-0.004934114564914407
-0.013196435782485107
0.023732769555762142
-0.009261477937345285
0.07372480485296772
0.031314425163210445
-0.03169835303301535
0.011240352832957245
-0.028813470017575032
-0.03053562346692517
0.00928320244176043
-0.004887491959604283
-0.028116872296392995
-0.022904084415186408
0.010321876352832021
0.03845379017721748
-0.012927831029910044
0.027465505952927623
0.0027097163703553953
-0.050738250257543326
-0.05179571721624345
0.049344729212723266
0.023061764138775247
-0.038767209180448944
0.014446164221036515
0.13419058651456064
0.050373819419930375
-0.017214964740162302
-0.012072381637048784
0.01418169602907797
0.05049895673974043
-0.006237440554523157
0.030168915774967258
-0.034812348407062925
-0.015939157180690187
-0.006822913512790068
0.0035163010691535213
0.006891063429869753
0.031460245247978545
-0.01815529217213403
0.002603464523717882
0.007411991414899493
0.051239337230941984
-0.004409881971708772
0.06922458164289697
-0.08533072464413514
-0.04189778675288053
0.00497103065516943
-0.04072578092589668
0.01961876187355504
0.005475151964461462
-0.016554413256022683
0.010301531639996432
-0.016930592169323255
0.022416051364926054
0.003417573730087955
-0.0076856841551128366
-0.004170719862644775
0.009668108711862475
-0.015013718819844845
-0.04787656919055411
0.006640999927940657
-0.036652618726974014
-0.0013829038999400472
-0.02942354990443827
0.013298658482301797
-0.03503048155567778
-0.04404789765500741
0.041140524214759916
-0.05137184926825128
-0.03186125518619905
0.05000848296521375
0.0372658005336905
0.03358779879408788
0.032834837421337054
0.00021093414481256873
0.02931239787202897
-0.02401659002116174
0.0010407795553445398
-0.03422671805276789
-0.052976367298596255
-0.03353360667702461
-0.0004872453047806336
-0.0045030905798602435
0.05746438396057097
-0.04365255463751057
-0.09063138796821277
-0.0020926529584562527
0.0007778249231500492
0.013647620894537789
0.004030854484631248
0.057858144608193995
0.052767570532209956
-0.05143118277943775
-0.007468995252207603
0.01965132669540733
-0.023167014389056856
-0.004573132612917777
0.0021144111492388982
0.012505794547898394
-0.005337511047579766
0.023082870647703778
0.010505378269868899
0.05876382821502853
0.023133535041389826
-0.011731612140816848
0.03414090747121505
0.006680271507701884
-0.018864840181821975
0.0014268403086646461
0.04833686695939397
0.031101671643007353
0.0016395200432897778
-0.006533598374772791
-0.0244742330959237
-0.04732416178248569
0.01710481585935672
0.032102265487124075
0.016207272597788307
0.003148117787169931
-0.0045263678568038335
0.020851138593619267
0.03849148475480452
0.008292087910158882
0.003727373820905636
0.005478801140011495
0.022713284807903918
0.08082497785675144
0.01067640055561832
-0.11133570648431138
-0.058240064859117514
0.002972955278733119
-0.00714639912012208
0.013190594294851693
0.015954844811530297
0.007514800798732118
-0.031059112813516487
-0.0016643354549560738
0.022859046807084882
-0.035848325682065627
-0.05978958776934218
-0.12009138869857884
-0.09882254429685354
0.046943177524471226
0.04462978357172556
0.09641540275464396
-0.0030358913779906455
0.02122547693313028
-0.02683858480371578
-0.024509378329386253
-0.010203530300436338
0.056700782099560906
0.005819666814143072
-0.017726558317439807
-0.01859383376124995
0.04120717634536189
-0.023180719335024327
-0.0287647351941135
-0.05249501176428186
-0.12417551879320891
-0.0032403682412629007
-0.029078006266923497
-0.025149495435055725
-0.010824521625500875
0.014350467855341083
-0.019627458890082158
0.04179577018586622
0.013287831372261473
0.11946477347741143
0.12684685904953338
-0.06693710353972288
0.028305507726999787
-0.03409682988045399
-0.011960102740919961
-0.006174242134965075
0.027425083636917574
0.03220552699307844
0.010049529917314748
-0.035917320106876885
-0.014787822909622834
0.022592166023799248
0.07521680136946497
-0.017576206224203954
-0.008239668754099448
0.016809867480440985
0.03798653897615772
-0.008025728395535552
-0.0008177199520310542
0.0008648342191593084
-0.017332103257678852
0.004069503337248354
0.0319527013668952
-0.021610676233223783
0.016751158197515038
-0.01821678775639932
-0.014467544171990726
-0.02280422892508872
0.03594626698253122
0.03617470822477303
0.015095352467002885
-0.01590968772048576
0.022015342756018245
0.03898170655305232
-0.018654173384862235
-0.054549114383487786
-0.013446933654228615
-0.0515209346330778
-0.017559258809300326
-0.032197823222735164
-0.08081348968572567
0.04163777305593646
0.034027656339131206
-0.022121916846723638
-0.006002371621692339
-0.025722933211614205
0.015071543227141465
0.041326215555630784
0.07262511466935717
0.03591272477287407
-0.009899189096483709
-0.02988708882816117
0.004149773567630907
0.021233166857458345
-0.032223419523186164
0.010197052697027878
-0.0036801492829614466
-0.00780306204019187
-0.012321705866170807
-0.03470484677020481
0.011561655948118046
0.009562873730491944
0.006534441424690229
0.005496644724508128
-0.03758333865222134
0.02808000690503739
0.05387858198888527
0.052442561162820055
0.03405093512506855
-5.727936597221663e-05
-0.035614444452323035
-0.03790097947397198
0.016257077010900685
-0.020143296303698818
-0.0009942262273144613
0.007843051861872981
-0.0334534153758754
-0.004161396407980997
0.02383819894429722
-0.008698380376378202
0.005043073347361488
-0.03958087786448
-0.023437398693018304
-0.006159572375355412
-0.0035164512152591515
0.02097033835076986
-0.021428500482498593
0.0056127151109014554
-0.029821992991755707
-0.09548470083635295
0.026390355797475572
-0.0003095242096763715
0.009866461881465682
0.04778154555005312
-0.07160634967736788
-0.023097968893079156
0.024964792743484322
-0.018895338761039302
0.033369078155407
0.0013649408204190602
-0.034551563073897056
-0.023470421592946773
-0.06148186340268893
0.002209896157260973
0.06737985645929015
0.013541652246635453
-0.007185051637824836
0.022460634321773386
0.005505125442792674
-0.018755335476199987
0.005926508252451756
-0.01021847622658143
-0.020221838135388265
0.014301662502255182
0.12902266604589163
0.020981076071360884
6.13780057068133e-05
0.03941452676653334
0.04542240783074567
0.019708150165461125
0.0013849353852007325
-0.014902233821167404
0.013839089711051175
-0.022727277026531198
-0.0029993709118633044
0.009971953078234832
-0.069941155959447
0.0023640542251542793
0.035092738631256316
-0.008995743274762675
0.026222219123845546
-0.010023138397404579
0.05959857461611272
0.12176068815469689
-0.028029438206397424
-0.014252709425483874
0.0047290597206110264
0.03634684299736145
-0.08072976573270511
-0.06015999827637972
0.005988383631366205
-0.014968942457969968
-0.0165677575855576
0.024780301848261046
0.004981088717734014
-0.07293968661118605
-0.012182279196728686
-0.0035854415136431224
-0.044555754806719756
-0.007733642958545533
-0.028066261886721487
-0.011798324211232544
-0.015811687358043586
0.008574040589808036
-0.025214243071133347
-0.0045009780067387355
0.0021937792610245022
-0.025860515743871222
-0.010130961873367138
0.0222946284012381
0.020544768082016548
0.034672806545570964
0.010944730355096015
0.0007411131232219351
0.045877606064954134
-0.01012922808593869
-0.027040957662952204
0.0069575228306796395
0.12466627486016704
0.011152074498267559
-0.010868462217042994
0.007694741474025867
0.002697461797441469
-0.015128008655859955
0.00969443042494542
0.03994670724427948
0.01754676712943333
-0.06341078076268016
-0.034349571433998055
0.0016131308390285176
0.0015097924260209282
0.024603406080968407
0.020197835584155117
0.026073914355256946
-0.06735754958700484
-0.04987646757259975
-0.007463291551332346
0.01593048433033006
0.01068210510368977
0.01685652281119898
0.019866555926094185
-0.024085897177670054
-0.023163730418416673
-0.013064252625455715
-0.02234831669249627
0.015936833622795462
-0.007342832727875223
-0.023296622659815306
-0.01101011612264354
-0.04058848899001209
0.0132839243213424
0.029768999568754333
-0.006631289617131132
0.006334838593710608
0.035729903134702985
-0.01658696534376602
-0.02585066056569737
-0.01334270891791939
-0.018289778971550694
0.02486560614003023
0.00839980312925551
0.0022610986114341746
-0.0006277203472437844
-0.03498794838602833
-0.02059109903574025
-0.028571226400444353
0.006740439412220892
0.013600532651728172
-0.010362786209549148
0.05887197644685284
0.0489880296595882
0.007215362987601019
-0.019425477521407858
-0.005948078721791002
0.026119989741585373
-0.015718724446610325
0.021378777019954744
-0.038614674787335775
-0.0018047592306852278
0.010048821560585107
0.025972745852993938
-0.010535636408313162
0.00793076187451471
-0.05310094663844943
-0.00010827119098122756
0.011993359648581869
-0.0052988144626151985
-0.005580927157792502
0.041721455755133294
-0.010945570508975742
0.07773265567431407
0.09548720087144207
-0.05404719057490786
-0.013178109083877662
0.012530120540312042
0.06367484315661527
0.003911002354045438
-0.07702133199437165
-0.007666715373223496
-0.018746861743399214
-0.011337936376926639
-0.013170794219319784
0.000785814192967325
-0.02485236791848887
-0.015350640185190409
-0.03161406461349625
0.025738225021226614
0.008936165059309225
-0.018462713825388014
-0.00621060017179859
-0.011156697416733408
-0.00908933573210755
0.03294463330854157
-0.06372365464600456
0.037382961195392715
0.08451438385810751
-0.02237486758880433
-0.009100944719121986
0.013709984804308116
-0.014567353738047323
0.014571169439281448
-0.02172648772909206
-0.09631985010153199
0.047435607191745145
0.0062934340868985965
0.049522840759096284
0.024912396346987796
0.03305644979279486
-0.0049949768238206375
-0.031240321758157583
0.014159914871663086
-0.01224135977182975
-0.049899718305332554
0.003578620025263368
0.044733766020914736
-0.024186390727008723
-0.015824340738795184
-0.049361799115192145
-0.0196701789501828
-0.025500762444176237
-0.0007390874553492237
0.04190901444319019
-0.006475306610837157
0.056948929245408626
-0.004094360076723672
0.02176910001217139
-0.013568754622650649
0.039601753571679436
-0.010076339342304877
0.04493331805712138
0.0406714474502163
0.00471107392030345
-0.039972899186493514
-0.06275455221647132
0.059775923902478156
0.008365999111959576
-0.008553259741907604
-0.0007796188277108629
0.008948658430246215
0.023437212870005917
0.02900566956152856
-0.014714415196617196
0.010215049093438868
0.021247843932815078
-0.00932289179268884
-0.01218031796671305
-0.002213713114126324
0.009720803373149343
-0.05793912806467626
-0.16774265017847276
-0.0013553222012687655
0.01837241837464626
-0.0014962425500729588
-0.021996048450340713
0.0982762145907588
0.08580828954509594
-0.0014300677510571454
-0.002920724681664227
0.006624651891862844
-0.013034877524113007
-0.08213270031348843
-0.032922979262963184
0.011068050982488266
-0.0068158422367065605
-0.018236514462769887
0.0444380896645987
-0.04352031355832876
-0.03433955168629555
-0.018336256964626384
0.008248860492822679
-0.020087636578427034
0.015230758986524802
0.0010706428511235966
-0.008184621516744785
0.010921206558300688
-0.02134216674312399
-0.011048396022872596
0.004674364512103328
-0.011584957167692441
0.012709710021671785
-0.022887828120753347
-0.025126324677156177
0.0024836064786801534
0.07276834522101203
0.009647555246819744
0.03256124220901066
0.019653059446426962
-0.02761563940372174
0.014227808735801747
0.09382044360557498
0.025486381931516814
-0.027553863629074703
-0.04651404795170665
-0.007952287042682322
0.028527759562645544
0.08475171868788309
-0.005954185614450753
0.030314286433724833
-0.00860473290658568
0.014783887111220407
0.014605358876691553
-0.022672891366678664
-0.03103263813285449
-0.01782110883481927
0.0124740098588141
-0.008886206480258507
-0.014110240710077505
0.008351715079595614
-0.016858997256501494
-0.005901896193591421
-0.015102183781701249
-0.02140356216998931
0.0023529144120897523
-0.004600873305005585
-0.04453569407953751
0.00011441486998363771
0.04643350810470996
-0.015237005521499526
0.007219733912113487
0.0475159970990779
0.015196690918377647
0.00607221645272251
0.012851997952220322
-0.027364785238183146
-0.0010866874181387585
-0.006375819018853937
-0.022667324157724666
-0.06789457611396349
-0.04668570381405364
-0.024327443984688772
-0.005031454542681616
0.014106782353898974
-0.02513107305970532
0.018629323716129773
0.07629518260508351
-0.037143875208096075
-0.018904351731410123
-0.015366939430501792
-0.0030779752784447097
-0.015157329422858242
0.001618981240199351
-0.01562876146346231
-0.03311977072960378
-0.04306125900764989
-0.006024763091864278
0.20584869287589697
0.09350376695466614
0.025599740193844325
-0.0019442722597725892
-0.0341639929213563
-0.008126171215557278
-0.018623200243916335
-0.06271715428428482
0.033187949361363926
0.08588783997529523
0.004798207526005566
0.015634222162516306
0.012973308482702894
-0.015062599409178451
-0.0090498788091646
-0.006747460624472396
-0.017428800128674468
-0.02512864099776994
-0.004606907794197222
0.004009000360166127
-0.0036859324722541627
-0.0666029963631952
-0.055181060507848344
-0.021311045865849955
0.0036788855242031737
0.04780566899418778
0.038861831278432866
0.008771613447641645
-0.07198338703395273
0.021868651860557635
0.02652537031688001
0.04062979447145143
0.02274143106102502
0.06137108974053815
0.03455701881063647
-0.018051681063408063
-0.004098394668431826
0.029908744348487466
-0.012230868869740326
0.017973360195477753
0.018056859904458652
-0.01712761764669411
-0.044226084998603025
0.03636438196040592
0.04653178479611488
-0.02705331741241917
-0.11980496263144544
0.008939343917093027
0.0038390021447779867
0.00648578506270283
-0.03859804241543956
-0.1386182402036921
-0.025877587792022583
0.007129659460777548
-0.02184137231230199
0.043931457594517234
0.024419105448828162
-0.014491224589374635
0.029943986640875112
-0.011738187452644013
-0.0008054614770159971
0.0058846999690651105
-0.009572262575788335
-0.007852603134233367
-0.0026543714132306402
0.035428014792713486
0.03599991958705037
-0.009197303789571004
-0.03240263928848191
-0.009875079054178731
-0.01550268492463205
-0.023288248116247273
0.004129964044098592
0.005407649872062159
0.022336899200002442
0.02409899371345964
0.002406082284584245
-0.058522346934237475
0.06999473966864732
0.038496106340289014
-0.009212528362983408
0.013141694767589727
-0.022820416127311522
0.0067876290903032144
-0.009966663705303861
0.018341968250023627
0.01832434606976493
-0.002789495560126931
-0.003958559288826202
0.0017899794733580473
0.0037690969261337756
0.036073624071240734
-0.01540561334051679
0.03187818361103058
0.022432962861021654
0.04413156865190555
0.07833657282514764
-0.11825428932739966
-0.010106275018863976
-0.036886063768864885
-0.04227381083696958
-0.003151479475505133
-0.042652881010123406
-0.07144810308871995
0.018139321001286807
0.06884478748160407
0.01634789256183478
-0.059953945497397285
-0.011290319801879852
-0.0276964079713365
-0.009437966277832882
0.09798882695805552
0.09424069139952873
-0.0487194943539936
-0.006903319699636487
-0.04571936566532199
-0.12177584918888394
-0.03347407508216405
-0.04166418977883694
-0.01877352679422053
0.03342410851975685
0.1841178292117563
0.0014007795284949694
0.05489302249137139
0.10976946314251015
-0.031360269821571744
0.0176672919659244
-0.033914839044954154
0.04667992369994563
-0.007373995872090411
0.04811716719337886
-0.10049025902553489
-0.10179937635803629
-0.012597215499765885
-0.04610535519523873
-0.005312236608832331
-0.00850619925129387
0.037097171762576854
0.08888487199578562
-0.03034879502670748
0.010521973654603231
-0.015289726678453715
0.020399795321124348
-0.002194117370863506
-0.017333026623785365
-0.01306826037471689
0.028681455503142286
0.004997211563548444
-0.007533217228273626
0.05686610164991654
-0.009147800768120036
-0.017665830808628862
0.04305405224171681
0.03004571897985825
0.00774425922382374
-0.015145486073193623
-0.004813179752446345
-0.050413377565084794
-0.012426910859343485
0.047079588285439615
0.074709347195142
-0.03108873609533162
-0.03642767296380686
-0.053809995793366476
-0.061788854663379654
0.003519758082546144
-0.018552150348421233
-0.1019835730925764
0.07484127633338625
0.04468206694960022
-0.09224695973635011
-0.05588108002825402
0.052040045288766254
0.07834691762710748
-0.044230105525279
-0.03429208107107447
0.014645794405352503
-0.0031429037954598476
0.02547926049058873
0.12252070612217782
0.026772077595219344
0.008626431135757517
0.05549371203390664
-0.008637551214076573
0.010385926979480608
-0.01339093230486667
-0.0255534876223006
-0.02697131891520398
-0.034504493653639695
-0.030212144359318197
0.01922004296577047
-0.017666221837168553
0.07540701590962012
-0.01819666494737059
-0.07290580581905222
0.024097445954450764
0.028839582852401173
-0.02849492019795211
0.11668896040013309
0.033231888600033475
-0.16733238143165127
0.022431655715464578
-0.059013086581280565
-0.02896666200262073
-0.014075462648264614
0.004165462775526
-0.02074640064499438
-0.026851265774007725
0.002812816859332412
0.030888942616498875
0.025343123079969426
0.04111938182979929
-0.0012148850211301703
-0.05666809541307675
0.0382805768724049
0.038170874506389244
-0.00027978078504612347
0.01929197491252455
0.018696608941161454
0.047922884581653544
0.02426183047771967
-0.006046254224594747
-0.04027584912021975
-0.017140119302350123
0.02646789006477534
-0.0008469508201253531
0.02308620825326614
0.02453544133853181
-0.013182029302204764
0.011154613795177728
-0.0025212082325303383
-0.04287833391340085
0.002320099094995909
-0.03369377745976391
-0.06793665204064701
-0.02363921756324245
-0.03636689637622146
-0.006418112119007664
-0.05684590297262904
-0.01983689449990091
-0.019012604049691708
0.010016779130873545
-0.009298205109376477
0.015362079339030917
0.017707165363265682
-0.05774059801542788
0.003185548103789599
-0.042008075463529075
0.09938633654040549
0.1330559739466614
0.018061014354472077
0.037077540585721845
-0.00048587826867612564
0.007398202313508995
0.04265641755119141
0.01060018968976069
0.009906297444666102
-0.030034453375797215
-0.0405245070250872
-0.047625911426671316
-0.02788890206083903
-0.022564703391520932
-0.010482210170267849
0.0270070195923102
-0.012447020362797274
-0.02978865014090501
0.002692784468933922
-0.005530110475575101
0.07223408712788867
0.022929845730697156
-0.028039408875958932
-0.016391926812374655
0.1524183092032768
-0.005794629245664274
-0.03352818834518763
0.06435175770847869
-0.004357369105075966
-0.01153963598196021
-0.03853240977316279
0.014743622257446127
0.09565155461764889
0.06566083887901322
0.06308732534323132
-0.04338908451202268
-0.09299916622819863
-0.02561636577953799
-0.023295714350705238
-0.0197833565231894
0.023924557280097188
-0.020932438544151274
-0.03901589818860224
-0.007717364024145545
-0.023084370744405634
-0.016392839563319394
-0.03688894889079233
-0.021118212363065294
0.005166668351068902
0.008053948952869072
-0.07060295710740701
-0.01685607351137353
-0.05232537291764759
0.015749783352791986
0.010930947839161554
0.017327159258394998
0.037500838657417566
-0.0032715940978926203
0.04196510244767521
0.03784528049180961
-0.03305231597739876
0.02937638199339284
-0.03267037719087436
-0.006944441564135331
-0.03925856966388129
-0.02317814781277731
-0.03216057538875658
0.00597965330930315
0.04163952611513112
-0.04567386696087036
-0.02002987158170879
0.04570497987462186
0.011616463076465904
0.024361633163475827
-0.02744166782156682
0.017776340911145407
-0.00320497354660667
-0.03893572488950334
-0.007768469454176312
0.04719942062063104
0.008339643576708456
0.08833078706456708
0.04135644284806095
-0.037493462390080626
0.013932332230101157
0.021515834819499115
0.04285672313178126
-0.0043398367902964564
-0.037492212204881414
0.00041756740130000563
0.039712335272918786
0.08047518000483128
-0.01119128681486839
-0.013276349641279737
0.02443453771901592
-0.027264008193599223
-0.013533650014266955
-0.01842451438561882
0.01748046354855102
-0.0024563351613011296
-0.010941243047399322
-0.0331268784676855
0.018793740662420438
0.010543652014884011
-0.0027583160479277796
-0.020013018056588144
-0.029133509567125643
-0.021652315163276977
0.02930758319952845
-0.04086507334393469
0.001977183965177834
-0.04338935734337583
-0.053221361516307214
0.015253842071677477
-0.029570789859156257
0.008660351748494857
0.0900410703557416
-0.02667239649739536
-0.00725138281273464
-0.007082876713352646
-0.08551656943562189
-0.0077069889922668396
0.07919158206317153
-0.003237329252788885
0.04532485798066295
0.005388807735267941
0.00427843602972827
-0.02685682744363307
0.03141540152674191
-0.008532569968298195
0.014709215003208806
-0.009959130564038455
0.04523792565142187
-0.0772179872715138
-0.14728604998170944
-0.01080341195692678
-0.039519597385608715
-0.03926508928457494
0.10191585558045504
0.1783094661094498
0.02105032459978113
0.06193882124327018
-0.014314781174601105
0.00403640443558563
-0.005174528492194238
-0.00947942138921374
-0.015118843969422556
-0.029054008365851924
-0.03753997386600576
0.02973438959116613
0.021955174960338115
-0.021691272576304762
-0.0250910820307435
0.002250217215439185
0.02830011980966446
0.020213512155753666
0.00022583149679147193
-0.029931673680963167
-0.021926050577411895
0.035265102139964026
-0.011332350361215356
-0.01186583974128153
-0.020186044194017243
-0.0012947903051954172
-0.03887702963420089
-0.026733625032847028
-0.0030117507190143868
0.010472959114823446
-0.04772907508452017
-0.0188150108864258
0.014228225798208491
-0.0007406683845785814
0.0032677513379355
0.06094069053675675
0.027174280763159787
0.040885444330858944
0.04299779442400068
-0.07666402605998221
