0
0.010447746304753867
-0.00492726974183068
0.02231627581740918
0.00748470230313999
0.00012122783227358086
0.011028714846782124
-0.018623724996449324
-0.02330655100316749
0.03804140279247241
0.021469459191734288
-0.034845007171196214
0.015989171554467923
0.01245582764906472
0.027881960818149133
-0.007985097915936566
-0.015027360416564052
0.0038198232757551786
0.0012659558413980788
-0.000611869860610962
0.009361287957088398
-0.020058120261813625
-0.021148812302809735
-0.016240875620135375
0.029899171211425993
0.017538965115082548
-0.0014205010311628542
-0.013777366792306258
-0.031661228339029145
-0.022381335907645447
0.016341944427427944
0.043791678699263065
0.01931191484965007
-0.01962694720720303
0.024365129471811617
-0.07030461431574112
-0.1470267619799131
-0.0011158982157895045
0.0734036898320359
0.059321466395608896
0.04501636720075253
0.15782770578445954
-0.008497132392091768
0.020784750822811057
0.002347952996641471
-0.015310755325092396
0.0014206255515908908
-0.057868036739484006
-0.07284848600123756
-0.007617526599349628
0.020588835396708336
-0.016200242263387735
-0.00928138127956734
-0.005845342463396131
-0.033798783247014845
0.012449499791352313
0.012376997075688002
-0.007188471923728704
0.03504360565782572
0.012284720192600514
-0.03690770877830598
-0.01342626387778487
0.03063327246691594
-0.00403387905952388
-0.0800975248445831
0.008969228200684042
0.006118976639193182
0.03209774871340398
0.043011424239969384
0.03053574346198228
-0.011865816197947533
-0.01057568852990922
0.009090257457533446
0.0009633162810621178
0.05924321042957356
-0.03173809618807
0.0995521855251012
0.14447052104578254
-0.02462021089263203
0.02223429516019072
-0.013131411605210294
-0.037171394406300295
-0.0721763379393093
0.007957027883942907
-0.005530063861737072
-0.019753044130763692
-0.04289024218894003
-0.004094898575618157
-0.024500290979170416
0.00861254454059576
-0.02843465324394444
-0.03582070447524118
-0.010522273709228933
-0.008046379076795831
-0.01297253430418282
0.02437524200754036
0.024369006936065155
-0.009961914119049986
-0.023783548078171513
-0.0013721521245574943
0.03106045086068917
-0.10524648053647624
-0.11340773920397959
0.013887808946809367
-0.014671536864837747
-0.009934748307540759
-0.038331790186079406
0.024888450025371434
0.05742879063506222
0.05319453774771439
0.005748663685299617
0.009476520819607053
0.04758481656882406
-0.017988456149011425
-0.03477568914827165
0.06333996886599674
0.029569251117910457
0.007538757354907097
-0.0075835318285850896
-0.001125209055779478
-0.03379612239510254
-0.0019272888694097277
-0.026670516313301
0.01269671119111225
-0.023720970615172456
-0.004338010583353639
-0.031765156265118236
0.018015883193808997
-0.038283599961012854
0.06953356145723658
0.0964724618958302
-0.048216153981211145
0.006782800597945026
-0.02520830453226534
0.03952614679977072
0.004645639981604539
-0.03746692571994829
0.015049084581108716
0.04343336147315089
-0.008474600201949008
-0.02123439348168828
0.034179702240093666
0.016430502028970534
-0.024555658171033303
-0.02117348213023267
-0.0034184989985167297
0.029845446615207858
-0.01126449605217697
-0.01618586093034159
0.05010642525123591
-0.015808205710615184
-0.0355442470706289
1.0708990071201233e-05
0.05601526502551479
-0.0013670193437242632
-0.02136899215729084
-0.04032909025667693
-0.018246884887796435
-0.03805040968288639
-0.05737517825253857
0.0032659165731296984
0.03509887438050606
-0.036377406376862306
0.13446449299738156
0.17090343946251077
-0.05168291012579757
0.010761099324946921
-0.03140883297777438
0.023931719590324432
-0.022002542248959932
-0.014530520397887934
-0.016407487293604636
-0.0977447873591907
-0.09199192698383588
0.03897822941826607
-0.03057529926471075
0.04140873841690469
0.07074769687051703
-0.002553933050379751
-0.03232248429354608
0.02050138181779693
-0.06732128143842715
0.004378091876063821
0.017962535766531375
-0.031905665797201
-0.028646938695323226
0.0530760932504566
0.0621533439433803
-0.0337403489036201
0.01262714694915732
-0.008626824106052823
0.04531146398773925
0.021240822041123177
-0.03705445720682711
-0.002805476590012152
0.0334777479551093
0.07741859755064155
0.006454153272205916
0.0313438430443066
-0.019751010305123756
-0.005674166590714066
-0.057886674726458594
-0.05721264873890395
-0.031693831773148065
-0.046794606836262465
0.01968747522620891
-0.011808447583487475
-0.020282631856631404
-0.04289966794842266
0.008500081751589308
0.03941193426374095
-0.033900619863744395
-0.018752463452681525
0.002720749090957306
-0.01900976981546932
0.026905620129779394
0.0016119594617378357
0.04644602459277544
0.012211241929474717
0.0110780370431186
-0.006068651259887882
0.005533140602963625
0.03552035977246117
0.012114959577316908
0.009002063850796937
0.03472288744022363
-0.038685268237073155
0.01021176574867645
0.019435158117784266
-0.15456297711361666
-0.0625435680281819
0.04910114814346107
0.04172599328652642
0.061070368881931104
0.10173123920381368
-0.02699346614393025
0.040844307647989554
-0.0009151559206197135
-0.0073283195317005775
-0.02070379978426539
0.005089201156056965
0.005571160330222168
-0.043920305936039544
-0.01979497745431852
-0.023399882896207147
0.0048004124158644995
-0.01533499504102486
-0.028768786596267713
-0.03021576439671319
-0.01331919665300753
0.008542000432518633
0.020243714063853297
-0.0019379276607012046
0.03996050530679517
0.07691692171802078
0.0022451354818693596
0.03495323655944428
0.004165437298410189
-0.024001580900542482
-0.04140681559892305
-0.051945494784939955
0.02299082115866894
-0.04321891770992457
-0.0601622368792901
0.025047462833661837
0.016526745172858938
0.005971705307971796
-0.021368173357953955
-0.004299008328112816
-0.0007930614861011257
-0.001436648207339898
0.025717895571404175
-0.007256578857105954
-0.006827367746328448
0.05100381101847844
0.02821330050286707
0.048229633704732384
-0.016107310193137082
-0.0005014547171948648
0.019946740400018193
0.0426270639740572
0.011888592565957829
0.008216459687038316
0.01071577860888399
-0.11112261597633231
0.0077881694769525505
0.03778178217276469
-0.02797880307061847
0.063524100371984
0.043501578989494596
0.025579751996083904
-0.00785304664832994
-0.0127124745932652
-0.08073071477804739
-0.013842831960999037
-0.00078363374956841
0.053271434888713685
-0.007840685835206595
-0.01442691488348338
-0.013053307262133485
0.01977860072893082
0.029914526221604416
0.008056277981110041
-0.0029503460205529504
0.015048583589987934
-0.005135803157554792
-0.0007073490725915547
-0.07786679733366778
-0.1194978411487284
-0.022118045704656884
0.0003143319055917536
0.04148392064670271
0.014808824709552687
0.00956493990517113
-0.006296484497122922
0.0021838586830892686
0.03693776772139345
0.046114991387775875
0.026888729135480953
0.05874099367452308
0.012032512429842587
-0.16554591893641746
-0.05679378732948364
0.018353092347957255
0.011847712359152014
0.02119738388372042
0.009982806707736009
0.03188229121546433
-0.15698009523502637
-0.024217262880586718
-0.01271446883040933
-0.020115540635266514
0.037847171683435175
0.01722147392157332
0.054182695869479
-0.1328725819784318
-0.03359928023492491
0.041031715564977915
0.028824177615104925
0.028728829668263806
0.018273676324765186
0.005595718821680348
-0.01202618540832387
0.025884850305233645
0.0246525692547503
0.0006230681058661776
-0.010012877442267002
0.04884064431550151
-0.043848218368010956
-0.10771404269006873
0.0007136717537045296
0.013502749963753224
0.03396695986700667
-0.018152319174973206
0.002781507323914657
0.015336592318528665
0.02487027798367312
0.08352135990711582
0.03718717131906903
-0.023806356706190534
-0.0009319373144133768
0.02583766133305252
0.013357985429420072
0.01087920626144161
0.018709815001836848
0.04251267845489878
0.00015675887042893344
0.013091652284074284
0.01628159925562147
-0.019394290335957912
-0.04146496202312109
0.05812630164050452
0.06037461955812418
-0.018186633480848032
-0.002431832222713242
-0.047288159210987
-0.002810116226623752
-0.021094479013908162
0.01972717466067135
-0.026738917069280017
0.02902564304775131
0.05266255795674289
0.02916857458723391
-0.013481151075213707
-0.026358738066372473
-0.0028559837473320095
0.006132603328003267
-0.009647202508690726
-0.022236176260704735
-0.1512027994662448
-0.016211050400617173
0.027030495120571908
-0.055782339456088625
-0.04328729281426221
-0.01763836226067612
0.003057768279413479
-0.09904014718936588
0.012794731601536755
0.06266698699145404
0.005856848866198615
0.01911664576372625
-0.0022203689745604153
0.048454136086670985
-0.008857392761671398
0.12231377013757393
0.12606112752722706
0.019746481911579808
0.03179434442105976
-0.003876882972330425
-0.08292287888498986
-0.00854231132206746
-0.020641172150784266
-0.03496748213899521
-0.010469690900819522
-0.031189033919643047
-0.04260181505105867
-0.02599215295690342
-0.0033188635982901375
0.015116488448242657
-0.002934620392475554
-0.004744223041988067
-0.011406112308608668
0.013918648427299516
-0.030471336991612027
0.014918649231476911
0.008756343678613386
0.01439563300844633
0.005455895430677236
0.03265921125685125
0.00797867130271589
0.005518207635283285
0.00396562244232233
-0.01626749378420151
0.014888984972907842
0.006460771876269169
-0.028276811772573133
-0.06177298231534587
-0.011520619265489633
0.01563629173894608
0.07588832990800098
-0.00440713568805441
-0.02180602192370468
0.004266893789853336
0.03408989255626156
0.027011930789776827
0.01370744362715307
-0.037938390350594965
0.006835474797397086
-0.031162668954315954
-0.02475046688470916
0.004409438577867484
-0.008528907732321622
-0.0195167503807347
0.0298423316011094
0.015437357667299026
0.020332690621154382
0.011033777677646107
-0.0028864857249142257
-0.0632025179397781
-0.010351531550552526
-0.00022096969736424944
0.0020507096338653196
0.04833048003278115
-0.07482880660088265
-0.061691295899136946
-0.012160447788761615
0.016608716990991847
-0.0018893697373846084
0.007177196812764525
0.040983949665414264
0.006872151444590739
-0.0011960611752707927
0.04485607229310416
-0.0024049687219730685
-0.03624599396604285
0.025633420902987706
-0.000250384626589818
0.07643349730254252
0.07479517299281425
-0.02585489227248803
-0.004347760046699876
0.012238023326289324
-0.007038660780470449
-0.0026545439163834722
-0.006664878240063348
-0.029243929259081508
-0.03550017715061708
-0.008723034551176793
0.010620719991256727
0.02641211952583048
0.0011606416440008817
0.1333488552796059
0.08791830523917032
-0.022588667169517657
0.04144636182971296
-0.009063662267991084
-0.02753854427952592
0.00978210377482904
0.015741148694175557
-0.03258293089594242
-0.008107041138182695
0.004292450709571938
0.028754222156969548
-0.1480485326392287
-0.020693277305321195
0.010276916550272675
-0.1204120394103786
-0.16391859812286164
-0.00695208538098229
-0.02206266819038906
0.02745181356449883
0.008614413965060791
-0.040507348111456745
0.015254683449383306
0.04125205877940367
0.012806758339219813
0.04824498536132231
0.029641427244225818
-0.012988467730177183
-0.03620962395255948
0.10674524548113702
0.048445547760292494
-0.02166461791878224
0.016902280056595106
0.030396800704929373
-0.0018107585578262958
-0.04118537389663674
-0.0025139211616763964
-0.025248052894951748
0.01416880102463856
0.014607409029240778
0.02785583799485367
0.03018030711126347
-0.05492624615996291
-0.12395202993604028
0.020582268689887696
-0.0252738105270062
0.0016804024581612569
0.0035784645837190075
0.02365125838577411
-0.035788491193183565
-0.008233965524104823
-0.007973229677849854
0.07174960338771788
0.0225238754071204
-0.012845465708239462
0.006334913614510022
0.02463052187794187
0.03543427523058403
-0.013953713629344599
0.0040728529500157215
-0.009934454630437288
0.020056737835444625
0.014749302650752997
0.03466004105368249
-0.06736513877251113
-0.03385761137367456
0.003726561492178423
0.021443435021292756
0.015370130019706696
0.014689286173064132
0.005348399947654995
0.0689702769597089
0.05357149062254029
0.008035603992280121
0.04430376291918244
-0.00923849051028368
0.00817620904233016
-0.23277710488605502
-0.039117259640760925
0.02737350831226607
-0.010496742984232928
-0.009012740651373608
-0.022480421967417594
0.02258520289617273
0.034254392625715585
-0.023445542509298926
-0.018576653525510058
-0.013905692362603746
0.026586143088448005
-0.005835546879765652
-0.01853997690046074
-0.00032549085843180644
0.013532043749035275
-0.010622798275583342
0.010509804879582155
-0.020936387544231144
0.004565014342750964
0.02638499380351362
-0.016616222078983472
0.01074219861266642
0.017404045521705463
-0.007538073692414022
0.05178838607607462
-0.01151411221220442
-0.06575467289252514
-0.036187478921969544
0.07209658766958005
0.06681618630332221
0.0407231145367152
0.04414933892245692
0.011709092098326167
0.008582679672333164
-0.013715017244645814
-0.008522537286921698
-0.0219841476977849
-0.08365628818221574
0.034531791906189546
-0.04848024314200498
-0.03460174717821
0.03694649657506847
0.01482252738836715
0.05095635594229593
0.058958113827960325
0.019897025106206327
0.0012782703543535387
-0.03850786211681939
-0.00020138022106928785
-0.003962378553889375
0.019900678116496626
-0.0009437570800015782
-0.016107016355750035
0.0531571208562003
8.711389821110532e-05
-0.017865857743831006
-0.06235278461460888
-0.011305590837467168
-0.0065163149699167785
-0.021106102806779388
0.0024269931348132627
-0.025926135825938848
-0.06596090102077204
-0.009326454704026018
0.013441023894146685
-0.006620818380681022
-0.04396290299057246
0.020493091508914905
0.016269786816025762
-0.003569867495715109
0.024882438671818188
0.028352291540036188
-0.011328069029956657
-0.066526759737374
-0.0013615659787444391
0.050778614838784354
0.00980977026755406
0.008226135646526609
-0.059562056379272026
0.015528863579661116
0.14557271884076914
0.014592347355878965
-0.05738906353727797
-0.029358443956048776
-0.004058015046491824
-0.018897118829138915
0.00901745032784907
-0.016114169410604912
-0.01675891398222152
-0.024770353536355972
-0.0240860440409485
-0.005348084510710649
0.011433295245110008
0.023367575127179158
0.054946748400350576
0.02402035121373025
0.0012745818575779664
0.01751394285722373
0.022431445924363882
-0.010917359899229095
-0.02095049249949398
-0.02214076952644633
-0.014058637160546374
0.007647012618185906
-0.002906178682640934
-0.029952449885241192
0.022407184439911347
-0.05223820635053753
-0.08017635306067925
0.023223484415249067
0.019007373228293083
0.045433145211277406
0.03272564589920319
0.007681060202742504
0.026300834830765382
0.030580109408817596
-0.03029288595060622
-0.012801063768549132
-0.033151065463184325
-0.02849882934434472
-0.004593639436537822
0.13062113411219448
0.04888160046287993
-0.012001384041244175
0.030006924303830822
0.020339707307851392
-0.005777361963727088
-0.0019503374586865325
-0.02205504501784434
0.01189805374465491
-0.02427436323843241
-0.01674384481705796
0.03149218236445464
0.007777279538962022
0.003922719379647927
0.018862905934495987
-0.037517099966649266
-0.0322622604495364
0.061313978148309155
-0.0656055589667808
0.0762231533517878
0.03857855116053065
-0.018624904937729968
-0.021680023437074473
0.026882635290106496
-0.14207077265785076
-0.08731081171860718
0.011379889024220893
-0.059910302899600656
0.010228552368234249
0.00386591652861217
-0.0035219972357798932
0.006015864751773276
0.0008916205316569393
0.01857009745932328
0.0437303077452477
-0.005817079874035709
0.00795944359040865
-0.0017330324436811725
0.02952412262903685
0.0204923109936313
-0.07908680270731121
0.008211182677863707
0.08463880052812314
-0.008470988435844975
0.015060945809619246
0.03135926379606288
0.09606645641310266
-0.004122749114072134
-0.08625294001819042
-0.03605361990514727
0.046777133770830676
-0.021223540853471282
-0.008583531329711944
0.017498555544252163
-0.06832918698341667
-0.0844399927991565
0.031092387255236695
-0.14948824674072841
-0.03232625235832253
-0.03930161844071924
0.005384938339734208
0.04246768925531069
0.049726379172478956
-0.011205769007942354
-0.00950215169502114
0.016794797669566663
0.05084798692064756
-0.011469196110498079
0.05283925769514022
0.031919990193174534
0.013344558612420605
-0.035795548148901485
-0.02042479182064514
-0.07703093949510331
-0.08971080891355694
0.054467064983851975
-0.0036382332561873745
-0.04407922177907336
0.1238998991302516
0.13372220584308256
0.022999887400501982
0.03167448570978304
-0.03527984422992799
-0.022444521745653243
-0.023680914759104672
-0.002676628406430871
0.05008405469808116
0.023929278812470315
0.033040525896357205
0.0336201451370286
0.015140513255118901
0.010330242032222136
0.007757276997309359
-0.005315148409408392
0.012881462136007393
0.0006554607667288126
-0.024436236880980983
0.012642091394286195
-0.015236482225787749
-0.0176589526392762
-0.006416982331795189
-0.023278900491845587
-0.03810315350566654
0.005727790951265541
-0.005606107792989575
0.008768768755328735
0.03404674848684095
-0.00864266710718782
0.03330548389583425
-0.03009572093425837
-0.002992190668875137
-0.007340206491832656
0.00042812719006531845
-0.027080491930922015
0.0015622166036672043
-0.0145731846093191
-0.007349703138074746
0.010760085729081296
-0.005011005174278485
0.000284235838887882
-0.0015581147731632485
0.03162993998950286
-0.017303253634088203
-0.19104307714128693
-0.023265878431715094
0.04356542035696794
-0.002872096694914607
-0.01651271289728916
0.0474971063123896
0.08423938772602423
0.03714331790260936
-0.010001236130907469
0.019465424192147664
-0.015019303314489236
0.032545060009346725
-0.0002955939847265539
0.015393600373857527
-0.012296986447626817
-0.025663502146928988
0.0034330063630585105
-0.021114873581328953
-0.021756505337290368
-0.020812311332817694
-0.02351894352496925
0.008628721524141193
-0.01227253721897863
-0.01174385231943576
-0.04033452890168748
-0.0036435046154816167
-0.03256747371913631
0.04565706620175786
0.031136357082695968
-0.00867433811698446
-0.008173913146843587
0.0022205277758066406
0.017217724686551836
-0.007697195698805331
-0.026326075734729892
-0.00939581971166947
0.006146079094134884
-0.006656269831689995
0.0004839663647468282
0.0548843928659482
-0.0003903588929630795
-0.005793164157845283
0.023464833576968408
-0.028481653956301107
-0.026535450684055887
0.036740558431852616
-0.00906841685213725
0.006836340241438872
0.024119990814098255
-0.005422881378811657
-0.022337645366785498
0.011127228796882641
-0.040143026633311166
0.12527624198664325
0.14249512447250942
0.00045017593459017194
-0.028158369016415795
-0.01327135086494719
0.01847267305651578
-0.00528327039980041
-0.03551185343977531
0.009310185453651155
-0.0146874268865282
-0.015288725709637619
-0.0005973504799293591
-0.05891909358048731
0.0008758040338280272
-0.01672851339889875
0.009172728242505932
-0.010588135305484117
-0.059590888323851884
-0.026605112219785555
-0.012216610953926647
0.04055612863525111
0.00267891372995897
0.0035094392978664156
-0.047787087414977385
-0.039081952774776885
0.009226207684937765
-0.00502781884587827
0.09583488237901255
0.08120108240156426
-0.0611367356065437
0.007446535382801375
0.04632003192717909
0.021545776490249958
0.029116607286683877
0.13413427351692234
0.023170792536111016
0.041143947727262806
-0.056796787432893625
-0.08309165996516657
-0.10076057070014467
-0.04897599346669268
0.037248165317155496
0.010913985288265997
-0.0066206192565704996
-0.02910809073265931
-0.033830013788335035
-0.010099393348473039
-0.01816486518157764
-0.0018561283897998168
0.06512125209832093
-0.002551142934615508
-0.005084646903254834
-0.0033326894566313397
0.049090689349249934
-0.08320895606389768
-0.025250916286948248
0.0013728312933614089
0.01100288528902587
0.05338001464466237
0.008971894956662617
0.034257017402060864
-0.0229421227151903
-0.04263418482280961
-0.009496937905542735
0.02251400294073922
0.0021937385427403307
0.04588126417275382
0.06778382790654167
0.06185227105005605
-0.02275390248823037
0.0198569773569412
-0.07765491006553489
-0.24093579316154562
0.00231185168025252
0.007844560573579401
0.01963820050128741
-0.010905440865586544
0.045832733257625595
0.032991064864622145
0.02850198301426326
0.03152389731481531
0.03810523275685473
-0.07954097727169414
-0.031045356492443492
0.021824492012440567
0.013862052447921224
-0.00037877370346003653
-0.06179937185165602
-0.014499767481479572
-0.06490985802902884
-0.02838355113240813
0.01558517479482142
-0.08049796155107676
0.02309851665802719
0.047078955505416464
0.03400568113485938
0.025569980461716393
0.0264226387728914
0.004034363897868893
0.006455092789064033
-0.04811446986259462
0.030102550859973334
0.14215264120975593
-0.007319636449166935
-0.009905249954325969
-0.011170793724414983
0.010326681332720055
-0.010419903957657585
-0.003348519102889175
-0.0076762875140331446
-0.004310658440050321
-0.01026678633094556
0.011244288578174656
-0.011994358568704691
0.0005827892290056871
0.010993630281618608
-0.0027356556370188986
-0.010682478901070972
-0.024852928800625743
-0.008464975873564234
0.007361606250192401
0.013973057525821592
0.020754506247163733
0.009173806131191982
0.06802414242986721
0.013408289439010295
-0.012772229031193233
-0.05707889371749324
-0.014533639336290944
-0.01105127481885751
0.03475728248711711
0.013103290351073686
6.399414186443089e-05
-0.01410000618884111
-0.005276132163483278
-0.026196069001416484
0.007247775551268114
0.07950844256392797
0.02676424090664286
0.011272963870051616
-0.03807359867341912
-0.02635636622424129
-0.009834978992261482
-0.011777520179383156
-0.0030292063654162827
0.014286722523801991
0.07939854157002404
-0.11247668770018732
-0.10813590228515552
0.026913365450909575
-0.04426705858065104
0.06280991037054356
0.03515786305177325
0.033609752904981825
0.031169900467861476
-0.015872698339597997
0.008463801851941906
0.01084929332460626
0.00011025127932380882
0.01091955358337821
-0.06950310029660907
-0.031102275321492165
-0.00823964128996337
-0.023098425778137057
-0.0015648425882605732
-0.05304809431452218
0.027004322629485614
-0.026534710971172087
0.024705595827621985
0.012086535331294659
-0.013694505165310226
-0.0101053599844882
-0.012631444056980154
-0.020541131137138194
0.024420525756486556
0.01363631515605211
0.06466609450946849
0.17593812732218292
-0.020312768381361965
-0.038446936428632617
0.026089624830534217
0.03415119449062231
0.021755341731798824
-0.00384932633958986
-0.004943651346903644
-0.01959915110823903
-0.003106750058789264
-0.019735479766316698
-0.02025398982387495
-0.02321736926037539
-0.018953363229817315
-0.004830837188762911
0.0004680890599580738
-0.023734993170069656
-0.007485247937652727
-0.015569147307735237
-0.014695154924453401
0.031797895315308876
-0.01962251796558716
0.012404379978775464
-0.020295515584076815
-0.007119139992611424
-0.010725788557805342
-0.015695104643330782
-0.0426689876640738
0.004436234183062635
0.03619606445990778
0.045913351906317845
0.031116635667884248
0.013661099331555356
-0.0010570285933849577
0.0032122196809200227
-0.02061464704853679
0.00833698628789859
-0.008242167554027792
0.006562031175011145
0.01131512328397164
-0.0259609103355617
-0.00037699952911545646
-0.011890713156686312
-0.009291617530228818
-0.00539282885536922
-0.00810342613394895
0.017972865303241218
-0.015530282844055564
0.0659604036660071
0.028802363020002802
-0.012442815805271174
0.010576523033852325
-0.02274946503863729
-0.017654259586293596
-0.010761288741510956
0.002835922505406648
-0.005717593762300643
0.04034547550055788
0.08076349491635844
0.03816713531117557
-0.0173423568623592
0.020680751523813087
-0.0845960741779235
-0.02871274531168498
-0.04253612807831297
-0.1939568054595308
0.02278111571793095
0.01500689084671778
-0.014875071753015879
0.01704817159883047
0.024219507452972085
0.04618103241252568
-0.08955336259597399
-0.0666848395662219
0.05531210458525979
0.01623536835258128
0.030835848673979583
-0.043617503066762875
-0.04841040552089394
0.018261210748876006
-0.0207998830645006
-0.0034351002294833828
0.01494608302548243
0.04719222765754113
0.18274228516401883
-0.014970665046574677
0.010886411344451107
0.013751226257663073
-0.015332004448296174
0.01519306083551874
0.0076192051030650266
-0.02885736659794003
0.020315377568037005
0.03609748757501409
-0.02009190043793033
-0.01403312610421968
0.0067863101054004595
-0.014212375674272686
0.04680976117455695
0.08523225459839544
-0.01549606339870367
0.029695889109755416
-0.01878968855189645
-0.01980063536219532
0.028039376286760318
0.005279989924407169
-0.04242001718326374
-0.008763944107299429
-0.0022655742547842313
0.010683125185773407
-0.006922144262394461
0.008836056172404835
0.03979416302837123
0.022656865988404894
0.024375048608294213
-0.04353419049939031
-0.06587597891280522
0.05037001951049066
-0.016738877633070404
-0.016316311279576622
-0.08717697558364583
-0.19621965679071962
0.011071779623765113
0.008088612346232194
0.05436937182331339
0.037155894502004586
-0.06345963400520065
-0.050371740884924715
-0.020447251577291544
-0.045190919856667525
-0.03652136497478563
0.019074505299464552
0.00025702699485345904
-0.013864479493950413
0.0028543383155476163
-0.011549285387207989
0.009947407393013011
-0.028390398790246556
0.03073914894128124
0.12874527373411976
-0.005726454277345714
-0.001021229634989842
0.007779322760060609
0.03322157417085964
0.0730745429940684
0.03391534070267144
0.00023854265599843763
-0.001091990614778821
0.011590794623398147
-0.004779408753897412
-0.010306635814852295
-0.0149783748506159
-0.021859509300248006
0.0020468758095776927
-0.003656008620227494
0.005626759960748828
0.01637150041422919
0.004790144593683182
0.017764025331828585
0.055562166676204734
0.0065817209677375465
0.009326958386131387
-0.013391458139697415
-0.008659616979771708
4.393120406704656e-05
0.015104332910889143
-0.011976710396850464
-0.0027025391078484094
-0.025686631971859296
-0.0227577854287014
0.008271672521244689
0.008998720996303252
-0.0161986524108937
-0.003675049329112429
-0.02350892603942945
0.02114010957651978
0.03245577032536105
-0.010110325734678972
0.019966731637390073
-0.008396973342525227
0.009731658955488472
-0.0032969162961292192
0.02754930655297023
0.11295631087469189
0.011160529178366577
-0.027768654036850093
-0.013923990243273114
0.018743172651324396
-0.07688934161276034
-0.10786646618596497
0.04359474447438214
-0.03316990429707556
0.0037074718320878903
-0.01583890343677967
-0.005762085306614317
-0.004398126240512961
-0.05846620167110407
0.016090864659506716
0.029901787306155746
0.030718727198388404
-0.020946187664741517
0.04010557484830805
0.018088626219486384
-0.0008827314330784225
0.004972882172371221
-0.018381385438942764
-0.005094058186662314
-0.0003642878584406694
-0.0057779201726156455
-0.0024285520500725776
-0.04180320880885739
-0.021744753356882588
-0.07922675384616469
0.004699553029294325
-0.003832876709707257
0.03113193319333228
0.027496452250945814
0.02823006312993796
0.02274662272652642
0.00553647728869377
-0.027460914725314353
-0.0385563678325441
0.01296451671885097
0.01739280510664527
-0.0031801935483904567
0.040176747687116904
-0.02112741928581365
-0.010501562465122766
-0.018935839048488827
-0.05196108709712254
0.009425478134466092
0.0642804079770664
0.0006159599193113085
-0.010295673881277194
-0.013605203569642827
0.0018549690049072486
0.011424303387102179
-0.026929930849555406
-0.018344543517381642
0.009233211690442354
0.005509112190535159
0.05682431339436151
0.015070667616473058
-0.06621038295633966
0.029654951810897612
0.01873570224885118
-0.05234543107195801
-0.062392042716004265
-0.013745668661655844
-0.03520795451109896
-0.04572636138091436
0.09094264862973307
0.019706311182833783
0.042969361505701825
0.11595920921097333
0.014431747783078019
-0.017501934184588425
0.01830706178848956
-0.0599312790103366
0.007917559812443322
0.014370712356815562
-0.008929054394231585
-0.027253713543096827
0.09320535608706652
0.030927121075087497
-0.061164510876268806
-0.01272498586746307
0.06500989844476215
0.05348616059252347
-0.03054073089968976
-0.007341961193890922
-0.0570623453646491
-0.03838752628776847
0.051169429717164074
0.06154635897160215
-0.037308350728704635
0.04117570107303883
-0.03150692763698074
-0.015489771662294106
-0.016740292571021186
0.014340293385432048
-0.061111852184961506
-0.12091866941324247
0.13110428669861082
0.006860297840385021
-0.02550649362078912
0.018795024682817324
-0.023944447402081404
0.015444188396195697
-0.008080909018053755
-0.02678460092332056
-0.03195376351121748
0.025098372940267635
-0.02202225020520642
0.013593483586701139
0.021575454188148047
0.03144688386791403
0.009203629671310293
-0.05467403493246866
-0.032589148305858816
0.06948242856440694
0.037678579896850035
-0.01195966266034884
-0.004391237858191516
-0.02307752669078454
-0.010957366666153021
-0.011442750906916654
-0.03352418374829699
-0.00540993521344506
-0.0005139430361202339
-0.04546175629217934
-0.005606037896144501
0.003156952377534919
-0.004436227204895257
-0.0013534006955095437
0.013925996715997552
0.02886426824213827
-0.016257569524777544
-0.009751684213886119
-0.0032772162410298123
0.027243883617662695
0.03967107600219755
0.009059165613059876
-0.004375871262716711
0.006755902866782974
0.005602752640801698
0.012606326094590604
0.018021762445515444
0.0009353101773134977
0.022185709882907176
-0.006812768565012275
-0.012337063509325225
0.005416784609276729
-0.006477266274941944
0.011516613455873582
-0.007046722454341787
-0.026641689293028074
0.02206120126569177
0.009866877851620525
-0.0016825034834768284
0.009547780456206384
-0.05246446388580773
-0.011442531055389516
-0.05350310742233231
-0.0019698084102927156
-0.02679055375541177
-0.021560147718176145
-0.02840150344444297
-0.0008292663967850685
0.062171162756591174
0.10548300271598143
0.11036279178154929
0.0011982765905682472
0.02158015251781068
0.008394372041250082
0.00184592675494645
-0.008111025851181324
0.014369920267573569
-0.013686491140480019
0.0008623504535112004
2.0755364087884956e-06
0.0006519683001531471
0.011954700353410404
0.021276635315726267
-0.11121930458418837
-0.13477036916318216
0.03147246620304126
0.0008331190648130576
0.0019843239207555977
-0.005352969440169798
0.016639988185123702
-0.017480185155418028
0.03498962006383843
0.038898442245742126
0.006497116795180579
-0.11845846504972489
0.019730064191602573
0.058294660755306794
0.02975463876257118
0.012570238358191262
-0.02602173494613317
-0.0015711523665296854
0.04142436593264279
-0.009685723809342775
-0.0008071784859166879
-0.03181843501159052
-0.011175862461371693
-0.0042349039873193165
0.04628566550709701
-0.021377141024744067
0.05431389385834605
0.02159779116064497
-0.15534932518581623
0.007132833971230936
0.007083531443738916
0.00809156581593574
0.014061972911225807
-0.022081992498264022
-0.009436185388044164
0.03064771343514809
-0.010008057082776337
-0.02756601174007822
0.011098469880471524
-0.0036256687061485076
-0.04976768065207062
0.006215328757226985
0.0011545452981450235
4.999024583352077e-05
-0.04295537719201485
0.0025207663412697514
0.007684072677772211
-0.048396525344373956
0.02765505674507762
-0.06153436573008332
-0.01241860186405124
0.01871498004054309
0.014678169102721822
0.026163191087721333
0.03154205668484206
0.03771227827257345
-0.01724507963224729
0.025511240180043665
-0.005796650676024658
-0.017441647451072875
0.024630194452195366
0.021911382811343364
0.014181946881946655
-0.0060352507735252905
0.0004791025339662217
-0.04072981054054083
-0.01184051721390009
0.011238051700770598
0.038954232188253196
0.002389359099013945
0.07096247111508107
0.06557371064272682
0.007282956123092314
-0.002924152495246922
0.019840425419035596
0.04402607048003887
0.0056825960746798585
-0.017319288303152405
-0.04672737485188582
-0.01829445098031591
-0.02291769037982615
0.010296654103956906
0.040123542040965736
-0.012359134401540052
-0.055817508495802734
-0.04286235267268455
0.013276901535379004
-0.03030903373727224
0.0012530033075755077
0.01408803977131821
-0.04913850295379388
-0.012338760452823705
0.04313060383251127
-0.02121720105517819
