0
-0.015647373550518536
0.03135787153189113
-0.09023570070212228
-0.027660229146368127
-0.03006776585373731
-0.05465936686506519
0.01394143924173961
0.04710075525806784
0.046575486834918495
0.04946555523287262
0.0036316542329562634
0.021180309219279807
0.07127072055034502
-0.005687653431042092
-0.025955057539509985
-0.006782998808145209
-0.07198630945358928
0.01190157273388357
0.05334131774832739
0.04366049137270492
0.025875237183628774
-0.025751579389993087
0.014338196942973315
0.07074679510417461
-0.055236863358285884
-0.0044399575125123585
0.010995681698005135
-0.03010939214514618
0.014313662552928992
0.021277674336047995
0.02018933777682354
-0.03694025791613354
0.03525770844259938
0.015243315150686504
0.015941018444512033
0.0002506599631648896
-0.04277067305108174
0.09344947407966227
0.012425364708547855
-0.024686119046441597
0.008218323495646574
-0.01817051453125391
0.0047708507456527775
-0.015414966159023605
0.012903772751720327
-0.00543151536010138
0.001928197265253022
-0.01079371486647711
-0.026421348740749466
0.01967856394051554
-0.017584847635179927
-0.021460817440300182
-0.031650023994305464
-0.007530757374002068
-0.0015337197212496175
-0.002845092291881349
0.028985626250025515
0.009449160590729746
-0.04375661404902389
-0.13887305180731271
-0.023776068613111722
-0.01837703461447592
-0.002284266216993669
0.021939040485536947
0.16321674701960745
0.019439155267749426
0.024079287917961538
0.025546762059353644
0.007039905292705838
-0.005579979022511101
-0.03419929060980493
-0.015632497488154592
0.023597874504542156
-9.67657762158023e-07
-0.018329065528068
-0.020742376339192622
0.017551090499576667
0.07592468305976645
-0.012467319799229297
-0.0315560684365883
-0.038304480277454964
-0.013883266509360555
-0.019227124807913453
0.006298238839281678
-0.06590615961744849
-0.0280229111598563
0.012855756291970373
0.006994784465033733
-0.01403052576714825
0.05566895551995154
0.15834663651280761
-0.039476651167713664
0.037141943399342965
-0.014318293266398866
-0.04289713645238005
-0.022861154628208983
-0.04991827268400835
-0.01614267483591369
0.06664840923304692
-0.008908679225088624
-0.02087166025859502
0.04450067955058569
-0.013723700385369771
-0.021679692251886075
0.008068812258329236
-0.0043447542911247096
0.011204469501882622
0.00224982303524874
0.00612491265117926
-0.042168559232813804
-0.004987423428840344
-0.03654068432528093
-0.010619703230954312
0.025499084612265785
0.016349316341009612
0.021776467793338302
-0.010625971650370599
-0.01727644330842456
-0.005005239737286866
-0.016871206305978204
-0.00282842475113593
0.0009482838161127469
0.018374802591996007
0.031273572611507025
-0.009480867466446309
-0.050825780954914586
-0.0473844330139119
0.046550772124903626
0.029987123422784364
0.04258879125441053
0.01979601163004148
-0.00914632168910648
-0.007461386768461278
0.02553602310364524
0.02454997775189777
0.019105737148581867
0.006940739235184452
-0.027289408443338922
0.0005174751914770868
0.018423832656451988
0.010114340424728412
-0.007377144293446899
-0.04837657936124354
-0.03269040187096605
0.01763697622496111
-0.025620147448821122
-0.020939024591621728
-0.060272597793585375
-0.04237562819462741
0.0205936299265535
-0.016754844840950793
0.07431284115492102
0.07534894620005979
-0.030959268703260007
0.0027445129582170783
-0.09299567612347978
-0.01594518871253478
-0.010878584954020096
0.03402887478934863
0.013517390921664872
0.0030391164718446147
0.026184859048055623
-0.044103657333716885
-0.057266708885370866
-0.00486335970885613
-0.02705079932584859
0.02650470072199133
0.06399202315053486
-0.005532939041967978
-0.015679581510264228
-0.009045035455469808
0.019022868773712353
-0.020007443935006575
-0.014413710133905978
-0.02766983906970742
0.05190675000544911
0.23831516310786763
0.08471156559369565
-0.04794804173560093
0.01607006807986148
-0.008212514737137135
-0.005435854887887703
-0.028435572096324208
-0.010173012194867506
-0.0002826278246131284
-0.03440126176020343
-0.03104908009630479
0.019153816164919946
0.013251050332414915
-0.01752658002920138
-0.021588174434626857
-0.01974884781089459
-0.001549354612500215
-0.018236703293129174
0.010597242599054391
-0.002595282443480109
0.14765597141625808
0.007197522478228804
-0.00672472352770148
0.02157966163450342
-0.015811529516576803
-0.010531819582772651
-0.045313425522082305
-0.013566147642130955
0.03046274446579666
-0.012377571680233942
-0.016147696361711084
-0.10541686383786698
-0.17239162605303615
0.016171435075935246
-0.01936197394305898
-0.0171349717499517
-0.04641505392744781
-0.018157595973200095
-0.031377566834896786
0.059084792189788515
0.027859180910331467
-0.012349833777273563
0.05847226646244362
0.012355141734049802
-0.001969483191462614
0.04087763592643463
0.02068288981705244
8.309820025985007e-05
-0.020464974674966958
-0.0029050621884309344
-0.008193067980709085
0.03095876927021917
0.05106540704201166
0.013389620981739405
-0.016647864525372025
0.033554978389187216
0.1499598842693639
-0.004430873622663765
-0.002611798397617695
-0.019885466093106645
-0.026333783332448395
0.012560242638612771
-0.0002968221958971911
-0.018420501276978616
-0.0019688504813602462
0.007365838942996101
0.03337160095415612
0.0016508668093568925
-0.0015269495963895438
0.013848802254571552
-0.007190334608957666
-9.960414580719163e-05
-0.0064520209772240215
-0.010687775370464777
0.00027581749442553706
-0.018928000082623665
-0.006047360195804522
0.05186759172416597
-0.06722183581115102
-0.07077888587898055
0.03992541128067604
-0.03019473600074061
-0.17473253672268388
-0.030020764762078874
-0.0038449475187873963
-0.03669897148694923
-0.026242235587188755
7.504434441115671e-06
0.004185528615560903
0.009728535166575422
-0.031457438950009
0.002312390867202032
-0.002247933362194527
-0.021240525498054774
0.015427142001927118
-0.003708441052738956
0.05722379852634233
-0.01354027600915025
0.0879658833819835
0.07058539401593342
0.11651373339607381
0.18583365273751
-0.02469948703671039
0.00037199074797297506
-0.00471258848540675
-0.00925427436397361
-0.04860486012129553
-0.03267028034411173
-0.015723782825722767
-0.03761953032451306
-0.010666247847950009
-0.004088996189604772
-0.04381860951461328
0.04250378767351588
0.1838951840092045
0.003942827629929075
0.008180715965744888
-0.011906711616024182
-0.023676959810250545
-0.15947614659832293
-0.015453684922757296
0.03999487628518447
-0.036884786727491535
-0.008289400842954618
-0.004577353099145227
0.03664981834284941
-0.010557115517374057
-0.036124390711400126
0.02028290894305389
0.013129952578898506
-0.0011155683422288114
0.015373696407247724
0.020637112286408122
0.010488417864992057
-0.013954893127167274
-0.004713039543926695
-0.007781347967960656
-0.026507759330081964
-0.02111763873825285
-0.06754775964014892
-0.025632363583145173
-0.0106021777384858
-0.04148295315398472
0.0014095101525140815
0.04236327004374591
0.006532758761049516
-0.023385396619309325
-0.0028815075360000145
-0.015270717701657303
0.03115351212690316
0.14106547197350144
-0.008427571025829184
-0.0218489441837005
0.030542948236462385
-0.025686255590175067
-0.01780428443896843
-0.0449726028027407
0.02968853260689595
-0.010312298609711676
-0.002306340248771031
0.02181958938138314
-0.029392980568175343
-0.018169999429599196
0.01796293320953853
-0.0066821078520960964
-0.007235515999429424
-0.02832369159960266
-0.011473787277299972
0.009836938676864367
0.01298753987094609
0.006104025494610966
-0.011484996588700353
0.013520560598354225
-0.0026066278374376017
-0.012380538838621323
-0.018809934154105565
0.029317353775044762
0.046339593469354706
-0.05352135365144004
-0.006694355508476093
0.03768831499931885
-0.03611111081957509
-0.011277144517263249
-0.007877744890967514
0.010180759011451948
-0.01809377061845938
0.042680375792066835
-0.011814684256391468
-0.0028623939633023424
-0.020688448511377147
0.018643568933827792
-0.0636329269416896
0.09791908149028167
0.25511410524819966
-0.0718300031431476
0.025432029588745474
-0.0238170166518889
0.009399223833600815
-0.01676987541173728
0.013420916304674175
-0.014040940012184677
0.03514755096697272
0.021262826826969262
-0.03120344763330976
-0.025432752001922833
-0.01514626072571995
-0.0001444982666527275
-0.031625663375373037
0.0038939650030676426
-0.03187068547585014
0.021155989239052177
0.022738445839531655
-0.019207175220661416
0.005650085193365089
-0.01467302964561766
-0.031222710480763735
-0.040225211638343326
0.037661161207928964
0.0002493079522895783
-0.10187814130951903
-0.012151034625892936
-0.0007113153946704014
-0.019277053981037153
0.011142811843147027
0.020462133373429454
0.01762769179141114
-0.006856597818556773
-0.01766399787862039
0.0010569009246258847
0.001169971747004405
0.00048382684520318915
0.012529233377043703
0.03512048404929146
0.015342262918635986
0.044647773620955275
0.02537354720637271
-0.02090638572130427
-0.004551479069088463
-0.01836873266214314
6.591135984184412e-05
-0.03547359974474537
0.0025589632628622997
-0.026675837474860548
-0.022279213032264183
0.0012481171658556046
-0.02875319035668741
0.007814351313274374
0.02414073607868575
-0.021315800340766893
0.0010941310729762597
-0.013255000774923661
0.011491551197614242
-0.031700111561308336
0.04537479361533402
-0.03584868834266363
0.028474671345735017
0.024581530168437556
-0.017465248475614707
0.011446309484682973
-0.022988564933233435
0.0072139237147906725
0.08614546220161001
-0.012542123221802584
-0.021213056517061842
0.03688381882025712
-0.009346640966882803
0.021062515008805384
0.02992628528182529
-0.00017622680881820211
0.02384236822058106
0.014840628457218626
-0.04457359862795635
-0.036970070379592074
-0.007453321063307339
-0.016790620267016918
-0.01897323171366391
0.012465115919886135
-0.13324498104190696
0.006993996429051393
0.030262168835187057
0.035344893754106224
0.012256590680886262
0.05095702588666481
0.012279644891577521
-0.01911175055051874
-0.0019636005002149266
0.0073244075987292205
0.017276457249588414
0.017336936410614272
0.016656031653366394
0.029040374864265514
0.008146468017945196
-0.0074508337359095725
0.04890488370583932
-0.0604899860943313
-0.05790856289231322
0.058415704442858804
-0.006339555536719328
0.04724342734183632
0.03312780607339198
0.02661297493289364
0.0032832761163585147
-5.117353642526934e-06
-0.0405265326779045
-0.015211501655809189
-0.017437025013348657
0.009879617566364763
-0.16881204233577612
-0.0675386777649568
0.03349723264603244
0.0061439643142405815
-0.0016573116967233208
-0.02100808193079092
-0.02290144345469029
-0.009685474122930585
0.03685309776374224
0.030213645806084204
0.030440795759269203
-0.023526091452399128
-0.03172273202792453
-0.010089400210523002
-0.009101408689983919
-0.012716459014568722
-0.017814369855281943
-0.005640290894616968
0.0194968798045337
-0.0007674692551928584
0.001177170179444146
-0.012182007681674522
0.060806519517878424
0.13137822973368152
-0.016068620201324928
-0.0007596098048287166
0.0005842576878576679
0.00993939251961494
-0.008359425776688212
0.010307988487719466
-0.010322489895784772
-0.015947639673944605
0.056963023986986036
0.10538730430597305
-0.046091323221608374
0.01494370601056297
-0.018117118910325563
-0.025453571373017993
-0.024367262371327275
-0.016373892589832125
-0.025835073478752198
-0.014023040336556875
0.017665360375908164
0.011911092492723346
-0.0261970404085912
0.019531759360981633
-0.022432753301273693
0.017981965701658033
-0.004218033193265752
-0.024819266183535305
-0.01316221759493697
0.08185841328049408
0.07947178278656175
0.007858331731868526
-0.05622412797935566
-0.029821504327725564
0.021753760596361728
-0.0020130734774956626
-0.11760357801636538
-0.04060925699553984
0.016123498752438035
-0.030186052959435102
-0.0020475640077237717
-0.01561817902254929
-0.006914949675416099
-0.021481845472383763
0.035119187788901454
0.012488622308230621
-0.03260111959478009
-0.007150523390136372
0.014188792310216518
-0.0030658448519435056
-0.030482788327331853
0.08010654651434748
0.07236201341057506
-0.014681456375493089
0.030803099611938806
0.020713644582701193
-0.008407711330993333
0.016934672001356486
-0.0039062365163731404
0.016738417438367518
-0.010993277128788679
-0.018125471018074935
-0.03694157496088183
0.04821916373757686
0.06403264931671415
-0.039927214654171664
-0.0008722952393459008
-0.042836206021467864
-0.037454700849357855
-0.048422707496957484
0.011744231974740725
-0.006255427113565413
0.02711912900134859
0.05952197845479938
-0.02330202417375322
-0.01783929042064221
-0.02109429774433599
-0.01857238775683089
0.010981361121832699
-0.016166982289848912
0.0020172389022274115
-0.017180179783665456
0.004303447475495174
0.037950762708003516
0.01445477507379429
-0.024656027589557213
0.023841256618350046
-0.015611506419378996
-0.027065983504729864
0.00978651322277626
0.028014960649657313
0.028530744837888217
0.06022325430857877
0.018167815902596935
0.006138181459564198
0.03758974647919202
-0.014823107510383739
-0.0035077787714608757
-0.037388506548306374
-0.02339627937488538
-0.03489185390040332
0.0007016535327757867
-0.040246689354205945
-0.06814077575218627
-0.020246040673478505
-0.047877960912619144
0.020293140588311474
0.014234879973222514
-0.001459834545494598
0.031195721293875996
0.027519679589599846
-0.013446112476781423
0.025356317054827156
0.06651228690919006
-0.041786718944174836
-0.03169644100989379
-0.01859779239754018
-0.014933900001070423
0.02794160374052384
0.027587174578989886
-0.04030558013645337
-0.008493515353330698
0.019104682835941272
-0.014891636463781171
0.007967390055164636
0.010482053836043831
-0.0125939209339547
-0.03224126054452039
-0.06706383024930497
-0.04202783629506954
-0.033052583412762064
-0.04131993444487994
0.10542684175907509
0.12650798417118655
-0.06697304896076263
0.00716396881463428
0.04462066188419671
0.025575805422604167
0.012086965756741362
-0.016260079840652635
-0.07912989503921825
0.15780868442018028
0.10187403582826637
0.02013999034000969
0.024540676134914573
-0.04412470869932997
0.03849563199526312
0.010193051152169563
-0.027048175330796592
-0.030684249863456234
-0.037247226659932124
-0.016451291191941844
-0.015743588397479438
-0.027264782865782544
0.0415281305607067
-0.03871926104910672
-0.0016184605471936603
0.022293577330113105
0.015546267805272894
-0.013160712319315695
0.044553560841932634
-0.04149205953971315
0.0619189010795214
0.11156891476987814
-0.04039311714021434
-0.07934175094311491
-0.03978610984500468
-0.0001108973527507093
-0.08281242409179979
0.02364877048519639
0.02335738461568844
0.011512203409029734
0.0016436479038538978
-0.01973953684776572
0.004788943895533533
0.02278065019628995
-0.028565265961086172
-0.003936134143617007
0.01867566052257712
-0.06442369768299772
-0.05160688073606948
-0.0020191953434468553
-0.0395581327426286
-0.018302780712040872
-0.042706516613469706
0.058713060204969
0.07207897164901535
-0.0022663745957401953
0.051324711159721335
0.03429070444695292
-0.01984513523466706
0.006509113328643123
-0.020362275703710592
-0.049542041875893866
-0.029838419865675835
-0.020467468719441287
-0.0057764838677349046
0.01315862739900803
-0.0072745758502396046
-0.05425203899724956
-0.0293935954675473
-0.0002647333917558346
0.009926735912018824
-0.01951865900967727
0.036945195986558405
0.16483303138092514
0.12326056856043949
-0.026190051350075315
0.0005304238154023009
0.016655403521377263
0.004302169663095849
-0.12665780231768126
-0.014164184327115073
-0.06516785008700712
0.08173423509513145
0.17110073369323214
-0.039130125198678166
-0.01895054608864676
-0.026143271996399903
-0.036416228650880574
-0.02010221651782371
-0.011109011073296865
-0.02273934182459522
-0.022820254169246275
-0.021563110270048886
0.017924827706089084
0.007385370971447105
0.001731737525898362
0.029156043129100643
0.021674114743827005
0.00630432409535248
0.011957326968004259
0.02699348724102754
-0.013534577617455332
-0.014784405564466793
-0.015202804963849958
-0.0028984093889220584
-0.013747161769988392
-0.027586499305461788
0.001200186448973085
-0.030834358076285324
-0.02522231921484879
0.012428494755090072
0.014794110528073015
-0.02281209524455729
0.015452553309970415
-0.018043959636808486
0.013949210310302702
-0.06955687224964266
-0.012069306564954436
0.0032632036381433855
0.003676629470792225
0.005204168116144743
-0.0036966172326676192
0.04455068447570954
0.006982066523972033
0.011793593668626265
-0.008751770808724059
-0.05724864261105616
-0.01763603106769187
-0.022948183750544648
0.002052110627596556
0.1533681968362738
-0.014846469123087392
0.0016224358917553059
0.03292283951442665
0.0070426772661033275
-0.047020188330409295
0.032784967688158126
0.03854339027248116
-0.013377312376675296
-0.019180131211410514
0.010954593513653209
-0.019502356765323407
0.01900520392457635
0.019716214664959143
-0.0019295246342347647
-0.02003631040297078
0.0014522619407746806
-0.012966391322063966
-0.0036962400633615885
-0.00015835378438533738
0.010736603569974789
-0.01747871126068429
-0.00886634715648781
-0.0050793719559547295
0.010667350258785045
0.024032571975856617
-0.010759582564555331
-0.018770438167780037
-0.012562907115409108
-0.0005453299571622025
-0.005701917744275113
0.0509740387889104
0.046266850847350535
0.014446381488289908
-0.03262100115115558
-0.004645288662574967
0.005726700233704492
0.0025956728630125783
0.028518325309034247
0.03610896780369567
-0.021678216949465954
-0.13598466561636904
-0.014651254095082037
0.004258181773260811
0.019973037398229577
-0.0030150972004836245
-0.009030070156214728
0.014641497821883028
0.013304101131267971
0.018846015608917566
0.012284976054106205
0.00271364273919621
0.030428739547578576
9.591695009142339e-05
0.033456016155784515
-0.017374967452345902
0.003165164480811989
0.0008922329249957376
-0.008885958836020601
0.031079742383069858
-0.015416079959641905
0.02132573613901543
-0.0057266535577179135
0.05536795198970055
0.04331201937836088
-0.06982946671270977
-0.09470738244835489
-0.009115382382247864
-0.07924932813063239
-0.00961932570077972
-0.022750903838225648
0.009551679375065932
0.05316097193176954
-0.010810732069083697
0.011923025446385774
-0.007165250866253734
-0.048012771081693925
0.013292265556374009
0.0018563709247556605
-0.0016554522508551504
0.005880137288613544
0.03169927661860306
-0.008893985527670671
0.0018134038995606698
0.053694059443104056
0.009440789787949605
-0.034115842736959515
-0.023185370374721636
0.022025373294384358
-0.0018750240216213261
-0.01599394407644331
0.028510790981348323
0.03407438860725253
-0.0031516105254853
0.015604808303273893
0.006473497089364009
-0.028167114497969686
-0.025949622798917257
-5.1853996903433033e-05
-0.041182143598193055
0.012653266930424031
0.030577868799413505
0.037314050474343975
-0.03453402391383655
-0.009903755764349825
-0.16666429661566395
-0.04439750806346679
0.03989353613666569
0.008392552458080724
0.007405158992713542
0.03143891706939981
0.053917608905656146
-0.0022297387136782053
-0.023141381370713737
-0.02577555097818322
-0.0016707476476507063
0.035878850846504544
0.048705098634745335
-0.05547628066304652
-0.001955475380420854
0.010632768350627514
0.00827172779937228
0.0038647726332482206
-0.0021376502653044998
-0.06471021402574365
0.02848116989636792
0.11450830342692941
-0.034644677172505106
-0.004885738367067934
0.017342472811083157
-0.0014726028423715117
0.009121069424056018
-0.013404693440159899
-0.022689037134885248
0.009895988809862559
0.05236583209015556
-0.025033705813558797
-0.019478312300003568
0.0005944978039810982
0.027362512041586406
-0.006793074460943016
-0.03937930528919835
0.04123275860685163
0.03631762311210495
-0.007682853227500579
0.00022560105426929278
-0.030515808885830695
0.05936847457201584
0.13725323286113253
-0.025911049850104804
0.0034814022710885364
-0.031115252405222785
0.01877488362781707
0.006149640445415788
-0.002007929836297941
0.025691294618623812
-0.00479313309511016
0.006604773345089333
-0.015547936283368237
-0.04729189591262144
0.011421014611646487
-0.036949109249362455
-0.03444552261806881
0.04027550633494638
0.009515379782197363
-0.03088087570451644
0.012009809908244198
0.005463198438791425
-0.013512830289231536
-0.005409939536927485
-0.013996795858587176
-0.022141814128597056
0.002284229077275963
-0.033982630415690704
-0.04367486597580097
-0.011964157640652614
-0.0216919750672571
0.023812050469492266
-0.08537619879581368
-0.026144076513853996
0.0017031275724897724
0.01989083077783135
0.02762205020422602
0.01160228913025773
0.00028438349222922323
-0.012284885634155203
0.061056233234018556
-0.010145964277746958
-0.0016647608815769726
0.0050931412512844445
0.002420366634270288
-0.003257691035923448
0.003520214902078906
0.008655155002127903
0.03633519504654718
-0.005515790034489512
-0.0009308720207940616
0.008925784760576249
-0.0312463784755385
0.02744822821893194
0.016587148610147675
-0.050239096102047444
0.0027106623572684496
0.006851362911699348
-0.010672735669736482
-0.051424301958451775
0.027358490741727557
-0.044300701830795736
-0.02936723344632372
0.04665547653123448
0.020286661095534782
0.00656790298481319
-0.013754598973532104
0.004224900059608287
0.04404615155918365
0.04207245967639426
0.022199342541323844
0.005623489037855906
0.0027659657517971315
-0.057559741017129185
-0.00944304455168483
-0.01580532697419335
0.0677187855043139
0.0828231120975325
-0.09404621925928269
0.011676169025905342
-0.0037597240209010937
-0.0009673558650104616
-0.01102943693050079
0.0006404367441985819
-0.01341215839431475
0.00041353184270723453
0.008153669510338232
0.0052251958702096936
0.01903741828861057
0.029408734329966234
-0.00627714892121566
0.0030569607903480913
-0.02483063713697331
0.012834805840868001
0.013757101985055606
0.004564545147701559
-0.010817960661861224
0.025914032415324622
0.033047258254134675
-0.003721606465264621
-0.024051218819783667
0.028678269785017703
0.00948656494813765
-0.06024909868739894
0.003173895953784467
-0.011260497636779368
-0.002942778680205695
0.018959372925091388
-0.006365255406539267
-0.032459280053592054
-0.0650686027599085
-0.002615583021821864
0.05210518746105055
0.0007953404614379736
-0.00010447720280020143
0.007011449027275185
-0.024470535055219674
-0.05406615668895874
-0.0182780921789575
-0.0012427701563560726
-0.03639361807724996
-0.00572915363201207
-0.002214208166237407
0.018639924022812032
0.004009873540771739
0.0025173082681379626
0.04808909679713247
0.06578217862119175
0.011202988492983994
0.04638346477858637
0.02511747899482143
-0.005277260548631678
0.008842838338965483
0.0056244260097519875
0.007223121250276118
-0.0053541539985554
-0.042380650864398864
0.009163174489893507
0.04586156205691036
0.032170554181291555
-0.01585825585702536
0.008837268254928584
0.021004957540536034
-0.011911711895495882
-0.003463692870718371
-0.15589697854213058
-0.036064407244140215
0.033508883128099895
-0.02379941793146779
-0.051084582663805465
0.0026975958953437632
0.02892947229784565
0.017767717569233624
0.015072161149472562
-0.049152447863399805
-0.04513337081916383
-0.04752612157563148
0.0021368208711513388
-0.008742009430408319
-0.03956142503050023
0.07262890841446114
-0.029070523715312102
0.009836087045641654
0.040375133923762165
-0.043576904926431834
0.01029695442286444
0.023355777876776347
0.025536942617022305
0.04558493125991067
-0.0014121992876341676
0.00288221286099212
0.0025257799002491744
-0.0028305164966124026
-0.020321837111955243
-0.02436037433889493
0.027916624457794387
-0.014081126102111118
-0.023320221794046747
0.023455973197360036
0.037604946396997845
-0.008297129215996006
0.04269138362263622
-0.004825864093556309
0.043865611829895984
0.04582395214133294
0.009071904168400535
0.013206297501209172
-0.02233999837319241
-0.001574482567002173
-0.010012837529011054
-0.0027171063131335095
-0.015122194571297955
-0.013235542420383668
-0.006778237715623345
-0.0006702178300698117
-0.016693409598353314
-0.004435775334856661
-0.0006246577282196791
-0.019098277205058932
-0.003901241459053527
0.0010017738426540315
0.008772058197165372
0.0414197381503809
-0.06294082716888923
-0.030447613276267493
0.06835484676760857
0.04133423417864226
-0.005252801525649313
0.0066909357543177735
-0.0597738918730359
-0.0053582009901674355
-0.06736623446859415
-0.060382420394352744
-0.0017983971727157312
-0.002391603105137404
0.06727512666183336
0.1040361032269764
-0.02938113343061337
0.002571666656890389
-0.03343572389878446
-0.0014711320905612176
0.03628198058136375
0.0782182377379781
-0.026565011818445967
0.022782942404946646
0.067060930550979
-0.05099205110866925
-0.04770066877477212
-0.01083489542684844
0.0004413261812898441
-0.02288722038914473
-0.014352081206572642
-0.010012436412831852
0.009749741713662332
0.0045702074514922504
-0.0035956045196396348
-0.004845100475043232
-0.009814297847376302
0.0406688736223169
-0.046900415930497555
-0.018013133666867704
-0.02584204036488477
-0.007764833780757973
-0.02935235614075491
0.004907753736819454
0.05923009094491318
-0.03481573735162027
0.017159563468889496
0.02074991841575727
0.028323320491785594
-0.01686567557678393
-0.01977823061304858
0.022332699125508327
0.055009318534456626
0.0005828025683179929
-0.01309380965167303
-0.0431641384667412
0.04193683936330255
-0.04298952095397225
-0.0005995653543131331
0.033710878168192855
-0.02686020690915577
-0.024552177094918987
0.01059731809765157
0.021959847340717854
0.043484429106937984
-0.009208305163116496
-0.05174786268904635
-0.049545190461474806
0.033660474320271576
-0.002076807875915749
0.03139968956561198
0.0043988689548195735
-0.006072723926873403
-0.008369390469454552
0.005058994638929453
-0.01465805677024471
-0.012119616384818701
0.0019781765312575353
0.05400265062000456
0.023339337467061964
-0.005462019770558516
-0.022272553659988946
0.016347679754359502
0.023494453329838738
-0.013476992415295283
-0.02590026091235051
0.018290542693535625
-0.004709559373835044
0.010955522618097211
0.016342616397097363
0.020128126793417928
-0.019634399690237395
-0.03147658654746295
-0.010847844924123643
-0.004513524072810775
-0.024399069501608313
0.002657638035285272
0.032184332821779654
0.006613874873953665
0.03133306392083119
0.013024069776929631
0.0572415848364053
-0.05637270260921706
-0.06037116958200686
0.04544446109701505
0.049411489822276146
0.013336936580521286
0.015485302945244084
-0.029911835234181665
0.002339880628641184
-0.00958299979189695
-0.020101300030415856
0.012693994089328718
0.06920635531803018
-0.009275730564745802
0.013539067449303992
-0.05787582668779557
0.028168452035090642
-0.0318719001051751
-0.10249167435242888
-0.06741349175462086
-0.09449786579767798
0.004511639551946204
2.1075671434603697e-05
-0.017374282056657385
-0.007555089775473026
0.006642651742404866
0.013189097102842395
0.02154072151472922
0.04760581270823418
0.026947029751668045
-0.03259566763092767
0.029728846153547622
0.00232351688139416
0.06359300735468956
0.048385510563156785
0.02119680814728381
-0.04477625992647138
0.005882141413306294
0.0012976255726422723
0.039396707494072605
-0.015041777091172102
-0.10415153013573063
-0.006047460886536259
0.004263112168312425
0.008599896459863391
0.027424921190884338
-0.018731574143391015
-0.010338865620137487
-0.005379406907785341
-0.03969522008729672
0.043917125627635695
0.0129351472103505
-0.006622857227940645
0.05128492921475837
0.024931784344242175
0.004087489466940731
0.047434716021766896
-0.007250278705532243
-0.003377788041285604
-0.00574694579547775
0.05272311629302565
-0.04293944566684576
-0.08491254416788131
0.04081042863468063
0.006570906182049435
-0.011897085320368903
0.011033838801719806
-0.0031091689390926156
0.01290328328545983
0.006220659447876241
-0.014343536395377861
-0.029021044338851425
0.08166146209357433
-0.05201443309488697
-0.037964083773058425
-0.0901869251593274
-0.17086620186437593
0.020567487718751182
0.007170755718776329
0.1522352539771487
0.07012927835319462
0.029367263065867854
0.004145746915300231
-0.025132589228807508
0.04044310801383142
0.036767652958491374
-0.052806336079856374
-0.08435203360556948
-0.02117336777800956
0.021823569318176368
-0.02705937927784547
0.15643986080163147
0.08750302550953322
-0.01943291972869888
0.016062389376768495
-0.013539792763309036
-0.006015065711137383
0.00158430408025307
-0.020462336449888385
-0.0002917480722351923
0.010712203623669921
-0.00505654564824389
-0.11661275511356713
-0.1273124365299277
0.04171531744822884
-0.0023632308155498508
-0.013498415599317045
0.030417481235663724
-0.02328972703893956
-0.049833617874094197
0.003519939955659297
-0.022258473475611083
-0.017022395242140942
-0.015573676470004127
0.03204386881127414
0.06077277225441261
0.019031578455282562
-0.03383442139209106
0.07763680107214259
0.09868448432311995
-0.023422295092328235
-0.002901469958811329
0.02454843205453312
0.026806967461795846
-0.008896016922136655
-0.0042899972818664775
-0.00546039698759111
0.002340311538341086
-0.01951490897585402
0.02151190108425777
-0.05249377613987048
-0.10763206613629649
0.00040000190241715774
-0.02185355203971541
-0.038091448531151186
-0.01052187717468248
0.005816401575305812
0.02109291867310706
0.01574816935926773
0.19591962685300765
0.013483915799593418
-0.002828510644733175
0.011226303590887273
0.02922786467280641
-0.006822467470781188
-0.022784815168223962
-0.03686212590469444
-0.04574154454707685
-0.01700994109833837
-0.0035338555240678996
-0.008275875997485721
0.022455173985322364
-0.036312796706480834
-0.000395389707740908
0.08215841913358535
0.13475363692311407
-0.12135417968339564
-0.07586219192843532
0.06342490403256455
-0.009824917399548832
-0.012822207313305602
-0.025259313922898124
-0.030050788000539834
-0.011019143580774085
0.06560183888631922
-0.01201227022146818
0.002949028568255103
0.005313243826513893
0.002377726294801707
-0.007742320698099244
-0.03228141356537396
-0.006056433149131961
0.04483539375950258
-0.0019784183396040775
-0.01433080804445439
-0.006543828940904104
0.01227702921641164
0.01772505963767657
-0.006342287082631155
-0.16488689834268314
-0.03867803362867062
0.044573992429705715
0.008864626539922807
-0.007642034806940983
0.0525081432017065
0.03871628520852657
-0.04310819463913059
-0.010172785960116023
-0.03300046846421582
0.10787170776384934
0.07063848416668576
-0.014471432660558198
-0.044894930500002546
-0.020033563922688426
-0.009226491715290778
0.0038250453034725743
0.04707149326859269
0.010453480483425143
0.006640596145292228
0.0028400440386331105
-0.022126930187278883
-0.035409793083232964
-0.034234336741832544
0.004841018669475828
0.01307703316335577
-0.017962269619407875
-0.0003217334737520889
0.0002715236779802941
-0.012390518704153143
0.027912992890563478
0.05314647222311402
0.05169587071564628
-0.023798623462948747
0.03495333651859524
0.0520498592310165
-0.004719820820168908
-0.1860297465303108
-0.0400965210887876
0.021419837408673793
-0.05680422403532687
0.07873417665634978
0.027540793507021703
-0.015424490900743116
-0.011471547728090548
0.015249329602141854
0.025406953438606078
-0.03779344826728159
0.012740367485198653
0.020596181485797362
0.04675676977345958
0.03877603486677343
-0.017416302524650533
-0.03763394579871412
-0.05117289928388146
0.025186950186109187
-0.0133533135648255
0.018914619915264094
-0.017336440926345106
0.0771428283491658
0.050239588389127635
-0.02974127717179998
0.016786108416345542
0.007623893899663278
-0.007233689857478218
0.023051721195571338
0.028942923412182523
-0.005095911129452548
0.0048598965763121445
-0.027824510945817973
0.03298378451720119
0.022827958228804908
-0.025802834530903224
-0.012449719658790971
-0.06453607001839283
-0.019413588989889236
-0.008860108815962926
-0.0025613864246196287
0.005896123749024729
-0.03943908882187906
-0.1259803213442839
-0.06735479598904469
0.04174729339705046
-0.02300320384813274
0.01765614607288311
0.04825697936604838
0.016839688946141795
0.023460142922082646
-0.025079727103271582
-0.02570829358400516
0.030053154606790172
0.0578198510283872
0.026035271313275776
0.03910577729608393
0.03588537817020103
0.014245046349447673
0.03342434137903271
-0.020838196634525102
0.006126000228313508
0.010468645262768436
0.05100937650389581
-0.19436304499339574
-0.04975129611764617
0.04525595787373395
-0.003480646521614788
-0.035271995548527016
