0
0.005007153544469788
0.06597930368707959
0.06759198441176742
0.014243295856164497
0.0538691381216485
0.02311331421528577
-0.21423810926884798
-0.036007546910128745
0.0112965273772085
0.03799333769024581
0.029685220266164672
-0.02794110563747563
-0.004030121168712427
0.018647106529069344
-0.01826626746328877
-0.033100336192709516
-0.028423113447615
0.02176866283170034
0.043189634238275626
0.03530209116343647
-0.02697765909002803
-0.04817775497325379
0.0052031336225542525
-0.0014797771640103943
-0.030376466013474043
-0.060356238115982064
0.10363233134347583
0.21629187321110108
0.014457047034311027
-0.025154048705284503
-0.031585197114217145
-0.007426896177777313
-0.0058686204026071834
0.019319077573059874
-0.014877854416219848
0.00447941039446488
-0.019975959244378734
-0.032577364286606576
-0.01998376683894858
-0.02239850155534477
-0.0027258563402896706
-0.03191553237775967
-0.02398988621190147
-0.027823242665603532
-0.005745133127804155
-0.02163715059650121
0.05301552126561639
0.027706232485329087
0.0010924883894281878
-0.0035699742982250116
0.0020468260522460997
0.014335426448236932
-0.004551069599656653
0.005941262708370232
-0.03479762290063189
0.0231550967463118
-0.026566420523509732
-0.004698850845622777
-0.03188365695871331
0.03816733176302149
0.08654602830381054
-0.04962931723229574
0.004555155425623492
-0.017455970543462495
0.02666118385976653
-0.04193952169655233
-0.06434102035689244
0.015548140410235504
0.0892449590437898
0.09130336428116584
-0.06704276864941636
0.0011511638571816874
0.037153244845282846
-0.02956433578176501
-0.03231568497584688
-0.025825654397293313
-0.025955053006862624
-0.015684518057359566
-0.02259956444469564
0.020639717284854302
0.011799311821008103
-0.01570447132817171
-0.06860295486833809
-0.03647678296930391
0.018497946616218463
-0.01652010473114742
0.05767060666206325
0.12733350609827082
-0.02794916433012255
0.045948047938070787
0.06113803220439973
-0.010766442803290538
-0.004215857501453711
0.01577500945191436
0.014327425717050991
-0.00979509585379845
0.06760054352370606
0.013395822805240779
-0.007322740467120013
0.0027587543410648838
-0.051755581727903587
-0.020374230989239878
0.009537204133975352
-0.05918771378596696
-0.05824178518316785
-0.0411437431551478
-0.009576092300688246
-0.02888524982301612
-0.008469502827815504
-0.09525254810439729
0.024936770574712698
0.006292510474774531
-0.009789492310810662
-0.02392627752570844
-0.0035708731128022615
0.14337484585143162
0.06256164973349163
-0.02555370467254355
-0.008303131819898842
0.0094215053764899
0.034091495064289205
-0.029002487820358715
0.004571518038582149
-0.020812000787197027
0.0710459538439159
0.12027179747577647
-0.006139195273195843
0.026416119882501143
0.021525345550691563
-0.017145938086156772
-0.00955242629211854
-0.008265845402607021
0.005564208533860948
0.006910237278514529
-0.01652718049795816
-0.04404257469021541
-0.04597814511193503
0.01622177620469174
-0.038022038486962895
-0.08216585340168082
0.007608528421791556
-0.0063741316814358235
0.006178727345969312
0.012163917097780329
0.02680278708680334
-0.022301636670558008
-0.03148490839742574
-0.007855566748299757
-0.0007869337866368615
0.02153129557810703
-0.008195388228767522
-0.02848333327863111
-0.002343651479557516
0.03021940754171887
0.02753798436720541
-0.030766583505378142
-0.04640582128871612
-0.003873309495314247
-0.001560501259308608
-0.021113542959288103
0.023187711477660987
0.03382398969986218
0.0006218843864219553
0.006094918002761662
0.020252655655821558
-0.030478403847735203
-0.053726319822145034
-0.011916453372200623
-0.019141197372688358
-0.007455905546089906
0.0450525251872906
0.022992434918637193
0.004858281561453068
0.006805414120535896
-0.007467563395897111
-0.025891669824900623
0.012422550154955936
-0.0020651353381398777
-0.0010205340858344533
-0.011008806325341909
-0.009799211787091885
-0.027377649176344554
0.011983964359422757
0.01095740806535672
0.013907581364130216
-0.008058611865184969
-0.08012995573039314
-0.02994027299946738
0.012052978251491124
0.016182204225911566
-0.0015183064075940343
-0.042033953867721796
0.1621536847145699
0.10279359090826846
-0.019696828373464738
0.008823511135116872
0.030859339620328004
0.17576103115839667
-0.0432293736768599
-2.480515957768651e-05
-0.019716080571885782
-0.0025979942756146003
0.0007483291617023142
0.00321671948594447
-0.04100346127262392
-0.04864884869539821
-0.01996477863235484
-0.007708829078822272
-0.029939893648697896
-0.025637751260128256
0.043142901909182955
0.013936852645629072
-0.042340958762804165
0.003410986085741006
-0.014161120784053707
-0.0037547196101419614
0.0033215504002069027
0.01455632865480457
-0.022480066418597892
0.04890254925012506
0.02117204113332113
0.0008640683206806205
0.03992358029469489
0.009665715101521928
-0.03596557669081131
-0.09214784638267406
0.00471378498717522
0.028583848133285746
-0.012169879653693544
0.02320732906621455
-0.0019315838250575236
0.04179342667071813
0.004932569243901687
0.02130074227249176
0.008456615818662274
-0.007493468079459095
-0.035655626447719885
0.01625466602487026
-0.008980039627066453
0.03549206826522022
-0.003837775314803316
-0.013665895794964309
0.04097707420051392
-0.03748277539909911
-0.006661742917664372
-0.02699408911470545
0.009708545031675737
-0.18410955009668029
-0.05684216503377497
0.026391562398455273
0.025848303422448496
0.07611092338057349
-0.0016866903720264735
0.02713653433852502
0.06925558356835365
0.01581823523076037
-0.03103090388006653
0.055647623641065666
0.0074493569130758405
-0.075854759474027
0.0023596142623501584
-0.07292142699166862
-0.1339056708155851
0.04421902905399794
-0.016046556053834867
0.0292162891782895
-0.018594134527292458
0.038492917098719506
0.0022445948460566786
-0.007500977548824513
0.047279511272425204
0.0019144005448802413
-0.013526273662654955
0.0401698483669928
-0.0088922588381181
0.01789604508507203
-0.01371562015325061
0.010018650479599938
0.0010509696672476722
-0.0400867307883388
-0.004556783282378554
-0.011092839725787472
0.032586661464728425
0.01518433999584738
-0.012966510800607994
-0.02626149314860043
-0.0011990417434653712
0.04331204084106266
-0.015735125251345523
0.08195702698055718
0.06157245883552644
-0.008216321532605953
0.004886045907134368
0.010023262159257019
-0.012370760946194496
-0.005972284225885236
0.0046801636241437065
-0.018789505884379516
-0.014020685567673814
-0.010280243793256087
-0.023761905758747297
-0.06485977388382311
-0.02874392114869506
-0.002340752134904916
0.044802093382237056
-0.073686876908543
-0.0630286761934208
0.0159585003678375
0.02259964748854441
-0.008156002874200709
0.10171053822507446
0.06393700183819419
-0.053186871458043364
0.016084996987954823
-0.003007409647673917
0.013666139852179555
-0.023766631315953145
-0.008615058006189114
-0.01900756107338862
-0.013321451758485935
0.015309954126424882
0.19703162636736768
0.01865308106639448
0.008661687990043663
-0.003268459269030141
0.006236378961694042
0.0004932050751299929
0.004294840599950003
-0.012433028605720953
-0.030546130537292934
-0.020744146248552274
-0.0045188977920185185
-0.07569021889902533
-0.11618603339839186
-0.0890491074677534
-0.00923099538864462
-0.016852398809628272
0.05813842390970455
0.030192257936414266
-0.021545914703465657
-0.01652834033041275
0.03232485267620805
0.043791226843408235
0.027927718636270013
0.005452948427987888
-0.01015112608587546
-0.016541980770908765
0.02714099336073474
-0.03390124159711368
-0.005154221565741664
-0.04037770538065012
0.007500511587459187
0.039365973404805896
-0.021367789489803005
-0.02351146712303539
0.02666691475207958
0.03349549100475464
0.05907180429682844
0.015524344513159344
0.02279254629402512
0.0009139176104502924
0.005155105293967587
-6.36145999332667e-05
-0.003867865885361717
0.011837451827292251
0.05914464877715397
0.020848558285226904
0.005902610551226931
-0.03793339568521073
0.018144875437065337
-0.014192846006668878
0.08399186834827119
0.029958273037834285
0.014643317983240532
0.03517221852220492
0.02739829602127676
-0.178153642062075
-0.04247151165642332
-0.01192907285459223
-0.003510820818732139
0.00011722842749513399
-0.03823469953620988
-0.026262838971414994
0.04091824082685035
-0.049973028377782294
-0.08876197957454161
0.038789363121526955
-0.0454268104976891
-0.026747369837625122
0.024706659426516907
0.007422196007344999
0.014274712877815607
0.0006188635573598129
-0.00047171081899209243
0.065619890233308
0.0010461631310911034
-0.041855322559097886
0.0010159364722486242
0.04237862200975835
0.04123129049235861
-0.02485192596404444
0.01580826645198982
-0.06313316277453819
0.16348184139383207
-0.01715886924778252
-0.11715819886273209
0.03452509000803841
-0.024242022369246316
0.016365033953983095
-0.038380177120755136
-0.0879743838474482
-0.022776117119914126
-0.049744922965236214
-0.060682773714983256
-0.004557669580115019
0.04329653392043241
0.005192328208562885
-0.015499422266295096
-0.04211434219166955
0.05694129025699283
0.09079098283778161
0.05090182272339796
0.06837030573442648
-0.016740191698775615
-0.01843543130194848
-0.04307380550428584
0.05946257494062684
0.03251320561151594
-0.010058283292718137
-0.01402675087081991
0.03482538603617608
-0.01675372776896139
0.03704391089770521
0.01176803882121554
-0.01807082293667023
-0.0076565719360055
0.04393795083472417
0.0039975181787975655
0.0132679311577097
-0.02754021493068917
-0.010544734981937537
-0.06512954961776767
0.012168224929581957
-0.032309987543428106
0.0009630935740573623
-0.0133101553646711
-0.0075255508113761934
-0.06502822505816487
0.09894476812967885
0.1003903695469759
-0.043298611569487784
-0.018810071137921255
-0.04139536894111345
-0.014369007103523025
0.07904632553456874
0.05155134140138411
-0.028419134522064588
-0.03473697579730159
0.061973093164482594
-0.03525599724176041
-0.108513002324081
0.020408413726507976
-0.008802471998514675
-0.016640078648103764
0.021378179088425646
0.01125269357438495
-0.0041750089001301
-0.02172764525268487
-0.03207600835359658
0.030359425438811687
0.014149444600773367
0.008364962402026945
0.03211319598122421
0.004804881772187916
-0.008058762283483472
-0.02485379995885619
-0.03897609088027166
0.028053759479692436
0.02240415430027422
-0.020286802209832634
0.026780343932463275
-0.006663861056363195
-0.02317233457674706
-0.007132347548766371
0.0016411562292429375
-0.0026489318979848963
-0.02770416692752384
-0.0317243263752937
0.012608959491479554
0.001182848266576265
0.01655069279631131
0.020825797606346168
-0.02378199288383082
0.009857944774458869
0.029996322521867864
-0.001390763360149753
0.06798829645931118
0.11528636005374292
-0.04098115444306628
-0.04926422391239291
-0.0010314509001683543
-0.011763061643198427
-0.032990577789241055
0.0028410041509031336
-0.024330125595969095
0.047202318751640146
0.013145401866351325
-0.048383779630852365
0.04290384043956822
-0.027220026390702572
-0.011449470867495279
-0.03280286191983775
0.018920498391039577
0.12367536919580206
-0.02463680591464058
0.01477080813291681
0.006463510647073306
0.01191424284575543
-0.008400767799025693
-0.00269359876411344
-0.05009848410441109
-0.024356048852413176
-0.03956750443477375
-0.021958253865982248
-0.04622578736423129
-0.057608707430142625
-0.03187516916181809
0.1160507467931278
0.03398991308947379
-0.0042216659605347285
0.02604100902795327
0.01990019152060061
-0.0093427809530769
0.02303665239144724
-0.05392941971186592
-0.015602014432847592
-0.0167130784852867
0.01641699543909826
-0.044438812985450014
-0.003552126585683641
-0.028967012486381248
-0.052966590449649506
0.02075230529532965
0.045682889091166023
0.011926628302929527
-0.051486545761064484
0.014530291494591752
0.019299476716005206
-0.010284006230423779
0.048284905886727195
0.015326097075414564
0.017336065332592753
-0.0009455575483573943
0.01128188749700457
0.013674871667944193
0.03787804622934002
0.020786808045990635
-0.018530458933037865
0.0129691230047629
-0.0024099045420717252
0.024370548993588554
0.018733657290710262
0.02062638260427668
-0.0033412484780105107
-0.002807774288790971
-0.00977859390123354
-0.0018770852701509469
-0.005888570112887617
0.0004650576680743872
-0.0415544290153469
0.007898041871208603
0.020823375315075176
-0.02247743721753242
0.05509347078302143
0.01218986503427635
0.025389618117367552
-0.1741323860702436
-0.10667313844104015
0.018522833840093164
0.016019099087597563
-0.006480529446714085
-0.009989186076569314
0.050145075183633425
0.0025808533506570244
0.010111222091195585
0.019040984387435702
0.028399496915267938
0.010159323495708014
-0.017510451374603435
0.00885072248379087
0.02210955466318479
0.04780796198204153
0.01393386862848047
0.010877665228825764
0.012519064944354284
-0.005949163043394886
0.013066953634458223
-0.052559529783566344
-0.018684336222206117
0.015429912300631152
0.052937941480358575
-0.07025694551282867
-0.13121955219171275
0.011522803944577517
-0.021724891677739194
0.05622176765562871
0.010524195215901812
-0.04597779616605913
-0.048128403618531136
0.040175009693003465
-0.01665306660683352
0.014034719652038556
0.010891120074447652
-0.02541806557691637
-0.039789259421443304
0.0061657709473985425
-0.02743816893055941
0.06081169684837675
-0.05484098824379376
-0.04203915314050899
0.009004196701734725
0.010504011172502402
0.03372542090101628
0.003382562282471945
-0.005137353466428051
0.017770962093954575
-0.018883068267197784
0.027160704929694603
0.00911075010375317
-0.024410457193856164
-0.062205127891518955
0.07712960250563322
0.10484439144764802
-0.006235618413886434
0.020309675496711466
-0.03586705352338136
0.01758047408437291
-0.06013546875753833
0.0232370134445788
0.06210990313889495
0.008806015395235543
0.010361519929423304
-0.005105142504870689
0.009724046186990217
-0.002727416282232677
0.02570758699024439
0.007480431888874233
0.004817821300463994
0.015826285697986987
-0.02827145662719772
0.01140840238656794
0.006272001599178344
-0.017702248902708682
-0.02190721666628979
0.021655712221372827
-0.021793552667836318
-0.037822449753877815
-0.04744720851397063
-0.002048877632239247
-0.023045844779963798
0.1368855326421423
0.09561261574973469
-0.005447906512550865
0.01437192317035826
0.0012268966504604426
-0.013812358188290587
-0.007813533709877621
-0.03980334578836675
-0.006817136296094522
-0.07207115246222794
-0.07065572441884119
0.039218345666120494
0.010760988194121515
-0.007167257817842912
-0.03332087817707804
-0.01630735066647892
0.020084476445620104
0.021048640272406396
0.002847367449278487
0.012214863806675323
-0.02311724302514166
0.024023037061320914
-0.06582677816524586
0.052239871707042765
0.0528992926099867
0.012821405751889172
-0.0009867428191222046
0.03384981476637705
-0.0614483683894074
-0.008596974268154084
0.013245316671568096
0.01945545911875986
0.007161410333769092
-0.016755584557296966
-0.029768405557797792
-0.010623004731051565
0.006040561227280189
0.005952473803014275
0.017973376088577762
-0.002892237449297643
-0.01916025414188116
-0.002430142302014646
-0.023370422488927175
-0.024456323735973402
0.01628460529456205
-0.011608803829566989
0.008291287104993371
0.00422290652038359
0.004694737780366684
0.04217863008319062
0.033096621175232294
-0.04325143306672306
-0.04923495887162955
0.00640637422761347
0.0017101711592009009
0.0007233502046822636
0.014402612248464437
-0.011631002226445095
-0.0460279727950833
-0.00942221609776
-0.01552463245102268
0.00689838740784877
0.029750524695719927
0.0014011201602791166
0.038924975381462196
0.01510574087193827
-0.005077701984397028
-0.008483618551270312
-0.030829038636895185
-0.025538590308569014
-0.0023494142119624244
0.029144518606931007
-0.01567916753300937
0.04665398987913577
0.06329991377477495
0.010220280578354338
0.0026092296961342997
0.003623389315001175
0.017041287483863916
-0.02863937219487377
-0.011638714374948027
0.032683219472370795
0.01780178583212196
-0.0443758374881738
-0.011507509502600353
0.003008580861506519
-0.011367690938334842
-0.01337097232859456
0.048942132268838166
0.009796109301556935
-0.02792170975929298
-0.012665074285895054
-0.03796268615090297
-0.03624353949084872
-0.10369456221528926
-0.0001391415512289007
-0.018883652785307962
-0.013122744540877623
0.019520039623957597
-0.023762967012616015
-0.01825939129570811
0.04122764841926866
-0.014798689211177135
0.03834857160431007
0.014911271236547938
-0.022294597640752145
0.10971237329130115
0.04578565126379552
-0.033009147906258085
0.059452023763878994
0.05497593244739549
-0.07731655692085437
-0.09896546901846719
0.02483474890382901
0.014471453297777052
0.031589138551450194
0.00033298711478357325
0.042300502785014654
0.20104669813116643
0.00959884617084904
-0.009814538275579106
-0.03340859335606029
-0.04556688155197296
0.08361795930752071
0.03353803248004577
-0.05143962791062277
-0.028798811355806867
-0.07543753049336448
0.003673870745905629
0.0029715593596580086
-0.042898420163172545
-0.006288241532708358
0.002595601841992691
0.0055148173590178
-0.0832582737116663
-0.181213066955579
-0.0124977440756908
0.03225117820188277
0.006217933481571849
0.012789550558678366
0.03236351173054877
0.0025141665670690974
0.031709437350308456
-0.023169234739228453
0.014816280563729361
0.022943033585101146
-0.03593024795468869
0.010347981517496954
-0.014016564909277635
-0.011222611027590704
0.019167421285797858
-0.018615411242310045
-0.010280974136147179
-0.03907230981339735
0.06041291524561899
-0.019624365150258557
0.010197476573803823
-0.004884197978218011
-0.002455543657828598
0.009428858517910126
0.011574158471682534
-0.04804056287547574
-0.005723600260946567
-0.03549652675507029
0.05490651763823898
0.06292020412708224
0.019384769380213152
0.01168537109278576
0.021484675461051417
0.03705238461844996
0.07978439097177707
-0.012982741621852385
0.003272047657242139
-0.019663802762847318
-0.011160966759057702
-0.03747129476900297
0.005472724091514381
0.03228086894376496
-0.0024971990365178593
0.003974060592307678
-0.0033844394635793775
0.10367207837823406
-0.029366739986150546
0.020967265096773574
-0.001263684730943735
0.0018162921104557866
0.01763634514068111
-0.04350875345623898
-0.01933860923453657
0.0686987703739002
0.0016598001603048745
-0.02218841244539705
-0.03848372299218466
0.012460499673689658
-0.04054958570165796
-0.019394933067238464
-0.05931967519447064
-0.006155713904672669
0.0217624674345337
0.009954602854468154
0.024412474505063182
0.01117130093663294
0.007408308482946389
-0.02905352682107094
-0.014129918755461
0.014474496670797471
0.03510571482756941
-0.030345617649735028
0.08414700854315868
-0.06258692207008357
-0.12462862154805364
0.042326034477297
0.016356195235581607
-0.0034772984734630953
-0.009899729875428448
0.01206673639188759
0.008637741426738345
0.031488153269036506
-0.01818720098834675
0.0035621591207070052
0.03330703699586173
0.02397208057663478
0.032444091548107325
-0.1568886943732669
-0.006698246034420824
0.04813436288629182
-0.01564777545840622
-0.028623374974953666
-0.01454083789100371
0.017107199198184375
0.008291549584078715
0.03603808404409184
-0.07360052516223947
-0.03309041747073545
0.029025468250112024
0.048399060701435945
0.03341721157772825
-0.016999731011729642
0.02443553652296023
-0.15255425814072787
-0.08428863796180755
-0.013203199745218986
0.0011410812375771291
0.02078074096585503
0.0030947541570521143
0.01856761369951778
-0.01366070054646561
0.01750602715426067
0.07756277960467614
0.0032913605780037288
0.07344272230522896
0.014943548480281153
-0.003599778751428907
-0.007367664224490471
0.10683691817791004
-0.07040260166344531
-0.022032190667904288
0.04488820237494324
-0.024666300321289452
-0.014834929460346064
-0.009288836944161676
-0.0019896378778838622
0.014916638209857324
0.0353027918573894
-0.01918336396434342
0.019936217298228764
-0.0004997864534601146
-0.0054017172678191856
-0.015545504884173167
-0.02352912581930288
0.01920604904420237
0.02245035412620419
0.010532294987901132
-0.061081424899525186
-0.016157503888949692
0.0025683382199518934
-0.03215536072552054
-0.004490519856725872
-0.004997302537565303
-0.014217707233014229
0.0021811368895392437
-0.02788957757910853
0.03606715433493655
0.013559817064184368
-0.035301873143099356
-0.0247909500071591
-0.02138829018614583
0.009482795106106282
0.01505025820970555
0.03536146094985087
0.19464615650108957
0.03784535871021972
-0.06705967789354571
-0.03466653507990334
0.012333170601777134
0.05265037246472086
-0.00044798506448842456
0.08986846296006684
-0.13901455557047274
-0.07008971575135783
0.005924253671264577
-0.02980274608568784
0.010119125936705936
0.0007473552215624015
0.031291486241476915
0.007365568108035527
-0.03495190542039963
-0.004232792056048936
0.05331242049951767
0.002727228993973676
-0.022192605353278175
-0.04024418172581341
0.03717881409470331
-0.001340255614679779
-0.07342429417969384
-0.1341146760939787
0.009819632487986474
-0.029596849203591968
0.026173807816322857
0.043349009986588846
0.07576957083375065
0.10644596841527709
0.08533689710430702
-0.020238762970860354
-0.0179889469122719
-0.020215748101105522
0.0022259763757180397
0.03914752398204124
-0.08781265035510599
-0.009025085631887449
0.028998135652433473
-0.000726067679538413
0.004683044754133092
-0.015246622205071416
0.0012711031043644218
0.03885366686798756
0.03467587245046931
0.03314164185272339
-0.011217200347556284
-0.005226048485066167
0.034158724667570445
-0.06869170734598937
-0.06765005005040757
0.04392989541607425
-0.04204668008854739
0.038983826152695904
0.01940160051940186
-0.009623354647353548
0.016139731792463165
-0.09660403331995773
-0.05030337027230976
0.010041684975884759
-0.0813914014446909
-0.008974742454916963
0.017630661714454602
0.10951447180264079
-0.006592709921556265
0.06402848668889566
-0.011442109930694154
-0.02909369950044923
0.07575062383592855
-0.030052139693781763
-0.05778089309041173
0.015867175721889372
0.009509399068811559
-0.0016483908085299763
-0.02103534286409221
0.019322570739299365
-0.011943157225403718
0.0266596187086214
-0.0712221485889442
-0.06089916940711638
0.0022583126914272247
0.03379998567211842
-0.0035308080586963263
0.004857751564271371
0.005322609107505778
0.009844536140126503
0.03259586143508629
0.0060193842801660674
-0.015290036396754766
0.037001493036484936
0.04882975638687712
0.04281639212378241
0.0063304222232873466
0.022982427953587695
-0.026460115559380857
-0.037554294303170886
-0.0007093672758390824
0.015723193187238364
-0.008752857572059595
-0.025882397124336532
-0.0016513373114219318
-0.02483342142322369
-0.0036655666191612187
-0.008992915583833718
2.0883909440259228e-05
-0.0021855403648254447
0.027233942624556067
-0.0017299919375491594
-0.04416893370472153
-0.010149825545713951
-0.010727771044623741
-0.014273112833496963
0.03265653035510425
0.043733406613236256
-0.06246632649615731
-0.0044467398475760474
-0.042712965703265764
0.02794079459694782
0.03441027631420249
-0.028243995050346762
0.009158381396593534
0.0010389080978656761
-0.027764769100128147
0.05232392527089893
0.03688123775115785
0.010940356694107568
-0.049361130012233044
-0.12748720765581403
0.017609632758979133
-0.009473841324247868
0.01320916453906443
-0.017644638104864226
-0.002847887569969874
-0.03971486968505668
-0.012108107646167134
-0.034789368016273164
0.1560182208921794
0.09181269192670498
-0.04623313464930462
0.03639217770845199
0.024935082546028248
0.0006325817879256875
0.023048157752227887
0.019368326479215933
-0.03864096924094812
0.013940410665585625
0.03189942949028828
-0.014708194732046221
-0.021681027275245256
0.014608861953900766
0.0067224201462989875
0.050228328756524
-0.017917015967990002
-0.018130212989127734
0.008453884499755409
-0.02188470896483035
0.008755271282011262
0.019726646255857013
-0.019795625587828783
0.06018374776980464
-0.005535505160219778
-0.020283285897129636
0.01537110269350106
4.9773994864855894e-05
0.04389830083962505
0.0160474844215388
-0.01124803371959461
-0.006594107747815199
0.003389963851915538
0.020411849352382164
-0.06789846314625456
-0.17749752699284604
0.004557676098955294
-0.0012402576420552352
-0.0343159211848814
-0.005250604022664597
-0.037176915970237326
-0.03871941079178036
0.01105067467171508
0.04512278213826681
0.05523892858466961
0.01634509567208281
0.036035167447765006
0.0006141016465773622
0.00262685160191094
-0.004700457249513948
0.0014327691387226865
-0.02757782495567205
0.02617923538863626
-0.015224439141634105
-0.0008323908889189762
-0.026230184560661143
-0.019795679512936246
-0.0032552951359372017
-0.013127880147004282
-0.0066246663024667665
-0.0021735741337734833
-0.009581494158860913
-0.026449054632074708
-0.03719956688250129
-0.0014331898371291573
0.02646876634369237
0.040086473477265114
0.0025042964621469297
-0.023241683697422817
0.005381939890828983
0.014280680771171547
0.022960676051523937
0.02476615812518446
-0.006874152397630212
0.09482859552533572
0.005755838436420024
-0.0222984912653602
0.018696175135762404
0.015356851489400775
0.04653391665250841
-0.0017817742592407552
-0.041830213582061314
-0.017908935405814782
-0.007320142757689913
-0.007437873183476154
-0.007892918528041528
0.06463384573965684
-0.017121566486361605
-0.014164902491172105
0.006165721018382027
0.05153684806432935
-0.0046147641072836025
-0.014530755522073583
-0.020350035143324733
-0.02795473468450077
-0.040110548608468244
-0.0002356831154008504
-0.007978318718777211
0.030612996168969255
-0.00788605798818994
-0.01709550236486007
0.020436812200639243
0.023791211851836823
0.0065245618753899184
-0.01761665212063418
0.021945592753900373
-0.007968864509436473
0.02134494478743551
0.017488996955885485
0.023099678341009733
-0.008434465768071902
-0.006548084334689704
-0.05937804215078659
-0.04327504820522429
0.07371107647478892
0.02631070758421153
-0.0946830750192991
-0.07662859395225714
-0.0005106772242053558
0.03201239108250624
0.022924974730617016
-0.026313255788525017
0.04946823488689878
0.005772604232862262
-0.01690888482649793
0.0029149316780737967
0.009390919739719073
0.06002004015774436
-0.046212002800523545
-0.09726404020143323
0.016737081122305427
-0.014377457371471516
0.007827060005549055
-0.012067203403028403
-0.025743380679600542
-0.03489025342199243
0.0027809050541210065
0.012578296311423511
-0.006942925940216393
0.032422363701572345
0.048089488434533825
-0.013568567095376478
-0.04112793867943628
0.007574446912611565
0.04047975615235044
-0.008209202735529676
-0.010185061783653372
-0.01972424206559484
0.04257606246827433
0.11560093216258963
-0.015920485596885747
-0.0007348515646638854
0.022800363485769238
0.016453357115275204
-0.01661362976872553
-0.023177554606678454
-0.01354770604649507
0.0006619508751032126
0.027358929983433932
-0.015500197953883814
-0.05359473975494485
-0.01672568476674079
0.003936474614392372
-0.01634026205347785
0.02775896863520459
0.09700772466841685
0.1519132869605373
0.003002842363310799
0.00788933884870987
0.05219663641848722
0.0067430073275949924
0.011942382851444801
0.01748373488688991
-0.023529489588513818
0.013355884771944833
-0.04458592001278537
-0.06386385791441654
-0.1786055216141602
-0.12434870850935195
0.022460252047105233
0.01666416633227938
-0.022828802014917878
-0.007695976817177373
-0.0006414649258053718
-0.01021322642226767
0.020080860400096268
-0.0024839260440693116
-0.05654518031486025
-0.09554571533028378
0.0014488925810634096
0.009900172630572723
0.07669516384333476
0.03921742549682121
0.014558991672473827
-0.02313270210909891
0.03424782480344773
-0.02689967165431724
0.08448182312719578
0.09606313887062742
-0.028167027412393877
0.009971797888446762
0.022896417700803313
0.012490885979597308
-0.016793073357538702
-0.06233108207469606
-0.00444373732481895
0.0144962911484326
-0.03347009933879466
0.03243597488927119
0.06338018151025393
-0.005003258768917839
0.0017080953800038233
-0.002612776572581634
-0.01922407462903448
-0.005373998545935515
0.005305853666827132
-0.017367770971585324
0.010330585483857622
0.04244916439014788
0.03754120786975897
-0.020905000935405184
-0.03766512279277966
-0.03855099952077819
-0.1089413531663424
-0.062474977933892395
0.010848731857790082
0.009404745919247559
-0.017847938441304962
0.030293630465833072
0.00955909336421154
0.041724020536183244
0.016370468258198514
-0.012268666197398958
-0.015730044513403343
-0.07703436994461732
-0.028063698065589796
0.018661919372839075
-0.003947465575300912
0.00894093640657636
0.028417855289081622
0.001020744025123765
-0.036061548255474925
0.022812518820646725
0.07625075778423995
0.05570784216494439
-0.020156493492993737
0.00722115090859634
0.004653043679403875
0.021376010735538464
0.007583711838696393
0.039104854097841306
0.06065123355584533
0.0040689217363493475
0.016050495888511502
-0.029635419846079366
-0.02279110394677041
0.02034140761211285
-0.023767674140649776
-0.0213753746337771
-0.028677406718575965
-0.0018468562927629576
-0.01475483426281456
0.01568989800050111
-0.010809574566931754
-0.003836992245966513
0.003994397092083584
-0.01871771665844452
0.03355066588653206
0.03948686880502476
-0.007641810772080644
0.016336014286085304
-0.0724812842773337
-0.031272725461750264
-0.029734919880788788
0.013794581946291786
0.017116349346888424
-0.04115311050392698
0.027604172869387766
-0.013832867054697906
0.026585508289129114
0.002260139403192673
-0.023891005938988207
0.010165668399902128
-0.0012359913070543846
-0.000734942299445224
0.04810201193763918
0.03416214607689906
0.0076340431550715685
0.05628848973399788
-0.040405677987304184
-0.04092860007188483
-0.011656203166209092
-0.04290719273580858
0.061263844208842864
0.010432546398977841
-0.01230459236061497
-0.024605616901004636
-0.04339357771220814
-0.04194598983638774
-0.001659698623425856
-0.02945379637844493
-0.07745108855035404
-0.017771032142053913
0.01560880295424832
0.01147522703916343
-0.046645578773816136
0.14176814076369076
0.09245863264224494
-0.05652280771728014
0.022466694769191487
-0.0020335373097859866
0.03662018643472717
-0.00326712927527662
-0.029721000622409937
0.01358519101430148
-0.015732044894945212
-0.09711357106175496
-0.04520368367383665
0.03246824908276065
-0.017519552453454625
0.12686118824510514
0.07529376093369516
-0.01643946380991019
0.004555807870548447
-0.004265946939247219
0.009424599977900194
-0.007301511976270246
-0.018938320137693938
0.022306047217460535
0.10193257052816442
-0.02895259298515201
0.013467104545502089
-0.040960556638723604
0.03265626486872749
0.01460966983061058
-0.029921519203570744
0.0010217215733086256
-0.0021117110468351795
-0.012938247667094904
-0.014560321811442036
0.004038686299053576
-0.05442783337319028
-0.00575941714988772
-0.010471384610982902
0.012567562662972327
-0.0018936308766883247
-0.031981152728061936
0.0006712731866615945
-0.017290192015796263
-0.029813772860434712
-0.03190608235631217
-0.025613783338831395
-0.014344982384016514
-0.025853814654794027
-0.06440033650810323
0.04502907683793952
0.20295950689726386
0.03654709841696306
0.015707621467218078
-0.026110704603309717
-0.023089642101590195
-0.04142360576670241
-0.01243914399681986
0.005326137453685755
0.023030758028215352
-0.02481132189990342
-0.04707288575008581
-0.029178987465350074
-0.003061608525223868
-0.013227812348886555
-0.004900324347145593
-0.007137427244917535
-0.02951361119033812
0.041947647655647353
0.04265079825276615
0.012330248437203022
-0.04242196176519747
-0.03419817836495991
-0.052866574410625075
-0.038955923158732385
0.07877739676507796
0.01022449565977449
0.08738406166739826
0.091773159305084
-0.053755174058531724
-0.010623511800848091
-0.005007256777366868
-0.009458371693424608
-0.039917110507795006
0.009999002800541038
0.06423271487474704
-0.006869612723857125
0.02778915272115358
0.04228277016764843
0.0319378664619576
0.014046158586410892
-0.008569292739806748
0.05371612104155612
0.019315138269670355
-0.05242807660283563
0.011841478179976892
0.0445436437714121
0.02701802060679115
-0.058091439717741215
-0.09159344890771687
0.04576340915109521
0.001656027103726257
-0.0013437816008876036
0.008182609377468985
-0.010564199039526143
0.014965967962803941
0.009880524847250563
