0
0.020762086070178362
0.007514685974414601
-0.008209275491649765
-0.021850563006224826
-0.028490887217547778
-0.002968209473222831
0.146495517952877
0.05223950184216041
0.005700827327119112
0.013591667308100214
-0.028602069968091014
-0.011469171772516804
-0.00984966031904435
0.018153369383646454
-0.030536854145110585
-0.02608727694478275
-0.00699005001942045
-0.025631248486450348
-0.025334546625882925
0.027295980791084203
-0.01264827391410854
-0.015691771269503073
-0.04439627856861364
-0.022130677554183992
-0.019056237767525047
-0.0039896216606143745
-0.014265183758523606
0.009674745559484325
-0.036890288779995055
-0.00492281748241754
-0.04962490094464845
0.033544173396156084
0.04174013923055923
0.07864756471134232
0.0531172901096675
-0.006136326002798354
-0.06149779306260402
0.014386101405072906
0.01685633209910333
-0.04557457401577669
0.02085375420253004
0.0438947578025249
-0.009124502370768867
-0.07079608601111914
-0.009990997274036198
0.02595068913026916
0.01009666333323018
-0.05053769508370479
-0.017745817739709006
-0.017220122407157715
0.031771751152325105
0.017390873771906942
-0.023117461098440092
-0.0029729971165812124
-0.0004793492869105038
0.08491434312370792
0.05776123588303041
0.0037890309845393403
-0.005664831307275574
-0.03232050935594593
-0.014940237188421277
-0.031876478946359185
-0.03048669397002259
0.03710128354737045
0.01698966538920996
-0.0034573869175607724
-0.015302951890744312
0.08898678590248506
0.15942944768670378
-0.01466469332204411
-0.02519742386193682
-0.01952497297319867
0.0022354395646253774
0.008633750586274214
-0.008638251849100102
-0.004781409324360887
0.0027088650322014372
-0.010968303023735823
0.00034376272148320343
0.02907844587981872
-0.009610874784382398
-0.02651864405398222
0.02642974820352755
0.027643227638236293
-0.04729063486548948
-0.05885061402692442
0.008479681015852728
0.06263400422911242
-0.029043632743935482
-0.02268385212837177
-0.01721159529153446
-0.009701356788486364
-0.04787498583890012
-0.10919471625615716
-0.017597339661686525
-0.019327220679090266
0.026791146698839977
-0.003092561858809189
0.0033967370579397497
0.019722015752585226
-0.02523715322905856
-0.09567787689459568
0.009703846246053287
-0.006755505561907633
0.043180759008184175
0.010422522142379041
0.009015027991387672
-0.0236320956633918
0.013336504173752794
-0.04233876288928878
0.017249074937781453
0.13487385787752038
0.03999632950145722
0.02912305533638682
0.014491926025222878
-0.014186017318005858
-0.004002661976674683
0.12254403255251864
0.003615470438577799
-0.020995743625552118
-0.047702271116784496
-0.025635499015626773
-0.02119910109313703
0.008424072219709644
0.0005505892573088359
-0.00462951649196165
0.006507835680808604
-0.023392290046078616
-0.013644547533593374
-0.004555343365829703
0.009220468400272753
0.0040216247160009275
-0.004132592339216868
-0.05325115604376416
-0.04131139276484642
0.008131996809718328
-0.018000646499891564
-0.010189947577020839
0.08127533324981755
-0.012775377097324674
-0.028984401834385852
-0.0029536043463761616
0.02182862733759702
0.026045168251393313
0.029560699678529586
0.0095857482247932
0.005143638355145883
0.0022429654267218787
0.018980227529542183
-0.0064798016950192595
0.014726149346585997
0.031635214584956654
-0.01323099856587165
-0.12008958581132992
-0.018761283512054753
-0.011930725313869002
0.0035023381818500335
0.010467490158487512
-0.026445001306187085
0.009752998407483515
0.058233621790921945
0.0027586454886721914
0.013118039139968242
-0.005882896133767952
0.014486559667113713
0.01744442673740619
0.016219619605639078
0.005765298511641747
0.015379679668408468
-0.03823786610926697
-0.10183689405832147
0.0027316855940446917
-0.0016576528080382395
0.0024185963564261137
0.00672693626076287
-0.0015742342965860863
-0.015260779244847457
0.05384282113553589
0.03238021086817749
0.005030425762226674
0.07643303398748044
0.01734239335906951
-0.0064436588734465405
0.022060796854965016
0.015193159178710836
0.011082689251884508
0.02545692971877315
0.029917619465915035
0.04413875370739078
0.05965431180047507
-0.18959659211401814
-0.006673385231535142
-0.02354550378423189
-0.0439655424925087
0.04006362205696426
0.0030196363740662077
0.02280668893285147
-0.006561970066497486
0.046568316551566916
0.01641085634888962
0.015056213319989685
-0.04276726987573155
0.06572788475723097
-0.1210027655021228
-0.2237637993550747
-0.037764995599963554
0.0035645529266564177
-0.0010609726954269299
-0.017047167284498944
0.0190066454530664
0.06996654931728873
-0.010048419384691915
0.0016928539729510663
0.0021662744874567067
-0.0004415367639463618
-0.09969292282132841
0.003636424086277814
0.02944457534059355
-0.01450906279660121
-0.021667366333305734
0.011788164023163015
0.0038240042710872405
0.010235800495788002
-0.0231051809666864
0.0035935406041514243
-0.004355371536038553
0.1252423139266566
0.07061010569093756
0.005857536815366061
0.02192044325583439
-0.016587638540303592
-0.031811312082657466
0.0057867043229315705
0.010804389284616226
0.01566551227277813
0.013829980580845605
-0.012022107425723388
0.0035143854513843406
-0.0003909875558061139
-0.06229524447467535
0.046730808848216204
0.0301956903456176
-0.054442831693309886
-0.02591713317276069
0.0257273429806037
-0.028578859196184976
-0.02450196726448002
0.0022541014098401623
0.019752003584781165
-0.030130592542583094
-0.03370833671347304
0.02106405103819451
-0.015237099266810595
0.10806645120787595
0.11674174104012228
-0.043897138403289425
-0.031947497287859714
0.0060291008900006755
0.021007764287678234
0.07120006254540812
0.17190500859319116
0.03160730120490187
-0.08735861554616302
-0.03345573962957208
-0.03087722900423185
-0.04210812895791246
0.06142769946136248
0.07201908426909896
-0.06184080089500465
-0.02116376109541647
-0.02047250414567589
-0.0338185853447964
-0.040924779660373146
-0.04451704142324535
-0.03066476329455811
-0.03440526577507025
-0.022362834455704708
-0.013897826364325875
-0.009217647859368424
0.018205569369506458
0.03692497973296739
0.009781838903301093
-0.007096968425881566
-0.0020950156069575983
-0.047627264687523735
-0.038741126528187016
-0.038740751441986125
-0.0013801352228799534
0.021565432034411157
0.0016231143265146729
-0.020371138324098675
-0.004988076724379939
-0.020218738670814432
-0.03872866058683659
0.0633202397971304
0.047715714084292246
-0.018389609921603822
0.09203582079768327
0.03575937432915617
0.0007918420026110718
0.0028852680277027614
-0.00906131335923145
0.011196439641169705
-0.0164319333415461
-0.018892356357830247
0.0028817972989214438
0.10829068822583343
0.02815789460360882
0.05282929971810183
0.011278256005428757
-0.05627966422876698
-0.022546072544887934
0.0021069559997310113
0.005798100612640215
0.0015798277631484782
0.01361299141004632
0.011752833641341063
-0.0727705053814795
-0.04154020310713448
0.01932624072836068
-0.02196454173113646
-0.011389963568212895
-0.01292543682543028
-0.017800966622455214
0.03739751530724905
0.04252774839603819
-0.01462129584945297
-0.0005990848024229861
0.014139216513141104
0.007838183213209338
-0.012178647095723933
-0.00323618795594149
-0.026790568118790357
-0.06399421909184648
0.009759393912123526
-0.007048233923439046
0.00759022400530837
0.036152268529428426
0.04023965688284007
-0.005051705582028651
0.001236181708722934
0.005663365326071942
0.013161282769241424
0.01233693381409151
0.020402626835693095
0.007397217855063781
-0.07349254402639943
-0.015474097292940225
-0.008756042733265286
0.015993558197398745
0.025000936913325344
0.0007569935012369405
-0.02157666688949386
0.00822292671542792
-0.13920287220287358
-0.032577444319285456
0.03155665767403053
-0.009798574984608623
0.022947402186522033
0.022897261949161144
0.05130424732757967
-0.0585491672560674
0.014144717646152596
0.015913258730918423
0.0012130109133631818
0.0033155482420082366
0.03365713181615039
0.011268190939083815
-0.003561415801052026
-0.005153917524136247
-0.011142203104884224
-0.01948572767944469
0.044696771606884275
0.016547938149739934
-0.017108246688392767
-0.014114426253704007
-0.01238198548150451
0.004816969361609665
0.011611479655969545
0.016196781043588643
0.01386240644917194
-0.016739428424919527
0.025438127273213235
-0.11899421870565452
-0.09537270027011188
0.11000445438147395
0.018057190434148516
-0.00473480012419825
-0.10340239420684538
0.043278165455432505
0.04629388090360875
0.04513560165056106
-0.008203823167858575
-0.020907384167641627
-0.13281761323453847
0.04121347583765677
0.1733136315278091
-0.00786520160972801
-0.06366054909784823
-0.005261461614408424
-0.0018927423427703254
-0.022160560810144975
0.09957033437980566
0.03911928159480234
-0.016288482512980106
0.005880452404861837
-0.00963911266564122
-0.035366641237309086
-0.03518310492671812
-0.05582185200147285
0.02242864356403958
0.02693522446551327
-0.011973923491034407
0.06528717015464872
-1.9167017257175403e-05
-0.039215968036431584
0.01098277837396529
-0.020350032983161445
0.019905673302418797
-0.02928791320864642
-0.023055324251958643
0.001730396919391507
-0.009038080085670511
-0.030259074485782755
0.01514539792059914
0.04625237595523464
-0.014360441748861207
-0.018405798515863957
0.009660292518798321
0.030349755540689728
0.03255778929966884
-0.03218469084276149
0.0004127896441227096
0.028834521904643102
0.017061882635008293
-0.020947902405136273
-0.01363307286958549
0.00205261550647229
0.0006477300059479671
-0.023494665294950007
-0.01691842203352996
-0.026902658244490795
-0.00394264741120737
-0.029217746197867395
-0.015203014433580726
-0.020646616661436655
0.15520612595483235
0.14979816153792772
-0.022306549678337378
-0.013173475612135997
-0.023987745532880286
0.027491626055690388
0.07134653081744338
-0.014564396768274406
-0.0654559714923246
0.07203160337595955
0.04908582090208519
-0.006838463100073675
-0.035349547559460195
-0.04318484267159157
-0.060607061884112794
-0.028947368849738576
-0.055691830078125545
0.005225769873766357
-0.026341722837222494
0.01866781599121346
0.04976785371507545
0.020414233283841645
-0.013248573712147105
-0.0016056000641121674
-0.0513933826506702
0.010659853703856859
0.010229178534393648
0.024179804435257815
0.029730737935117445
-0.008753626723101782
-0.037995128860724835
-0.0022233503030880545
-0.03689745914995136
0.023144069758958528
0.006146498253582741
0.03177429574150565
-0.15903896000062495
-0.06063682711539869
0.01651050273711677
-0.05342075829052182
-0.027867261344897736
0.04169095410838658
-0.000950093680370796
0.0061365968786863566
-0.012390921758513302
-0.04020380486876549
-0.002283258584002421
0.008480950309558043
0.004258524180988178
-0.060947355602833805
-0.008384034457247405
0.07477060592147489
-0.005075134465484352
-0.027118856428240554
-0.0323253430039305
0.09877568159208636
0.021321810361345585
-0.037790788595102
-0.021490507014849284
-0.006842323644810838
0.1588244754178173
0.01676499865306271
-0.03169210404721402
0.169564649697625
0.03557512661639204
0.017305998242274565
0.051602869077328854
0.008167731539022668
-0.0490832694477148
-0.04223620030638327
-0.0038511408340060342
-0.00036299308423300445
-0.03948282951127667
0.028831940300058253
0.07836468489520738
0.03450946323532424
0.004568648193979277
0.007261942419514632
0.030364504025626002
-0.022991237378234584
0.0005780902901484369
-0.010236040338105537
-0.01713609575530214
0.011148049225976729
-0.041999519856840674
-0.011954001474337386
0.039540227896571245
0.0079008735630412
0.002901585436990214
-0.005241396830118388
-0.003863245034786513
-0.03548345211614988
-0.029877801943772347
-0.10291525560444136
-0.05798668016845628
0.023120497165187742
-0.015266798382908942
0.04514333604896052
0.010145138302705138
-0.004012718442796983
0.014076602609343864
0.008824313025640126
-0.0018936595034731109
0.0027165794855030256
0.022849871895486044
0.04322805408621047
-0.05796725053090524
-0.0832105454150661
0.033239656793842054
0.04256486502876198
0.011222983129682106
-0.002418654359077173
-0.1349801465205762
-0.13558907608389764
-0.024425137169876793
-0.010070434963125877
-0.02979609650939739
0.024390863611766324
0.013612146267293011
0.0038092912375804243
-0.004495545525437903
-0.0230720430232676
-0.0012396699096678615
0.03608306950610377
0.032193498882309754
0.010461894095913053
0.0029828847126577903
-0.013094923921484975
0.04790778679497982
0.051609947156908746
-0.044544445746584456
0.04941771847212864
0.08640848765258072
-0.02518720743957949
0.040516872694311486
-0.01372522430880775
-0.0018088832293988548
0.020036783122426093
0.04012711950748443
-0.046614456897974235
-0.0617122451926296
-0.015896248413783
0.06031991045994701
0.1517838970402689
-0.016932743681778228
-0.0013948705709522975
0.016895975474438968
-0.02519108941187436
-0.014969941008531855
-0.008233310090430004
-0.04599491574183422
-0.04290730811731059
0.017833619928884808
-0.010334913083935207
-0.005046259552603886
-0.013782677932865367
0.0007938895972008984
0.014666210926441922
-0.013270145017496323
0.024160339899844306
0.012298249297669563
0.0031878262262762884
0.028848698011986782
0.027206572895606015
0.03988993246904293
-0.019779410483734047
-0.01968388990472739
-0.014030235885308088
0.012266670209040115
0.005084344233200936
-0.02585828350295666
0.039981660902946185
-0.01606518042535473
-0.06219106893656606
-0.07425113537317383
-0.0813493946900013
-0.004087819060761574
-0.02633595773654197
-0.00645306138254119
0.019146965323153825
-0.008968508979535869
-0.03440222603651664
0.014279345861736261
0.04469242593312022
0.03371272082086358
-0.029459533398014007
-0.04222710411054352
0.02405903187437414
-0.0340231842544703
0.12343113052235885
0.02334697388237733
-0.04331600163840397
-0.012625044511895344
-0.01161018600372919
-0.010107696319814867
0.003125915663426012
0.003976196798318584
-0.04020112161580922
-0.007236229163233352
-0.004294141673541363
0.046152961146355594
0.0006920658174324003
-0.009230689543903296
-0.020918837453219694
0.047788920766951654
0.03963515405954443
0.12716022071476915
0.02960748653141856
0.001102775520128758
-0.023694877389130408
-0.006690741012074152
-0.013158845649296059
-0.0063790686603407525
-0.037470007478224834
0.041004291888252206
0.06763000040750647
-0.010450433724371318
-0.034569307979811614
-0.03240095354917035
-0.010281270376756154
0.021746340775017265
-0.01894315351692886
-0.03762755750860582
0.023162477413256985
-0.007855876145323357
0.034716379753647254
0.0054962943035359695
-0.02420296733601366
0.019364463390178874
0.025404248526256074
0.024299460443249897
0.007583400852657348
-0.013387958281213207
-0.004232622374781826
0.010130776153542808
-0.01814404779614279
0.009174849256123135
-0.01214041512452494
-0.007094336626297066
0.007558742641836079
-0.004255435844454459
0.0019709595636967802
-0.010651605992467943
0.044973377385099295
-0.02737561913224316
0.00798390459366963
-0.024148522659341413
-0.04908169705808112
-0.03816666192990542
0.008523405791368531
-0.025235401677559888
-0.00994354167706282
0.006006918739662604
-0.07064216397832766
0.006740903379701156
-0.003947210150088996
-0.019453656165103583
-0.0053764174584085365
0.004561763201886089
0.010794065691683724
0.027024095737745817
0.04700849945702128
0.015480747653455623
0.10065633120724746
-0.027479973340725182
-0.15728195298197375
-0.009928352523671618
0.0030231206646445506
-0.0006365830999479407
0.011545356842078339
0.05471901388791941
0.030667255551733937
0.00480309664549883
-0.005203857190277103
-0.04754546411656998
0.0013219494034205572
0.00648285546654281
0.0029715371567522373
0.004609457597945773
0.03675301523877355
0.013073404636365499
-0.021632473149133524
-0.023396464526792202
-0.001282915027244666
0.0462477308576034
0.009408187810240746
-0.03803277296085282
0.002405874285471779
0.017462771482814776
-0.004245824443000215
-0.0032287880155296915
0.02991410165187131
0.014034478957000177
0.03228829057537465
-0.022839334387382133
-0.0356834646386773
-0.018406558870080855
0.02200216531149753
0.03500439793026622
-0.004926278636199369
-0.07686578685357341
0.06349141163026853
0.0061715841992032545
-0.0038595361321394645
-0.0001575225750281296
0.006732621902570056
-0.04175556317286581
-0.0478458309325305
-0.024160733923443332
-0.052865693813854434
0.019347104220992277
0.013041342351055665
0.0007740139800247364
0.00808974693215273
0.01073029006671377
-0.01862094406369848
-0.00502968985770428
0.013960520377998619
-0.0043789081050168354
-0.0040470254876790596
-0.05919924180374676
-0.012811700230028283
-0.008514946920325558
-0.01849602365219301
-0.0004643646599798337
0.032086739391209686
0.003717656295249417
0.028721306556407467
-0.020998192451191305
0.09912480425502819
0.04735435348343989
-0.008009748217529242
0.05556472158641762
0.011471380632876385
0.00323868410600371
0.0393080567208913
0.02290253738024184
0.001674671881561762
-0.12466658484288314
-0.15227380420793502
0.10812800414246732
0.02243555961428309
0.06017070842985895
-0.05438853923601224
0.04028725939030554
0.14818830695550836
-0.008745113548757497
0.009431817342642717
-0.005906648631834332
0.015890125771491473
-0.008179089017156251
0.00010064977849010943
-0.011230872484361122
-0.03802512460308667
-0.010441824640072055
-0.032981789896660216
0.0010433339909209
-0.013146979628288445
0.0068566602168602855
0.025176269659215173
-0.001093107920457963
0.008577728595484137
-0.017831808026985287
-0.07988940986889718
0.00390934904952013
-0.01419557596966838
-0.0064792240610983915
-0.1298674155197792
-0.07785261764788273
0.0023650740801999977
0.14883988453767885
0.10455666457672148
-0.03915346719226486
0.01984257544309585
-0.011260871492167663
-0.005675788083411753
0.0010940146329536105
0.01613255966713129
-0.06887790903008965
-0.04779220003194636
-0.0014889422863721324
0.004387384474458472
-0.00307512782741802
0.06300719285118571
0.03372864434599819
0.02173509011873891
0.0074278299216322145
0.02619479869212445
0.00911067600085067
-0.0069427670435445584
-0.04371977189003978
-0.02579145407328617
0.014378471340752133
0.0007616130772517051
0.02712947650295231
-0.0020493792235562803
0.008152855696770055
-0.012817455543413757
-0.04064278483968731
-0.03745793117719088
0.0019628863326820044
-0.02557953191661145
0.011283163024294685
-0.0006420803568223677
-0.04017852255299421
0.03445850697416985
0.058467633293050915
-0.03235130361614536
-0.0016101473829142848
-0.012607321186928745
-0.0046431319021847306
-0.011198891502717806
-0.0363615125024807
0.017735669993110995
-0.007103090082809255
0.011312181273693713
0.0025482521487264396
-0.0252265074198882
-0.0258237518388828
0.0168234543609155
0.01462084373282627
-0.008829278847247215
0.01970020404955069
0.001750077011554996
0.01937775332612396
0.0648700936905628
0.036252689638253614
-0.01095853393690394
0.002869656130005824
0.03324691899656977
-0.0027175700168976993
0.0005500840385734237
-0.039373677069829825
0.000813002747400214
-0.04916854838044566
-0.04233752438398195
0.014285763675719059
-0.026577173635397112
0.026901507838564296
0.015917273772889786
-0.012674962867732877
0.018479688716456586
0.004635576208056137
0.03661901299817676
0.020815579107843905
0.020349412822556562
0.059385465352381255
0.03788568743132306
0.0009533474517683926
-0.08672875154008648
-0.02964732723588215
0.013835691221555202
0.032167127523999244
0.0025390181407795027
-0.0049202772796153454
0.048694938264768485
0.036402409399864305
-0.02253700967349317
-0.06683445535883148
0.018851423252885934
0.005086409772420837
-0.0006001674945829239
-0.030435763825146754
-0.009578308667908207
-0.006639726267675638
0.00889374632350765
0.014650465972917462
0.047404393825365175
-0.02696026867481699
-0.022266184976419936
0.009966003940945772
0.0006432533352131188
0.027198205906990215
-0.06286321267035813
-0.15400440420969128
0.00148154877655628
-0.033318345726768235
0.05400700427657366
0.029572251311670336
0.024015561828365155
0.021063740673661385
0.015021583677940667
-0.027567697190036773
-0.016190318405583107
4.803881098793715e-06
0.043572936511280386
0.005526041767552262
0.048069591930338926
-0.008251016480910476
-0.06734251717757817
-0.011955941779054593
0.03776368770356317
0.057397824591426234
-0.039279622634655224
0.008380013183936129
0.034317937663781835
-0.04939751378282703
-0.1400828721322416
0.030944048378432773
0.0641318848193796
-0.01030807798303189
0.016127240080463724
0.0002667176225382484
-0.03013734389321654
0.05926066723019544
0.02177068669565135
-0.001965628855233403
-0.008565484048585908
-0.01092329354030079
-0.025528906791484826
-0.019415811898613064
0.04858148273910594
0.0321669138106936
0.008044537999254293
0.022557203746816266
0.03853437068661289
-0.004969682174253236
-0.025003365165659493
-0.022850294335946264
-0.08745505581147958
-0.0332953968761893
0.009752824154692035
-0.04180212569549402
-0.009556326724420142
0.0367428155305387
-0.017954703300423043
0.011885359972248885
-0.017251143944270488
0.04578167896950425
-0.08246555594803291
0.11555051031597424
0.02874222316640681
-0.03099490159905837
0.0535948429928603
-0.001920238477133875
-0.0016435439537228812
-0.05966733090488678
-0.07148252282460853
0.00530207020488684
0.05126128609034064
0.010133239765475057
0.039862810242188164
0.041463491773854576
0.019510567473863323
0.003806191978875925
0.020556170034861758
0.05522867782174839
-0.08907841834026534
-0.031433683125854546
-0.0062634082811188815
-0.04800993046955793
0.01350201898295028
-0.010469339778563983
0.0024277633589605127
-0.03844978021715364
0.03852854699995898
-0.007035840871515855
-0.021313240752468873
-0.030873023169836585
-0.0022218792204516387
0.015704717060146835
-0.016813861952317988
-0.010944848008521411
-0.016733771273938616
0.0004725699992099451
0.010859223530573689
-0.02960976033575055
0.008683340800408168
0.1129272045946399
0.020986284010232645
0.0049204570587265805
-0.0058269040179162734
-0.004089588032990568
0.00039009558043077313
0.025277398618472023
0.030852891697484397
-0.035982121294567994
0.03200717473924347
-0.004797825366103443
-0.0063069508444825
-0.06420721624570501
0.16311368685035055
0.05826510436410488
-0.014599197435516728
-0.02243661380155548
-0.028081174466953508
0.0025038340862806657
-0.00840750380612845
-0.020448478501080006
-0.01140314755219001
-0.05359665245623338
-0.08038605977324259
0.038812924208668345
-0.015885620906078878
0.001675138793957662
-0.013393981857542196
-0.012714684668768819
-0.039373616247757745
-0.010632514567709563
-0.01364684674212058
0.011327355053103966
0.016005274341366064
-0.03506201410198827
0.0033816400857419452
0.011117861387053904
-0.009270540110798654
0.001040710581086083
0.028861053838446296
-0.024194525397493057
0.020971649287079452
-0.02489764696453876
-0.05272127540041797
-0.009961197408433884
0.09561786290534784
0.07057882928753799
0.014060328922591273
-0.0004978817877882575
-0.03003953002107133
-0.008619006879163666
0.005884526923846615
-0.0054997336362679825
-0.03574854846904238
-0.007099789622021469
-0.01196438244800244
-0.026721097436821502
-0.04857706711392789
0.050519748952528136
0.00799621338835807
0.010988914259311745
-0.02113295738268882
-0.05868547559096251
-0.03100435459886077
0.04065128237745356
0.059317115276802945
0.13375128364735808
0.0793669958240749
-0.040948303171054315
0.047066035678173156
-0.004890865895832598
-0.015416914858478934
0.021485769447736246
0.06081900874209054
0.027184197430023045
0.034366063309794095
-0.0035824773952170172
0.017600360266627653
-0.014636650607026895
-0.013549333494094071
0.0104711180222064
-0.016820847981626752
0.0036576291029151524
-0.025021107306012844
-0.027284150172738723
-0.011069876326702593
-0.07341239093459585
-0.030084385467923396
-0.0032788441826197843
-0.03731593092330932
-0.0237334375619263
-0.011306331953407469
0.01815911519997835
-0.007969234447508277
-0.028755346269791687
-0.010471504026570879
-0.013757216810753557
-0.01238571849696987
0.013574685715218412
-0.030805115572499916
0.03164781898514586
0.035279263645229375
0.0027840928149742454
-0.00032350329182451377
-0.009239093311142301
-0.02095970865307363
-0.05685834668758868
-0.09388529612387178
0.09653759335418408
0.08461673643687255
-0.05151635005045478
0.010439388812252568
-0.025928198404657845
0.014707508407648088
-0.011970379934741017
-0.006433996039728594
-0.008859537846626533
-0.01114060951888985
0.0004884105013387357
-0.024081777974650005
-0.015598909377031591
0.03813905014097543
-0.009153289817407541
0.05809182098051284
0.014385222586013005
-0.019921878024451545
-0.0292342439133231
-0.003936938164489418
0.030515542443310475
0.04903644447469707
0.0003034207514946523
-0.012600800645463915
0.03329144128143179
-0.007332362997745476
0.0015370825409081275
-0.02092852150986233
-0.03588594524373048
-0.01366069468089732
-0.005971337826565507
0.0035500063914808574
-0.05285382442009909
0.01316286222037901
-0.007472050443078748
-0.0072378848744098796
-0.0340079171832061
0.06955507948100734
0.04879029950277698
0.023365315643246905
0.008990492330722919
-0.009417940241437078
0.0445783821773957
0.01681851839847431
-0.011264886509710763
0.05097409870546827
0.00018909556785760162
-0.0005917203163105781
0.08418224224941323
0.04583114317534455
-0.06109479161907608
-0.06807390397235394
-0.02279104948726434
0.004989496671945649
0.06265505661050688
-0.03973767799906211
0.00453083830287296
-0.02880629658868842
-0.011815995382627172
0.02658044638924477
0.05689249919478944
0.05287546942507508
0.0031403495364439485
-0.02244176322092732
-0.09662809403833605
-0.002338105748460666
-0.025051074684266008
0.01473818193894836
0.019595999478335527
-0.0711892751880767
0.0011258825733459845
-0.005804426741422794
-0.02802730663846441
-0.02617735841292633
0.012496638011556784
0.0030098744669444285
-0.00979275032788408
0.003633645615740277
0.02139899561975435
-0.0291934082728022
-0.06890501056681692
-0.08294814379744145
0.041371739521466236
-0.012657111069394416
-0.07921546565417881
0.026808887636805695
-0.01115710486937699
0.006724212845101091
-0.001962507426962008
0.16897812787951677
0.07751988727854887
-0.08558149210136898
0.050960448320306447
0.04171854662793785
-0.0007010063548571867
-0.034197820751538606
-0.004313002010589512
-0.009260698376519045
0.013369120306070296
0.026091652175996426
0.02449952165360799
0.004358069577363779
0.0004005325177879417
-0.001749328267252702
-0.004605408694313701
-0.035196126126396596
-0.043982257027282964
-0.010521248325104876
0.03321814235255433
0.011743153043824624
-0.08613971646458352
-0.05036790471470254
0.07128234714588756
0.09699363946174087
-0.033204855161286455
-0.00946880616112212
0.04187716690760465
0.0257629530051892
-0.004515123900082022
0.03844474761397439
0.02145761860970953
-0.0351762449980386
0.00822078290953837
0.03700619985721326
-0.009139001698530378
0.00803414690215448
0.005471130119416873
0.005015056084914875
0.013447334302504763
-0.02380005449000991
-0.061216899684104015
0.018625478602603728
0.03236674505563917
-0.0031755862794728557
0.017919790238766862
0.03434789327662034
0.0035263766149493878
0.027476549638466536
0.003292748619669533
-0.048493072793338636
-0.04201000998828439
0.0304987142414073
-0.0892524630627042
-0.18026190199725897
0.022963204874758978
-0.01332229094429588
-0.11412023207718429
-0.0010920127569324616
0.0524285267881362
0.012451115145310715
0.023800654658084903
-0.035917560320915864
0.04006886056801201
0.024177294458568734
0.0023809588727849475
0.007933741098323696
0.0011902476010267583
-0.00375008003870173
0.13394256588481482
-0.011735576075903384
-0.045523236387255306
0.026824683723050996
-0.01609916298081034
-0.007421085924549393
-0.027885541160883966
-0.025752842300407672
0.06778191512248492
0.012850093440311565
0.00296199032323123
-0.02249818200033937
0.008227515619551526
0.011218271024706046
-0.01074947988100718
0.00021852062419530958
-0.018926556686471478
0.011822616875476488
0.0027589717742725443
0.01954861575532495
0.032162626213729256
-0.00950967781581976
0.033794963065839845
-0.0028806911156680835
0.003967795748705726
-0.04104395816200227
-0.004597911349177405
-0.012928275023110355
0.022663521454753387
0.039885856289468155
-0.025852979462320066
0.0036775862238323837
-0.019176405585259106
-0.024800842052644448
-0.009279127275771702
0.0840258880994438
0.03044986483299818
-0.02047285360595024
-0.012426858275459642
0.012447218912069027
0.02122037790673953
0.03724540988799517
-0.05789598251126899
0.04372991336719417
0.06253150624724416
-0.15340520170308464
-0.03910079721140323
-0.04034323638665878
0.07749995633882995
-0.035322592176533926
-0.03848973339185479
0.047841370072278365
0.035542613202380245
0.01347838868677889
0.00963075493826243
-0.03608008103554203
-0.02945748382372768
-0.01610881989426606
0.045078059601275054
-0.02867576266469375
0.0021692207621303882
-0.02487728383166251
-0.023957443766744514
-0.0342634576261688
-0.00591291811692705
0.007062658327181314
0.0328274675049805
0.010319414548215732
-0.008167042620865926
0.020716022559453248
-0.022810368089019605
0.05219619590460869
0.007778810574272074
-0.051579493664026706
-0.022065369190765596
-0.017932789305109272
-0.009185106256044542
0.025491889896452926
0.03596063764909224
-0.011253909286631966
0.008650314396119884
-0.00037553720404868735
0.07863710097130229
0.02422965549528146
-0.044081800617385695
-0.01222294892082542
-0.015214614105873624
-0.017849530439334203
-0.008709444275846676
0.11384458571760887
0.04926203919777293
-0.04966250042999612
0.04028517980752299
-0.009810957672618734
-0.012725891453431256
-0.04240041293378158
-0.015938422946000876
-0.006686843468700393
-0.015729912037325742
-0.005987057267755455
0.001448220877427973
-0.00891861632346414
-0.0021701493628406587
-0.02304591842419714
-0.0019358910080108508
-0.019738056183834306
0.03983872428173889
0.007078217199747994
-0.013230775876159583
0.016631164762133804
0.06290925014849102
-0.10160195456885232
-0.016083075283984907
0.0009417898144704612
0.025092513029719345
0.03163596348400196
0.06640836491619183
0.029365967268211647
0.0076911396238251
-0.03923133221444789
-0.049350778104581786
-0.0322087876943976
0.0022710660565066747
-0.006899834213150555
0.008934294811320924
0.017034837333724445
-0.020391018600091074
-0.04162781065554144
-0.07070672994395749
0.016951414146877303
0.023661938060113945
-0.013123034668380185
0.018042666225082656
-0.01795429816371948
0.07368717567675878
0.046155964914049996
-0.1011967428724061
0.1135565860241557
-0.012529389869114138
-0.01541256089386736
0.0674865100748666
0.010886366162829222
-0.0593314385495578
0.005553437479623999
0.019512539728540244
-0.023724055706994287
-0.038027014171628
-0.004095523373699497
0.07551651750693772
-0.013467752714803436
-0.049995229137530905
-0.07588674977047018
0.006443747214328668
0.06940168370432294
-0.006016324215070154
-0.00018268435144883205
0.004376421370344939
-0.00567936177526605
0.02742731938679326
-0.005464171538352702
0.018244445697282306
0.01555553560732771
0.013570068075539047
0.0022331018658590697
-0.06495284829388441
-0.14083930614962475
0.01864458453011353
-0.00206738245573132
0.024095660812532033
0.023775609309415937
-0.0245073932552957
-0.02831424072384415
0.018399850662052485
-0.01610519215316018
0.06973618236080234
0.0522661683724272
-0.026762897205449433
0.044462783394826094
0.043347896263878895
0.04676347576665321
-0.017151244882871435
-0.0012582019725867644
0.029352221644063887
-0.04213158755127871
-0.017380896372193606
-0.01032409097007038
0.0063232450768357755
-0.04445716579988321
-0.05587996315990596
0.008923140829243292
0.01596849508453186
0.0412384362084874
0.007874286993508409
-0.028838447978532567
0.007744720565581967
-0.01927706869590265
-0.018018577036565692
-0.021128029305294952
-0.019548054652328686
0.01768079812178311
0.030740989116723523
-0.020286192606042787
0.04698116063788858
0.04298882467508968
0.045088538348391084
0.0013782367264973123
0.00018982124820038473
0.0011523823961923623
-0.03981210953613543
-0.06677716432893557
-0.012385314793115
0.025661467049735025
-0.003083715537298064
0.03520705308822458
0.025567043088978777
-0.054126228225591176
-0.01612122884677256
0.04126069325656045
0.03729965968515763
0.04775325206893043
