0
-0.05574411578408622
0.004244264315141812
0.01943131359108906
-0.011492695780709463
-0.0787450195339565
-0.0692866860238793
-0.15990371346795193
0.013839999819135083
0.009147606582137468
0.0044551340820290315
-0.04856563501894096
0.016378252648035305
0.013692750227112416
0.008240357539789892
0.001964624585802315
-0.010666857588684643
-0.18419478980866294
-0.01490176791833434
-0.0010450339199665662
-0.005494410420291511
0.01170832845739614
-0.003359360883308895
0.018081671628011817
0.06670550582566927
0.02555607359769016
0.014332612021939526
0.06935037947729236
0.010549081608005788
0.04391205020486729
0.04441470172831617
-0.02649393325331261
0.04313469079299983
0.07822950702974424
-0.006721596067545257
0.01484892078301664
-0.019463608463138306
-0.026688379385314754
-0.021348017461274404
0.007193373695998383
0.011796313186548243
0.009777265668778632
0.00612428115036577
-0.003958648352834283
-0.018121611704192516
-0.006348448296503046
0.0077821330317932045
0.017903197423898263
0.005342367101917087
0.008478205287908096
0.04822297620450098
0.04345367658635855
0.01343880523969614
-0.013328894602524465
-0.020749857415511722
0.06293866551022127
-0.04796506375925283
-0.2105834013454404
-0.011714852874873968
0.01798072059791319
0.03128929642453977
-0.009055897956323791
0.019901240468205485
-0.08523818994165003
0.0016960562450913888
0.03470810839431467
0.020189347884805673
0.002333067036885388
0.016848283093683206
0.011673486845440628
0.00505658543230783
-0.014080151353237308
0.011714769103173612
0.010484626351884416
-0.007615102128602384
-0.011543893620600997
0.01764877258112471
-0.03861942761794044
-0.10083115911336353
-0.002656626150815384
-0.011149156804529296
-0.0023624912248282723
0.006283443075408361
0.011482834664995752
-0.022950390065208614
0.010340595891512665
-0.014116279593891131
0.038237495333620516
-0.03821651514287029
0.022688058878774175
0.008239376966485835
0.029162533654867814
0.1396767373856132
-0.022240582366692394
0.01761979435701457
-0.020836134270364445
0.03606208722220595
-0.0025327907680674088
0.04774424043206125
0.08910250132456125
-0.049234355344994984
0.0005711350769102296
0.019098623185258637
0.03524118620682098
-0.031829317745397
-0.0007535451566787884
-0.019060069012078407
-0.09579769556365883
-0.02090615631395656
-0.026735937935498968
0.00821182071912865
0.004668428000560409
0.020556958620921252
-0.0581650200370081
0.06537401899428782
0.04721790337766981
-0.17863878961377602
0.017213889647824533
0.009603640929275003
0.009704474220243755
-0.005358970636860092
-0.023673968931938946
0.0397148533061662
0.0387250813496581
-0.030461945678037963
-0.0413764908441092
0.015725946009463806
0.026862447066276725
-0.01262085614012978
0.006046866874357655
0.006637978545008298
0.011102278292669973
0.01240972398134324
0.016315573755948762
0.026464107750467106
-0.0017709427330804485
0.00503029404163523
-0.00532420553269052
0.04336546914840355
-0.01272456992183475
0.07626987826738142
0.03384959244303913
-0.056066292072019484
-0.10282841424625117
-0.05965179764337468
0.08069900938514638
-0.016144160242403116
0.041434611279535113
0.04056846338703875
-0.01437318874979052
-0.1011466705258089
-0.019621877021344485
0.010695323152126625
0.01746569823824353
0.03786730433772598
-0.010227397384233878
-0.004856181468273022
0.002504801308090508
0.022739386031032264
-0.037307093705532056
0.042188998483602316
0.043296677131760004
-0.20445442919486576
0.008331007962631861
0.19476016291089665
0.01519109501256175
-0.021695825617667117
-0.10192472848576421
-0.04797151449100648
0.020584186194765496
0.04318009147936145
-0.012281127125456866
-0.021222216603949934
-0.023630514718561122
-0.02154491098032471
0.04616066543034031
0.051798093557204467
-0.03337325617899235
-0.010971657622095732
-0.0044791198208475975
-0.019962678768782934
-0.05458448475060398
-0.02823085377922664
-0.005235800418807884
0.009218096720218753
0.05102256170125444
0.0046333793879184725
-0.036375238872949855
-0.026313546041465154
-0.03893381106461069
-0.10086955405293517
0.14039003723722954
0.04064016081794736
0.008115913408242175
0.018868467509835347
-0.002006742933988295
0.026425208634623158
-0.032852738666451144
-0.04874948211038471
-0.00435586845335176
-0.0013291150413468505
-0.005224729011857224
0.06500384701184597
0.010545831169320494
-0.0016711811155541974
0.00040127073012699045
0.012300798739008975
0.00911050098547226
0.029465894730297218
0.03593388025286599
0.03818865702943682
0.017816054673256136
-0.011336631947637229
0.12643518225613498
0.012701870590004117
-0.0005225542919565687
0.029222475691735944
-0.026923829903744693
0.00814870165768924
-0.038216807111274925
-0.0480174088084012
0.010173654161226942
-0.016252364302715948
-0.03741890732044265
-0.03838880757492789
0.0015099442496546397
-0.014784469061507061
0.020987010511815073
0.041832857068803596
0.001036153620378135
0.02460195927776072
-0.019872649034400485
0.011820897839833398
-0.01622285308930708
-0.009529969496330231
-0.01730541445299219
-0.006562125478274368
-0.019927827368890948
-0.026618375311097158
-0.037286994880202
-0.026624884186051013
0.0022595524730150986
0.013481217428671042
0.025998683209035714
0.010277583957144258
-0.033973178980217573
0.0005673123894927003
0.011159922740217201
0.0024723211458454884
-0.042935556816597185
0.011320092927578303
0.020470918349964305
0.009089663980142144
-0.015982646210690867
0.018668656422705945
-0.0194969973754208
-0.015131711498774184
0.02516878912478095
0.0287618344729974
0.026415351873110744
0.012683707679892707
-0.015886326224248695
0.027183936482290748
0.008881751198784427
-0.03342944129233065
0.012421533142495946
-0.019733716020067866
-0.06422757738985513
0.02100038157448265
-0.026903569153498518
-0.018039484547025513
-0.00501922159458053
-0.029244503728221436
0.01048280696079175
0.01765264064136477
0.013251523502929444
0.007127296356649124
0.0008299547373996498
0.01595088937534533
0.02491662054143778
-0.015301871200787845
0.0007706513470682679
0.029246735840887363
0.04926342083479428
-0.0007827555161742155
-0.04335261329201248
-0.009705275070339213
0.021779965424931415
-0.01037775094482797
-0.011773052227225736
-0.03283862681267902
-0.021768597158274103
-0.07047503279030645
-0.020387624383675404
-0.04880173460307401
-0.02349542814730976
0.020510152943894844
0.03933116481187314
0.06752083786067291
-0.010928014065662635
0.01499051373277156
0.0761525820071201
0.03632148496575649
0.071232485317377
-0.006327883023938882
0.026244071730585974
0.008177249591800963
-0.013969502688843756
-0.012390356500293166
0.032232759665267355
0.026495293196314135
-0.05705823456834749
-0.030020974496548787
0.0023528765806525346
-0.0014360939559714394
0.0025871448018685867
0.005773111061925073
-0.0492101033812313
-0.05954576451435535
0.0006833933549557372
-0.003269417968038396
0.020246420726530674
-0.000191802492434559
-0.01897468200380471
-0.00981353006332635
0.025448684829895277
-0.0017908710796515632
0.012585731090796175
0.014542805702436016
-0.07117192580504424
-0.0022741879017293704
0.089508650509473
0.01576058329611233
-0.0019304843943049523
0.009340986082100912
-0.010402197181020622
-0.030271019264736444
-0.006982082863530591
0.010478324132707512
0.018992572891437756
0.044578501367684466
-0.04381277145278278
-0.024551818163578477
-0.012143212468955306
0.0015411923860718269
-0.02230256613859733
0.011768794966276579
0.00818925338734192
-0.02856995182714187
-0.010985676638463478
-0.017452860946659127
-0.07707223880917038
0.014641158321995078
0.047333544552136515
0.03725877698817434
0.0015780853342430806
-0.019767905830013324
0.019910978420765113
-0.021492955834995203
0.058168099598152195
-0.020196008837437468
-0.02040757858174013
0.0040377956470712935
-0.014837808887970498
0.019155365948755124
0.014963640820893711
-0.027302745944771837
-0.009786752748907003
0.023713257694047803
-0.0028023033694031425
-0.018858395494152653
-0.0007586165564881309
0.004687318840113894
0.0007940316442330225
0.03894374129479284
0.023802429355766746
0.029869964881060983
-0.024633300851240464
-0.023351624316342134
0.04778979839022283
0.03592389254689746
0.01877805080526514
-0.001316937891699228
0.0310035677718183
0.00019881985535503567
0.004550371675811569
0.007446882954216945
-0.005949632684665665
-0.049755238938920296
-0.028179188274704385
0.059923731873113624
0.02993238832577324
-0.04725584095509324
-0.04194789720881245
-0.04563328563652484
0.0029671276537561716
0.03464987180888456
0.05066560013433987
0.012429686097770672
-0.08400017524354964
-0.06189538888491339
-0.052492553551239524
-0.010171996715854914
0.011279124160015584
0.02276419095054071
0.01572063626422314
-0.019979445463755404
-0.002794340206660741
-0.017492306345542646
-0.03413418997592608
-0.001475211227394952
0.008605192774670067
0.03495606511897236
0.015664131656087495
0.06510379298949866
0.008534825636151466
-0.06707534138322965
0.03345111767108967
0.03189554533019903
0.019551887121131803
-0.09976869898611693
-0.02132125603392333
0.010467395160623037
0.03788159488818444
0.024643089577143357
-0.011893876114862074
-0.022096404245711136
-0.014130349665589379
0.015304608655103816
0.01842789987963207
-0.03446183015925265
0.02632682411774544
0.005224026350544621
-0.04524245426008625
0.003185406626767889
0.05307391039762842
0.03783228803602818
-0.0025553445787823825
0.0020813876087863534
-0.01946521442780211
0.030852517327803367
0.03619942681012439
0.009791010320632437
-0.02858282193549443
0.02713862331928173
-0.009057106644209606
0.04330908310516851
0.00656421539924193
-0.0686723426975127
0.01729848597994925
0.024363451258513948
-0.022016875368700863
0.004848677262243369
0.01638901345809602
0.04503587440010317
0.03389991186863747
-0.034486901395486935
0.008942697641162988
0.00028908173110270865
-0.0067280482642847845
-0.05193260874099508
-0.0007032152466881609
-0.09152952044130303
-0.1220142169667861
0.013862642115870369
-0.01886230489417245
0.10153366342377258
0.030360149854025516
0.012107829169423953
0.007903747358392194
-0.02614994758814763
-0.15073222635242187
0.042552256212974426
0.018568123448835124
0.009088111286743654
0.0009771818866745898
0.03917563892974758
-0.07006613352666652
-3.4373998960879245e-05
0.045263778547176524
0.036186295462437075
-0.01813114304467595
-0.05048536708012461
-0.030481258435735514
-0.018218609214032882
-0.009706438315787635
0.11481810668533242
0.018919606132762515
0.020168868664585372
0.015875833387349488
0.024675005931531994
0.03293998776882572
0.014187170782552732
0.03088118613411514
-0.021303817091792535
-0.019337424267800052
-0.026020542693124465
-0.002988192259466114
-0.02450934557081338
0.003460632287857483
0.007000594044820396
0.034301220961934414
0.013352844056360613
-0.002034727338220909
-0.009228777729185948
0.04990453198260558
0.041828050498870194
-0.011732046235786274
0.001358467342040473
-0.00546145296571432
0.0014415968033281669
-0.023442557498370153
0.04447664465540755
0.03271630831131903
-0.01672140180831882
-0.035014019080145876
-0.05864557715849689
-0.03681286437500585
-0.013100363338897797
0.009516668471370412
-0.08788251753043798
-0.010854564324924045
0.017725618832731375
-0.06534307745366653
-0.0468826809309042
-0.02244448596900703
0.08075406800654192
0.012861291024314695
-0.022285844885858865
0.013330718747098909
0.0015494905274887362
0.020663320169502716
0.03412960211497691
0.0021668012635683897
0.001968609233243938
-0.04787175242136053
-0.018261589166355015
-0.041831536622154164
-0.0036795657242334775
-0.040977326792802575
0.08774324097415047
0.10111798916733283
-0.0160053637823338
-0.01593069963636598
0.00017620301480427615
0.0034457453529610892
-0.029298319888541022
0.037126045880727494
-0.007013806513419352
0.03752739280456674
-0.0025487009266614404
0.01426359576267863
-0.003320603697021274
-0.03480124596168662
-0.008457130684939433
-0.013208860098998033
0.08575890091850522
0.053822332012108905
-0.05243518829525229
-0.015575896468165765
-0.003744270450322433
-0.008005323438056752
0.007290398968589736
0.014938528586217881
-0.02130284925927691
0.025528268151679273
-0.018403194728005515
-0.0012244925115588508
0.0010742109528787548
-0.021253236090040366
-0.028769673674836873
0.0005039720056873505
-0.001122572995632544
0.028501909472627943
0.009607029348202024
0.0015288694099779157
0.006856666222899244
-0.008972495682988654
-0.015905181381586583
-0.0020979349427923347
-0.057097486585611985
0.013843850376882825
-0.04064813706226647
0.025273639339163666
0.027782610993495962
0.006400102239213252
-0.03333914402998053
0.0044615729461699866
-0.0015611999673964807
-0.01662986389423161
0.04071546239863216
0.08951919599835069
0.00145114003038793
0.05161522194134914
0.020013096225318293
0.017584385783830713
-0.015296696106510146
0.021941486164745845
-0.15484546664423704
0.04475898592453091
0.07371040317525768
-0.031309414508897675
-0.01675891221729712
-0.01937191462516712
-0.03224994875133981
-0.03917023174514849
0.01460115940869046
-0.0061510829736538715
0.015405617928120717
0.04259843124279262
0.05101019075804775
-0.007866252395529325
0.03568870026124431
-0.008919530504494896
-0.021159352106853498
-0.03771783661239338
0.022513091412682023
-0.007911325677518089
-0.048946003605755586
0.09773691982431065
0.07381848590778665
-0.024411509038457395
-0.08079766008590016
-0.0465480434062776
-0.02933152469168724
0.016068142256667667
-0.004690107659652614
-0.01158362687820738
-0.022571952217887076
-0.01753711408792363
-0.003534804768287571
-0.0032856581493581915
0.04099310058745923
-0.018893025816013004
0.030871362850577875
0.02379513924242799
0.02963878888433976
-0.09538214994933757
-0.1127910909526855
0.014198848566489496
-0.01959262107176653
-0.044749011786776996
0.03720340278567759
0.04288020954212617
-0.004038052556510524
0.016015208950443647
-0.00560191262347343
0.007641840698415106
0.02102089911753946
-0.022632558284308643
-0.005881493790359129
0.027132284354276788
0.017262121226434425
-0.09596249655507158
-0.08057494256073
0.03441463515107303
-0.06054118286526912
0.15632829440894797
0.12130787339562898
-0.02274476391716552
-0.008401767341178456
-0.027364347124619624
-0.026672444170806543
0.009548084031462987
-0.011019090544492377
0.01749236350986802
-0.006133301805509328
0.00875287792800631
0.012562539747353555
0.04642129956140137
-0.02447524317838402
-0.03479045837066677
-0.008952645471386895
-0.03786446681188627
0.12510979613809228
0.03075432127712623
0.015751770493951836
0.03998514430244486
-0.029771881945940083
0.005225376133062257
0.01314766400731037
-0.024194007498262764
0.0005652878611821049
-0.010211985840223358
0.0571619436985306
0.04439441403720437
0.03765675727008275
-0.07314442607182617
-0.03485692639588209
0.034078688873140146
-0.04206909022535534
-0.036563463112342834
-0.03874508618070256
0.014146713465309463
-0.011475545863200876
-0.02142248165986582
0.01879654818332103
-0.02767532475119777
-0.030159902369776788
-0.04263308838885785
-0.03640112161663325
-0.009469828052912544
-0.0431410454875531
0.010085122278014877
0.013574593807714981
0.03583775746893732
-0.02613192922024777
0.03647879794227433
0.039889092305625845
-0.04310163579953486
-0.014700451575393035
0.11253516870685755
0.023812878433557793
0.16346048800756355
0.03069664341715959
-0.07736831696728624
0.0045416424396416445
-0.01797382480384028
-0.00784738218538635
-0.0156089141358942
-0.004609741176136596
0.009470153847841268
-0.04537951256217317
-0.010469738593274783
-0.021015436229576787
-0.029806189413766823
-0.024405666140814956
-0.003511309501477229
0.007772853858272612
0.0015359473032466227
0.05494454913322277
-0.014752182141511446
-0.03919149795107358
-0.043343300937273926
0.08709139766314819
0.05178173941194602
-0.06146069901804062
-0.006621180375424217
-0.020842858326320064
0.02111359143029386
-0.01315276516753829
-0.034057205559154084
0.00933339912821621
-0.0008736141536479054
0.006353284074457201
-0.011695819715854103
0.0050043641882286174
-0.017511116643144708
0.011439741920808872
-0.012490139518883562
0.025234314157935044
0.03359803381789676
0.016357806496334046
-0.053959612886948345
0.00299879590008475
0.028605278790072085
-0.01578603166060818
0.023649901037541925
-0.001862251891769801
-0.023646474928788436
-0.004720533318466949
-0.009100415062192505
-0.02251161661192669
-0.009537349494252558
-0.0365860428214286
0.03479481519042376
0.018077120325698293
-0.061208459275650294
0.011811847226080394
0.027918635407464736
0.050612155014895084
-0.013006328973726382
0.030705374275448255
-0.005348306260109243
-0.048331778064876936
0.007859295252315109
0.006772518292558349
-0.01573249008104697
-0.0007476048901552171
-0.005092672137662426
-0.012589119949608178
0.02227264235347063
-0.045688939627529325
0.105242362430612
0.11549420171174218
-0.010615282967149269
-0.019117190618491327
-0.043103978653216815
0.017575499250520748
0.036876519365509286
-0.01863999986987211
-0.01470628382091319
-0.0008095233715593615
-0.0012858277853764748
0.01690266274408582
0.04879859616435866
-0.033164690318128555
0.014321108110467108
0.0006987604517451875
0.01866316373460395
-0.009866962224369537
0.015069233273408422
-0.05467359193993839
-0.10676981371048606
0.005692273518225544
-0.006079589469300318
-0.0023400960616946943
-0.003570959318935521
0.04741274745068011
0.012422101493978143
0.01026535666901228
0.001294590500778027
-0.0051611861513234745
-0.020509077402101845
-0.016394443392166804
-0.003872083709954335
0.011442968354893487
0.003115041864696086
0.003373498701257933
0.027884749107801532
-0.010594622295849182
0.0124827887093063
-0.04444821278661912
0.008929557828003382
0.019347496212356766
0.0010720980918677552
-0.01958529068467835
-0.009340444084344117
0.006147281744124459
-0.011889911002194442
-0.030426567387439353
-0.004022423478140784
0.006603640873883749
-0.027039196915536152
-0.05488330748502399
0.06261265931063585
0.005621388438949121
-0.017207706344539834
0.015059408855354867
-0.034974004493336694
-0.05344750619084211
0.05054230189947707
-0.03089164818794818
-0.036898394265455596
0.051090542217973864
0.0006498586859140264
-0.028790504167574373
-0.02991356936602733
0.007449206254611223
-0.011090723646200657
0.018434358069301892
0.016854441242293607
0.01513621211247582
0.025154252912723645
0.0008019680445494014
0.06613757925706598
0.005428516763905683
0.009290325902623922
0.05479171210852679
0.007899246353598247
-0.03552883643848999
0.04527232127100296
0.027960803177488874
0.006890887921608139
-0.008618219238155625
0.030526079666495055
0.005046032235512289
0.04157814664542518
0.031244204486754544
0.010754587714842412
0.034579212005435865
0.005651921368307946
-0.04269966055072781
0.01352832617792172
0.011915002775196037
-0.07915640219654647
0.007139989687568722
-0.0010510782124242629
-0.033601809256240886
0.01733544501245528
-0.09792934605025345
-0.05681830839266886
0.01108324358006447
-0.030987619061954286
0.04317953263484056
0.043910903283068785
-0.007017042120536657
-0.061218921654794006
-0.06160988442676415
-0.019066536181617535
0.009246057200171428
-7.420040179156057e-06
-0.005278017961814227
-0.02997695635508585
0.04489059637707341
-0.037437465225672595
-0.08212174588023075
0.040039429793609374
-0.004894633984967546
-0.021232382273673425
-0.08874126485790311
0.002003435799680195
0.0061706332327514
0.009680064440431672
0.006118377017793226
0.006178868892941289
-0.011205089292868392
-0.017822944521428637
0.022524936334378895
-0.004239609675284677
0.07503358328400293
0.08094883686909471
-0.03689323109417389
-0.0005296681047081792
-0.03912137509037919
0.024889617698010815
0.07263404919477152
0.014319743717981394
0.012212144115940833
-0.009530816086687521
0.0029260215036244295
0.0010871705275019561
-0.017301143330649384
0.012956220219410713
0.1505216495563896
0.026761058939019183
0.001508876315278374
-0.006011474261279933
-0.027708726690846848
-0.031277650563050235
0.07359776620780688
0.06280615058357839
-0.01342246428623752
0.01655776683363892
0.01704407570912325
-0.006543908371566636
0.0008483838229519789
0.037925950638559254
-0.07612325137245954
-0.056136722821427135
-0.008802925650935198
-0.03950213941085526
-0.017007742495629186
-0.023454108879079352
0.024022604949948095
-0.02883037287109065
-0.0684548135631026
0.030993198833721595
0.017789741253789033
-0.007144420565697838
0.01735342026641264
0.011608371385248438
-0.003666182458115827
0.002224603145681182
0.0026076145985855117
0.0022279813381654856
0.02943289527672665
0.08543094923147655
-0.01885831988783826
0.011146503775418891
-0.009786817587689919
-0.019645989599525737
-0.030141648400212724
-0.03568937216102197
-0.02059756128580888
-0.009102595908399182
-0.008025239195180422
0.02706974775305661
0.01263063215902704
0.01844101456274109
-0.017013593023177932
-0.014736584433012841
0.041597715642779275
-0.010095842550618836
-0.07317469395197589
-0.04854437426496236
-0.005172142598464549
0.003688104519968635
-0.004964693422866701
-0.01464426428445179
0.027575787986081915
0.007053844126281263
-0.04880089571517108
-0.013007384459482144
0.10594871480665444
0.02389732160221693
-0.025506475426210783
-0.013207504933588606
-0.017478769651874792
-0.01786883292507262
0.01936502375325084
-0.016011435649682142
-0.0198019682279522
0.005082972142883162
-0.010807738542614869
0.002827524878127652
-0.030433930626696637
-0.047564022925338796
0.0056553162716913115
0.03910264288880256
0.013008134564167158
0.12246823455959123
0.02878546727340774
-0.030182081380721145
0.019003916091354055
0.04822207305904407
-0.05377036853520442
-0.01369715999324387
-0.011537596241195217
-0.004735190585141684
-0.0023215137476400925
0.010767070069542136
-0.0406170496609149
-0.020200134956192432
-0.011860332313531952
0.004200873461906295
-0.0016428657337326726
0.07327604270503463
0.02979482575262852
-0.01365221139247388
0.038854964867637565
0.010328368347400037
-0.018707670830112107
-0.016776706188857054
-0.006440854703488596
-0.015289749581341322
-0.15446533151935776
0.02442094434224999
0.06336068657446331
-0.02925882003278643
0.0333801042294139
-0.00873233207012532
-0.032339606986736255
0.01696929496130173
0.014219602462596083
-0.01116942285218992
0.10799554993335375
-0.011621148703463672
-0.002836907872471315
-0.033472880124719544
0.0010225184495207822
0.028589551695461297
-0.0037912619029904586
-0.040611826293271584
0.03557364272019021
0.10295016298944597
-4.1574765279005956e-05
-0.029077964712859294
0.039417687837650345
-0.0463096730564261
-0.17045565355688932
0.0792821174178494
-0.01158716022480376
-0.02332429945485973
-0.05819453570091686
-0.03365483209372171
0.023268551199085687
0.005191875080395468
-0.017261738544222326
0.007688041619887977
0.022780666434453412
-0.005381011579415075
0.02099097970287977
-0.06244833357615962
-0.03178799199173133
-0.00914347963255959
0.05540869250789561
0.02599956029055117
-0.02088174506827787
0.008516054093563217
0.011881226054765671
0.006647529624111929
-0.006969049181740095
-0.002563322940492643
-0.0029222064772879424
-0.01967228499393035
-0.02670801024884059
0.023326981847526015
0.040058453688643164
0.009991260466929401
0.0012816519444057586
0.026081545144532436
0.022155348386355495
0.09216728316680613
-0.001204112378510138
0.04522937383252262
0.09522958452112633
-0.08771262566647926
-0.041310593518770096
-0.023963998240188106
-0.002436825208860225
0.14917034210070776
-0.02415441557266957
0.001577647854530602
-0.008718363489352315
-0.040677966315395664
-0.01888793684799296
0.01618778897492312
0.01855221479801331
0.01339433158216128
-0.027760335886167952
-0.02788595127920623
-0.01757383572917846
-0.0016203445479467994
0.011943754694432894
0.002282925150049834
-0.002099408046562887
0.021003766924819686
0.056684474856833256
-0.1088323265297045
-0.06701707760624459
0.015777285601444344
-0.014723279379696636
-0.04245196439172546
-0.03803364839862822
0.018667347017055583
-0.010833871758780554
0.0024384050227696788
-0.0012769326730257603
-0.007811964740060374
0.01987655933589086
0.0032532343780238126
-0.032560770374680276
-0.013912712446371898
-0.010503397497024725
0.047673485951033386
-0.007564308818742448
-0.023900439676541763
0.0006845928353404904
0.008608249934919427
0.012562974601164126
0.04276865881549733
0.0039573822496481
-0.010596557007123586
-0.03857627106405425
-0.04150818315495655
0.008315564179738073
0.01192440252612854
-0.017981187779952737
0.014761481446854486
0.031674104852739464
0.01569715148439159
-0.003985758566455107
0.00012820341766005776
0.04169212116023861
0.029597217435456798
-0.0009086751290693997
0.018549139173990776
-0.01692527005486963
0.0007522199187967438
0.01457294621587794
0.035069530858437524
0.026535734693881798
-0.030401348629110227
0.010404986918349783
0.05135122988195309
-0.004331613084164229
-0.006503566860217762
0.00794751327395455
0.019668785356855626
0.04949369117059782
-0.031705322135426615
-0.01246397462467189
0.021288223885361963
-0.026405493092165548
-0.03481572027554777
-0.025140677921569043
0.03558078874087966
-0.004881616550643314
-0.024648474183619852
-0.046509126595067195
-0.009015899663585625
-0.01728867561993362
-0.007548514812273115
-0.027290876963231857
-0.01523939305506312
-0.05574119678652854
-0.04717464158731262
0.0449173615637043
0.030133252946838145
0.012110953301904518
-0.023086758513782658
-0.06721431747803279
-0.01532620724893555
-0.03563731866084724
0.03121558986076367
0.00029723994939844883
-0.015479356271023573
-0.029805808524941406
-0.027596738369326548
-0.01422129482149598
0.07634337907311091
0.007641343031964992
-0.0024567590546931634
-0.0024480912341365776
-0.004619531549018519
-0.03386667962763477
0.05125823850640786
0.03945857603132854
-0.014307749607472973
-0.004768542427983762
0.000837052000312341
-0.021466932137362532
-0.007583037045623145
0.06637849723543154
0.02214839528656864
0.029333274024313002
0.0251547449824912
-0.10113762036376361
-0.03924792357222283
0.09142707737765822
0.10186536149873564
-0.009317474368603479
-0.03160911242677423
0.20848838965651864
0.06432158388688644
-0.08747361480401605
-0.015370044470374501
0.014389826715536125
-0.008350021755397554
-0.01345115523435288
0.018295241342226657
-0.0186088241556054
0.03873050749605134
0.022667746457174492
-0.028161136088849622
-0.027255395072530372
-0.013453793121440164
-0.021720637043308472
-0.02590123750611879
-0.002061048931683175
-0.021646582168148822
-0.00031969794296460654
-0.028218689305086416
-0.02714051525551887
-0.020454506416705605
-0.0045566631261292545
-0.010566056208622625
0.004686564678569959
0.0309843850348486
0.025470776407764278
-0.006359642120575058
-0.02447068056689004
0.0014649211343626027
0.0008939638521412912
0.0011056517120300246
0.019343425334862142
-0.007331416492325462
-0.047178023403379836
-0.053210251710498147
-0.01473980254153464
0.02770273427671436
-0.025448511070332788
0.026220302096020182
0.023922477410152795
0.030941967997295823
0.027102087166444
0.04805455055939336
-0.04523074584173488
0.05126048643120002
-0.005573055318526702
-0.047357324884949606
-0.013696740164320188
0.014636196120294598
0.015797642937437368
0.01632549494478468
-0.022364726461005593
-0.08426979189634466
0.03373161830092566
-0.014976780117762665
-0.05003046738551306
-0.002951014566628261
0.0071266675580629905
0.05676564426038548
-0.010696404954247006
-0.02934156508661299
-0.006990827185902462
0.005821148248626646
-0.038716308931786014
0.012662990781579411
-0.000669982839514145
0.015270760541264122
0.006650159030300186
0.006010051642798127
0.0006167723791754358
0.007997205216520113
0.010101842713298666
-0.02425334294405352
0.0036160068201840524
0.06050502467222904
0.06960373873271251
0.003113705190624705
-0.029394182281782085
-0.04903122492446034
-0.04454714306333086
0.022533394186497132
-0.040555244650466074
-0.00426206641048637
0.06074857581982595
-0.051096806511141506
0.005842875602424036
0.0435471832358638
0.0038930946194817434
-0.02170639103050007
0.013461046536877722
0.019830987333030823
0.015094389713245449
-0.008260603777827528
0.013694177596778635
0.041189234609519024
-0.01870277646856667
0.003128803129813732
0.02202753998954858
-0.005964034846425525
-0.015075924263410707
0.01866029267317461
-0.05011940189659463
-0.08982626477602917
0.03270358918273694
-0.008674765827009856
-0.056427063637156424
0.005677789644909627
0.03489005377125713
0.005555731049538447
-0.023419847055827454
0.08319575633022513
-0.00025752628427514466
-0.018153098833485187
0.04060460862645959
0.015079404603379459
0.009783752641782394
0.014504476972062124
-0.016508769422392173
-0.012236007070884342
-0.007609028779308172
-0.024079864383410948
-0.017191465535646364
-0.014290989057702819
0.0559325040608064
-0.008240338959737052
-0.045844090004466626
-0.03481053235001847
0.011539517535820713
-0.005838484192690879
-0.010150037202176013
0.004081467899234198
-0.051650872641597005
-0.005793198310339913
-0.0014346052961391835
-0.019714690315375434
-0.043625316298909145
-0.020562621792955014
-0.010912665719822738
-0.034349372225135205
-0.0037882669958089624
0.025453255210020304
0.05728209749554145
0.04767973811028014
0.06915422088810123
0.1345046516131733
0.12741294749396018
0.02740072586256781
0.01773050066609855
0.009614721969233197
-0.01272670308751571
-0.019588281647571974
-0.012380892791132189
0.0037084323130700697
-0.009233367580083363
-0.00011692652096108639
-0.011663462373757878
0.016865069557882546
-0.025672042228881198
-0.0054911724583370436
-0.02673203781426907
0.032673982641124574
-0.14231733255244616
-0.08484773548254157
0.04716673300134533
0.04543781147931075
-0.013457925916907873
-0.08199427037000935
-0.01905959461178032
0.0012191466646311433
-0.028378639827500596
-0.009056315792843217
-0.011183356665391614
0.00490549478820325
0.005243734010479841
0.013760650026878164
0.01556232057976544
-0.0002271273159153188
-0.02050507001351696
-0.003193799891790145
-0.0021099951632157477
0.005156139919408144
0.04436155007062113
0.07766293902194583
-0.005635326508947472
0.01382387241605624
0.002116026588507387
-0.03371794813088405
-0.007610573424269283
-0.022078283776032055
-0.035931852441349776
-0.06688154187787979
0.07644695577098992
0.012326436443952368
0.006592790681028025
0.03222841822005973
0.006601799084012407
0.002390721950462586
0.017827462321559143
-0.012971136843959834
0.004144237950229093
0.03125137461309061
-0.007968846536289152
0.008540837762383409
-0.022115790602518618
-0.011356205061624122
0.023978058317442305
0.007659226265541959
-0.011957696108316167
-0.011129461756928983
-0.020354084534812696
-0.023006109163501057
0.015579863405556546
0.01002372063873668
-0.07223380134081768
0.01567258046624403
-0.024661485206911183
-0.07053872844989191
-0.0009218200419552613
0.03481067586451477
-0.004902259836456786
0.0155152252686812
-0.10190456192046558
-0.054264528851210456
0.1462979837153808
0.0017433161524290123
0.015580492163535789
0.020970991313158754
0.014850269807839109
0.040878996474313915
0.005518520306920773
0.018604733491428303
-0.025460476339298738
0.052555849648116236
-0.028684392257183826
-0.02932083539574779
0.04549362659312762
0.0617600070520142
-0.0016067241361767276
-0.033133547414055664
0.0014644451928024751
-0.015849937774923457
0.010505997793440927
0.008264309975965889
-0.012948306112242439
-0.005568243040358406
0.011479985991814677
-0.005040790665982001
-0.03967602122717204
-0.01700588715190518
-0.019340770192610747
0.02026395466506235
-0.01550166835031623
-0.05859297381418172
0.06543933382783622
0.033923844908856395
-0.010671760907561414
-0.02011269559965681
0.0050895869141079795
-0.037003176958291494
-0.01921535465954641
-0.003243870294780029
-0.011850368804238808
-0.014424508831882878
0.0002983413662293562
0.012174555589714418
0.006638086263351431
0.0215248549142241
0.03799174052008551
-0.029204745086153276
-0.04482621722026143
-0.003606170940770046
-0.009474986798126804
-0.019113169513202057
-0.020239749380293656
0.045682882208439975
-0.039025678723224703
0.10531329216823748
0.19120433701827458
-0.025059383602910268
-0.00800957800838057
-0.02508169554257988
-0.0026200053391965804
-0.002175891121257411
-0.15378723910235612
-0.05557428874425612
-0.0008318292869567725
