0
0.033835007851171536
-0.013092808737145746
-0.03046771706904098
-0.05124575585295706
-0.011392590716770151
0.021938496011871703
0.033850074288516434
-0.013377848697156285
-0.005152639812604488
-0.0029360120745714983
-0.007751469963841885
0.0019980620231701334
-0.014328915530933198
0.015062100490613538
0.046945720136895346
0.042519619797944504
0.03308076545308056
-0.00586869466969827
0.006687607802297152
0.0038398658504915154
-0.018244119608509454
0.06475823772634717
0.05874203748629753
-0.019427236926400752
0.0015680925793392358
-0.031782541389893185
-0.032810090669163156
-0.025058952130723813
0.030466111368307073
-0.03235633813721457
-0.12057326469960383
-0.004959893698557695
-0.02207462453859095
0.02785009829550541
-0.017595656284235334
-0.010519239005041172
-0.004255483257642646
0.017688436911127214
0.020801310359646746
0.022022715594747406
0.03800656682572616
0.05201889644466549
0.0208370427995532
-0.028931212536098823
0.02934677883533951
0.03788625804650734
0.04691982655559381
0.02492082095191374
-0.0028146162716469352
-0.02045067836041207
-0.014288679362158408
-0.015704605474648307
0.011029998002909195
0.001200443666054913
0.020189649813989793
-0.022750387351154214
-0.09623918138549159
-0.16794590835531611
-0.06715252422347584
0.013258219408140749
-0.028733546747230474
0.001911175004644357
-0.006861036812873862
-0.008041570585337488
0.023259626126963525
0.014953240238671388
0.002109188636932452
0.043591523514458407
0.03374303720890815
-0.009695369687994069
0.025752960943674432
0.008817040368587688
0.026564447024333537
0.059230209611780556
-0.024541963108951365
-0.010720819350799077
0.023077260560855135
0.002268773605250156
-0.028230174266342264
-0.009885891502439396
0.001936483377062843
-0.005270696042330593
0.015625412293234747
0.04152919654252423
0.02363669038326758
-0.025121698526484566
-0.029317043721500947
0.03850646982038186
-4.726120862700625e-05
0.0035180480792943755
0.01627741986904264
-0.005683132994679237
-0.011004651321701581
-0.07177078247054111
-0.03280086407502884
0.009819166764801247
0.016364248338943746
-0.008382869487203671
-0.0035518564731727097
-0.011243319195167606
-0.0364810169578679
-0.0018599638942924327
-0.03402715590973803
0.030634557654743384
0.1687618831732642
-0.01372178392522101
0.0020676771366436556
0.0036181637973786798
-0.013307639305001402
-0.05432301759468837
0.12672329886935282
0.02943346599183576
-0.050844180509157344
-0.008376425897796103
-0.007264186270717154
0.014026318410771784
0.016330057748072856
0.01328878315577503
0.01686951757925102
-0.003298606617064802
-0.07500518565717873
-0.0012924448926827214
-0.014384242152337124
0.027376472445067676
0.022804366433963788
-0.0012098573992343653
-0.031585219456271796
0.01661539171421775
0.04248348839691513
0.001252436441339257
-0.021128220577022308
-0.007634610630493838
0.015739127300496526
-0.0026159284915175125
-0.017990899295658776
-0.08449818273699336
-0.04050421459228289
0.010564975465152905
0.0184371285622991
0.01832209801662307
0.005190263990189956
0.025693176109553278
0.007623717881520549
-0.027317704151819194
-0.022923286167744018
-0.024146278062974206
-0.006507010342074127
0.04130654175547758
-0.06262215142281162
-0.03741065456888219
-0.009269396103468743
0.0005141753456365186
0.008517128385931293
0.010457461091886087
-0.030300895161798787
-0.02860524109958155
-0.0006551871811022688
0.02565033774771895
-0.011446811285756682
-0.030318346869680046
0.023426583478134526
-0.04093777713022054
-0.014866018434696003
0.06434602869793639
0.10311586535570985
0.027815312188734443
-0.021256083623584783
0.1135721464607879
0.031893895317680186
-0.03290556308770534
-0.007659957594227585
-0.03167835830137008
-0.015140838931439434
0.013960847073192102
0.03517194336755854
-0.014662969143684597
-0.01701166370426641
-0.034172385882839496
-0.01756376699037221
0.008204934519435584
-0.00979357976446801
-0.014438271475282621
-0.02774675375641761
-0.03215591764407067
-0.047051880395129614
-0.01650118349422209
-0.05087615773927178
0.048253295595729384
0.05542857805171118
0.060259784257490734
0.013507347340779241
-0.03599901245374204
-0.030073147746399867
-0.00693308387064559
-0.0204976564581675
-0.006128988812305553
0.056491333625149624
0.03507152190850704
0.02029511521170978
-0.02354359440755936
-0.0017981578359826237
0.08045171748347817
0.028436751410778515
-0.06033059344981024
-0.03883499170905324
-0.008243304876118464
0.014654329885117431
0.14768972324607785
0.03805854679873006
0.024073693805782795
-0.06123220395317915
-0.039776503102208254
-0.009790564675075894
-0.01029132879008936
0.06473753016853115
-0.026862363448371094
-0.05822040980472618
0.01407201332697087
0.00658590630205992
-0.012296279462991434
0.018367549787491767
-0.038822390340521505
0.00243285565514178
0.007865797964342105
-0.03063253275212234
0.007084898760862289
-0.03768702326445859
0.01660000862661043
0.07673089782209748
-0.02654046613632498
0.009538934237755502
-0.015381683112333658
0.019140263823765862
0.009916127512994886
0.013742214702407383
-0.017316547248512067
-0.03299354229200563
-0.04305809653741153
0.021237963266727767
0.0423583780485078
-0.01995379205260088
-0.003795622269208032
-0.004670294684024308
-0.011274272096145335
-0.004987751914145109
-0.02677255246145531
-0.01724828525632413
-0.029180905681670692
-0.01658507712777011
0.01696186760391993
0.021640888093787527
-0.0009882755115843236
-0.019184274186979263
0.012021313384218257
-0.0771622926156066
-0.03456047552590069
-0.02706320659166307
-0.008470189630239787
0.03058729352549159
0.007937734581247967
-0.01667045788304092
-0.040621808085780836
-0.021970678666230654
0.006304854968561402
-0.018905705833209992
0.05364981625751371
0.04233637287325911
-0.036250403914411
-0.006285831714946619
-0.012861834702489257
-0.02361120636184615
-0.0333515618950429
0.0013079600408424895
-0.02156094425817495
-0.02583642996066396
0.1826372981852716
0.1182676395306183
0.004542346652542065
-0.021100881020486413
0.08152984102548895
0.08988982932872301
-0.052246756566517644
0.034840390658762155
0.10021361969042708
-0.002673596937460011
-0.025324522286656898
0.0023380223958231073
-0.006978671913685018
-0.10664988928140946
-0.04483533344753301
-0.003616580080660775
-0.016502539860337045
0.005665368756389074
-0.0536030804285897
-0.02279081783362265
0.08059028821380665
0.05106705973047466
-0.041909611335780944
0.010374096846547972
0.006128515675305444
0.010359759630487216
-0.02176095554187002
0.05801652022880981
0.015694885650915466
0.0047277699919022805
0.0013682219606186911
-0.008465202028548793
-0.042789795765299406
0.010456239118486784
0.03764045168937549
-0.010853345681414854
-0.002825546860905334
-0.01068284476245456
-0.0027025627893607633
0.021472235154755222
0.011842873174976162
0.0041105369974627015
-0.02524190897147163
0.0010370973545084882
-0.015345529761207155
-0.005153207586713955
-0.01265841342619984
-0.04834504902676463
0.0036456803300381545
-0.0027793603658126534
-0.04076846737696099
-0.020566346028346564
-0.014015970378004844
-0.030793577228792595
0.015625940491122196
0.027828806135039484
-0.003993222105121201
-0.0009002685299884606
-0.03279225050125307
-0.013701577426018852
0.03584396803184166
-0.017436588147644597
-0.01026271023203294
-0.02586518191913506
0.017034452384053204
0.006249461965103329
-0.027283559366007525
-0.026396637217503297
-0.0125281497385796
0.0015388603619142863
0.007161210204126476
0.030294653568699034
0.012956768859548799
0.006830672809147082
-0.004102735950536035
-0.03361419376041057
0.020356405975646554
0.017047404757503347
0.005307767311740593
-0.018403512044246124
-0.006146004872149644
0.003238205004127297
-0.004531172280841984
-0.013650754329452527
0.01000879067964591
-0.010243320159576626
0.003099905940648352
-0.1229400807528602
-0.09223909143036561
0.03758840998550624
-0.006518063886553733
0.10335825109159265
0.019664037595963246
-0.04531579960796371
0.07948068819302045
0.017298035111499868
-0.020723213008176786
0.0002638667296848701
0.14293644722785223
0.03696327042778402
-0.0033632617846746484
-0.023832295420033626
0.0017617233739167428
0.08960381411684909
-0.043363409770811996
-0.04991509636582983
0.07229789946082978
0.041294887055212184
-0.029099497953230417
0.011593106488287338
0.045042032815735836
0.0005642369154334524
-0.0016123435253722425
0.02798769275851276
0.005188781830600571
-0.030388855539832723
-0.05695591184306672
-0.03576447018285742
-0.003529395704177335
0.005518660843285418
0.0020408852494642597
0.014165139707710729
-0.05525254809691409
-0.03044131861288477
-0.003608640301637904
0.005014401772764223
0.04075929580515792
0.0030880677843073715
0.012187471615723153
-0.002936349069174954
-0.029091242519770702
-0.01624049557050561
-0.0031950305640388384
-0.026607862394802805
-0.013228370397523307
-0.001419455897465541
0.061759060124324576
0.012270772974993948
-0.019368187911574134
0.014192766638496047
0.0006533759379195361
0.02610132397761936
0.006179993483368032
0.00474600858616499
0.023798385227519342
-0.004618176924196615
-0.04115152944080457
0.027829577443220118
-0.006607297847690926
-0.011589970306302247
0.008373382643351378
0.005641317487335528
0.01460574532358002
0.043591417844084004
0.021834050168498046
-0.0328700916046976
-0.005710713853144831
-0.07121194834573383
-0.04487977256314649
-0.006888018641044252
-0.001518506868989579
-0.007967343024857408
0.007241572133799445
0.032885595706293985
-0.016670772273055946
-0.008651395950002123
-0.006539695796352695
-0.08684488375057949
-0.03353573125651351
0.0327721559470155
0.01911476501989884
-0.0059617417159741285
-0.02668460475564255
0.013786420192213359
0.041611011958438596
-0.000780793764804597
-0.020157780299106354
0.039102148999184204
-0.054708279069166525
-0.04469706889912565
-0.0015010416864500308
0.010296942673446515
0.003554309335502927
0.023516557506561557
0.03290143990951018
0.0009383964145466553
0.07264085476580724
0.07105697538045509
0.005963731846613765
-0.029570099471844268
0.01683485680434353
0.036830277519431076
-0.08812671145956312
-0.02638882832997394
-0.002184620682870913
0.02833408473810374
0.058506675881201335
-0.025121483229717405
-0.03416046056227013
0.02072837238289387
0.04017111753153391
-0.017644215478485256
0.012451017806681852
0.002580598584719192
0.020247601163710032
0.023919892821489507
-0.007758982277219579
-0.12410265095021061
-0.04014958966000898
-0.006450204902628083
-0.01866705435438947
-0.020751022603461188
-0.01562193515421598
-0.0031095099471744026
0.02202309074837837
0.011370630475461555
-0.031061749648939384
-0.0073639082100562725
0.0007391130037478591
-0.07460853867635735
0.008621540893744062
0.03334156288040122
0.10025196532707943
0.05051579583777768
-0.029710921487860916
0.0897778323338244
0.04150808836505987
-0.01552147243583615
-0.009977709581827648
-0.013552003702476653
-0.022232777018505723
0.019271704256309568
0.015688247932248118
0.016961338216623927
-0.0035036803488923338
-0.0699271854587921
-0.012729740537347382
-0.014800273583136108
0.007751163436499501
0.014070604993070125
-0.0508494991181342
-0.0006823372670257651
0.004556423250131632
-0.02056456554380638
0.0003981785808880592
0.014379511607294808
0.018941942076904507
0.0263245993561842
0.045654859389361924
-0.03063990199509024
-0.01650865026392742
-0.006127755441323254
-0.004032554867983058
-0.06203861553977721
-0.04958865425253283
-0.006737239045148382
0.03417362520268523
0.10466475611322841
0.02006283620395187
-0.03337533899683196
0.08471905408266905
-0.0011137022868743596
-0.04374039231169693
-0.010835876179721511
-0.006162926547133194
0.0035350251624999248
-0.03575204798265458
0.012545828861861067
0.024679109329241774
-0.04172173991045107
-0.01450040424995355
0.06736185059064022
0.01531033716867466
-0.048858989038194384
-0.05052388142974296
-0.03628714958577487
-0.005835090358273738
0.02210208258349333
0.12397683362718288
0.004310927407496859
-0.04203190384638044
-0.03489766397992525
0.031044273344324042
0.01345315537757366
-0.06074193245301269
-0.018046795224456482
0.05610456236948196
0.01707339033917862
-0.028146583455010844
-0.026320166074968496
-0.030157928937820707
-0.028333157788457
0.019959857586336945
-0.02371192551600513
0.03685926733852945
0.03408555933831479
0.0038049880861058356
-0.01885235571259399
-0.036997276943296756
-0.01773799583850109
0.012102711766486926
-0.019085529736280443
0.01844145218152275
-0.010730470530625313
0.017315245840891683
0.026927429099122813
-0.01455623544844722
0.027675291991056176
-0.021675866519707262
0.07118615191521789
0.11353143531355656
-0.04814084593290791
-0.018155971146372078
-0.007310790191612376
0.02975317902762583
0.015558057385104022
-0.014882181200175273
-0.027764177541899297
0.0015245591139227005
-0.005213753771075576
-0.005002260116953941
-0.007348947336360508
-0.014957234934490879
0.016238984342020955
0.02341730935956025
-0.008220378134102145
-0.015527478434478968
-0.01663886056999391
0.021490124640955757
0.006610143718811886
-0.014090934120910448
0.012836033190609915
0.013887666210830603
0.03800103307654657
-0.03870418247598454
-0.02303334878028008
-0.007205766931500908
0.07304202713027833
0.06858763288129958
-0.05756321275254123
0.004516656715345596
-0.0010606638681361722
-0.0007567043225440514
0.0006464239560097473
-0.020465505339463577
-0.006180472131325207
-0.016777885121490935
0.007327205220148197
-0.027233718832197714
-0.09280944631651562
0.007612334434644417
-0.014550109484578584
-0.04402181982651351
-0.022778544253981875
-0.018834074628573734
0.016959983503803944
0.039915430646952306
-0.02407984243564088
0.015838456324488895
0.0067484578477089475
-0.014538804584586524
-0.005799432721944308
0.02485155362401923
-0.013812398563566836
-0.00741990855143571
0.025170520714245463
-0.01357604679581623
-0.0065510045887476965
0.07040555190800253
-0.006401388536323212
0.03247630756057756
0.05533455234379304
-0.006576444822212824
-0.034877212238904005
-0.02813583307929441
0.012556837631684805
-0.00359743657207193
-0.022518891582997382
0.015528274340466783
-0.013168712229610425
-0.013553746686461103
-0.0032588135899019694
0.05013863990270549
-0.030359371271680872
-0.03761306965680671
0.0055300801199912215
-0.0043309871769868676
0.013247310018918499
-0.009573716540057
-0.006931847557171197
0.022782520464889863
-0.014431638376332507
-0.020670514529505683
-0.012943526144209213
0.017357168569365762
-0.0049876627672095115
-0.02984088807651713
-0.0008513174460107018
-0.014841936185819334
-0.020154700709684868
-0.01513985552272924
0.030197225798534143
-0.026462508296362642
-0.014105203927050121
-0.022264538282169424
0.023081228781745195
0.12208155941786052
-0.0057679086341489
-0.029254032452752796
0.0028666661984691794
0.005062877648208271
-0.0034937107158534908
0.017493790713171257
0.007349440932757618
-0.028702080209824343
-0.012792519523163837
0.012726844615613199
-0.005868580459097402
0.09061160927975355
0.07588910918275385
0.022338120162123613
0.11492778460802931
0.03987578703171025
-0.043113849825776596
0.022760623527812742
0.010105737461451462
-0.008400854392412201
-0.056836106153512055
-0.02656205746172583
-0.023999992780672733
0.035285090659143106
0.012151366169687832
0.0023175684908127805
-0.01451712107787284
-0.06930950482923427
-0.024903362930574994
0.018379866145710282
-0.010232088589624214
0.004315816098718491
-0.0204218766137026
0.014473915420119549
0.014497385564737352
-0.0015994514330475267
-0.08165143091359532
0.023616372829494997
-0.057154173578598214
-0.03595396001661573
-0.008825078304744497
0.06584119698421916
0.0383444302665561
-0.051002609096641546
-0.002381281444406718
-0.004079616811732977
-0.017147396598358535
-0.016867807431247488
-0.014006562107457932
0.013975693138537403
0.005344497254532463
-0.004891936472487959
-0.023074508037706727
0.019713608974659253
-0.03218453110521384
-0.06391164586059629
-0.021048848782584933
-0.004443301037895999
-0.008409001334264333
0.0019369063365781627
0.05672064257276528
-0.014969394299365075
-0.02583608053677924
0.012550990850255113
0.03469817133074011
0.040438907829509534
-0.00938802255553865
-0.06501773903974813
0.025706244313950456
0.08790331340733461
-0.03740333063168891
-0.0052030895692045664
0.060425644609701276
-0.0401041246154105
-0.021545657567110747
-0.0002510167892980151
0.004855390334949746
-0.005277616791389974
-0.006522742097753797
0.014301313564172793
-0.002968727668931314
-0.015717446866076575
-0.03726494912224104
0.019774770159130983
-0.0010233254422576268
0.01298534935733005
0.03825673953479734
-0.01810369431203295
-0.014875143591379375
0.06507015603909617
0.00861902206358569
0.0179329341710301
0.006870429889425456
0.01094960211549492
0.13977347902880607
-0.009942984776011271
-0.02731142398157048
0.020392860789048763
0.003789210232734178
-0.007155713169415189
-0.023270441477686445
0.02717418585954509
-0.08247303233755399
-0.06652310122160265
-0.050875668174493516
-0.00743801803033651
0.04479894947673996
0.007836510254797126
-0.0010648515867869037
0.03943648146666084
-0.02410969764247518
0.03444760443112241
0.013427783867267307
-0.016727612428071317
0.008589295246619251
0.05781008662887489
-0.0221234827206614
-0.014172571655564764
0.009242621399551319
0.0024212991948440784
0.05597583398843685
-0.006799571128591932
-0.040382781726334284
0.021230633520221608
-0.057816931726262066
-0.15135262928872642
0.0516594153756374
0.008924108113521264
0.05828546283352747
0.01652140029780311
0.0032440850269327107
-0.052944598142173824
-0.03153459983945227
-0.03421260523952474
0.03355692674380979
-0.005649368440161198
-0.03865126110497673
-0.04750323765077765
0.05450789813455435
0.07407830141562488
0.01752642120134452
0.011000558551403944
-0.0014832849109918183
-0.003295383330243314
0.02658794485822069
0.015118089315560017
-0.007372278150292669
-0.05058428348659129
-0.03563238763839287
0.018441414133605852
-0.03547308086789754
-0.064546624535638
-0.01010418011072311
-0.019598896744412387
0.011163358567158178
-0.008153890499301965
-0.016407233033853948
-0.03631984483981815
0.006166250805623639
0.08238825252968936
0.0396963120367947
-0.0023542630209913763
0.02947959365694206
-0.00027813463716239476
0.020583612752887386
0.021088720079952862
-0.01233722983505623
0.05636106085117246
0.0016567416866936843
0.025623053673919437
-0.009492714905346183
-0.024610970296535636
-0.012381272713281427
-0.0002048751082803002
-0.021974094428504756
0.0024946085322547773
-0.006726825310395976
0.007593163868162799
-0.0015593914174759102
0.04767008355261847
0.01652344961119452
0.002822139559846285
0.02820645591364931
-0.008425018570270958
-0.03240742515510761
-0.003492142245675548
-0.02998805146484485
0.0016288470005559326
-0.023485549195695836
-0.0021794042986752085
0.03487098057423992
0.0375547682352737
0.008141117683072133
0.004759891985258008
-0.030299468388228563
-0.022692894137780105
0.0023960414806815547
0.02543808249934094
-0.1344464522354413
-0.10438013412858754
0.03506989184883393
0.03799731682286381
0.0331992747682944
0.031960694101820404
0.08552314166799012
-0.05220869514484509
0.034774941471008014
0.021880235894428154
0.01652540009956682
-0.029712674743690163
-0.019863079938670897
-0.011046111118742662
0.0009681086829330507
0.010878478043329686
0.02538829319282131
-0.031184770606808108
-0.007718685646975777
-0.03364663928392841
-0.021504911768136986
-0.050237066758727876
0.03907718262430542
0.020736940457838016
0.00553480317853378
0.015403451134697698
-0.03701497692084858
-0.028891360779377224
0.04438819605504486
-0.07470679957742221
-0.01803060037862449
0.17883838788175016
0.03845535757420602
-0.0025725300759091396
0.043560039116871806
-0.007570478827748629
0.005195900263147478
-0.10116130028066252
-0.03451581237748268
-0.0065391522455898335
-0.00608210300271688
0.0358237595007275
0.0921719330137635
0.17880892668185758
-0.04109111156645876
-0.008805204419121105
-0.001508705882185201
-0.01012553865578734
-0.07912649273586933
0.010880051728306113
-0.0380067853497742
-0.2020990988140808
-0.02956150022437109
-0.01955366802103357
-0.0018731634846448607
-0.02349457833399408
-0.036310590212839416
0.03425772624026118
-0.025883659074841144
-0.020260629386017186
0.011618494631644527
0.036480944140203156
0.0015792482768164215
0.053905937884107774
0.09961496437447118
-0.015637498112928586
0.004663524656071449
-0.03701421188849962
-0.02436938830663406
0.01575680074783429
-0.027110705760026842
0.02988587546812663
0.03226268401353448
0.0042434201507669895
0.006407635632023551
-0.0066273355962591565
0.017063353087975904
-0.0165352954669646
0.0016787815209472043
0.011424264964511207
-0.02803538734342584
-0.00676303738525195
-0.018625041857167825
0.017566674479182278
0.004028953065679431
0.0025005330920365885
-0.037407884620124475
0.038639106808475286
0.025065830154367787
0.008115381651003867
0.05863593825157104
0.019245619434844843
-0.005994261212570567
-0.027613036409927606
0.04794532310828666
0.026877204976384395
0.001426359268243011
-0.01649145760376846
0.009900628665058999
-0.049296275221399
-0.016120255528754974
0.0008143648487572314
-0.025294842625727575
0.0026399296422074114
0.006826043134401217
0.014349207284056604
0.007042943586942405
-0.051906599786109835
-0.007294825952646734
0.02662191000214006
-0.026759156963768096
0.032353423407644015
0.031565731073341444
-0.028671978128154436
-0.0256904265359249
-0.0047205762724598305
0.02601053904191398
-0.04110264386499473
-0.04998336428231867
0.016818052737888996
-0.029073250583719498
0.012380752628840926
-0.015002759733079607
-0.03940405993989636
0.03190786268822717
-0.03554718282692733
0.08656552803545062
0.130017741214901
-0.04783019369095318
-0.07504642955046976
0.07500497892471134
0.009299587129703411
-0.02192231415878677
-0.006347755881541379
-0.00918982958095028
-0.01051379257315337
-0.02924552960747538
0.008673154301141043
-0.010252715532561678
0.047730848391270744
0.009074075147269055
-0.023574275049536048
-0.01508225268132809
0.016024884308394816
0.01354009074685611
0.025074824420339106
-0.015754829322228745
-0.007661044970690748
0.028365789865762357
-0.028052652584780267
0.035836970722515564
0.00949601109018146
-0.040946773249959954
-0.08870343162199507
0.007865056728458547
0.01879803233635303
0.04141485352808813
0.025736751186181822
-0.008798832965920784
0.0350308124890394
-0.03158998036191327
-0.007679807811754398
-0.0326823559934604
-0.009440298065034889
0.03550889088604554
0.03425411965623608
-0.015169440435738472
-0.011063976713761423
-0.005383251420647024
0.01416787765862599
0.03129628050648169
-0.009078088656018847
0.027599456072964212
0.0008490119288521733
-0.012052634295949053
-0.0004311495900003279
-0.03539805876995291
-0.1114609804357292
0.03091296656106865
0.06036553290152691
-0.015926809539713857
0.011531258886255634
0.010538891478210882
-0.0018874908640667263
0.004786669923723834
-0.06550786177804374
-0.03723524875906051
-0.020151120435295874
0.01676364353582282
0.01381520933647348
0.027217180127014216
-0.007951011323602127
0.03919691327364889
0.025154583753240294
-0.0111546409287219
-0.031091980348257667
-0.023693902164842517
0.029528166959019594
0.01881239366157844
-0.03365089369298118
-0.013084872805015716
-0.038150079925277254
0.020575724506237594
0.032607026930681314
0.05064659994163386
-0.0016936137647732778
-0.0011097301642013328
0.000994866170020813
-0.02925059797988924
0.02427834205876098
0.0033402023609849147
0.00040457667619085474
0.008712876868850264
0.05553087607689775
0.02002812103537329
-0.014067356046503339
0.009927196937474172
-0.010105430308936025
0.014305304796973825
-0.01364503992101226
0.04784302848358951
-0.011287123633677853
-0.022308617750331657
-0.007802963078447243
0.0504010992267266
-0.06532741605230795
-0.15805499833545772
0.01926916341172319
-0.03151642666476396
0.00028430916302061486
-0.003518919333756356
0.037798764990841276
-0.016892554678713097
-0.021804869028787574
-0.010572762365366984
-0.033641816294366154
0.039733497265273816
0.06321401928009288
0.02398803160635721
0.053497130465433425
-0.0009285240774558228
-0.018487384198883267
-0.039614991777829914
-0.014497642530601231
0.00859129995241856
0.04233412922100983
0.021317598498503905
0.013479292578305912
-0.00040947553610404524
0.002706922809634448
0.0016539022258663316
-0.002632517352015013
-0.04403489552299848
-0.005383753659926826
-0.029165690338950594
-0.005538548842789298
-0.008055809513528234
-0.01874957140623349
-0.0025517953581868694
-0.004987362172011599
-0.02387235042024415
0.002977821507703514
-0.00378625002284152
0.02563007331383572
0.01008795874216374
0.030573943747958736
-0.005986757242324454
-0.013439653658307812
-0.03429929392721491
-0.0334364692648999
-0.001941232672788453
0.007051776729683097
0.08892724003928056
0.08287816090744911
-0.020529557692461085
0.0011541958490486664
-0.024290146123559283
0.014457470391063688
0.001087992944489451
0.004918426542194848
0.0023698537471718733
-0.02912295356146649
-0.002953773160312877
0.010888490562424278
0.020915160968298884
0.02600481582705297
-0.008494908629012813
0.00866983040038388
-0.020607237603021324
-0.023192870025682183
-0.004214124781669792
-0.008813064650728387
0.07601547789645194
0.051459751884327394
-0.01587612970474061
-0.04742167497903172
-0.06233442836137561
0.014005109902737635
-0.03378548927649772
-0.06604473403094409
0.024704796142306817
0.01823932901011895
-0.017127401945545698
0.021187967879551142
0.03088681773867034
0.031518838989573875
-0.004153499889235496
0.0172161849703514
-0.02640772089154065
-0.0010812084040940464
-0.00650732110868298
-0.0005266235559999279
-0.019200597065435178
0.015881069155811438
0.005042281046731517
0.0069356155516206806
-0.02479723657852068
0.022406232623799732
0.007627033786216469
-0.02807970036052441
0.0426046043791053
0.033743085245810926
0.02884455622351137
0.018905747050514767
0.006252598087239518
-0.02172498990761141
-0.022402150356085435
0.018945244792761804
-0.059109941934741096
-0.051338391971465516
-0.031979659188321075
-0.01066815164608043
-0.042169538164648517
0.009257037403646591
-0.03134065989343353
-0.026253979544977622
0.008976047729728334
0.05433825596737426
0.02529473518511048
0.008107747655876052
0.0070711882579816915
0.01944826752871008
0.02361731213686294
0.027491170178260464
0.006858197459227182
0.036964487369890935
-0.0019691358180017344
0.021180755657401282
0.028084534402857485
-0.0016551140387655737
-0.022905426355378518
0.07222623436811106
-0.0856973687948196
-0.09636580754270445
0.05675609433297814
-0.0790614487948268
-0.02116791089983746
0.017860169171118247
0.01772071093773281
0.003024229809601388
-0.011464403820480345
-0.014496915052109741
-0.024860596563090268
0.039947903848244114
0.03863994361480661
0.011055408477622725
0.015941827921457416
0.023434906004565652
-0.012430271823998947
0.06264533694721311
0.004405219154627254
0.05191975682301758
-0.1408812871881405
-0.1642570054728729
0.014240083475982305
-0.04943494274120087
0.0035014533177785733
-0.024625545642905443
-0.00021083263307008135
-0.0062800987709195006
-0.01495580545155026
0.05734678744768297
-0.02769279924682243
-0.0786060487052199
0.06927791802291823
0.045968386669688464
0.0008639111639620578
-0.021182325303817126
0.008564976454379163
-0.0034170050028561436
-0.011033227342371025
0.013434220621378433
0.0414530119238463
-0.013673366970780598
0.021021668016994514
0.02027878071276259
0.06878850745458562
0.025007162857162417
0.026415201089873133
0.03807255910009158
-0.0018938331704374202
-0.01995820053936919
-0.017422922115362404
0.04836690471124468
-0.0034970586351819716
0.044515452386532914
0.025177953743731565
0.0008457458808358903
-0.002542398640626033
0.009517462029227323
-0.0005440099811541222
0.033162220658762516
0.048643594774999944
0.020910404307536698
0.00749579687314599
-0.029227860533996532
-0.0023671514169976374
0.0035818883335532376
-0.009868567892460496
-0.021376323082089397
0.013902678607041532
-0.045198988646931566
-0.1938976924060382
-0.019464039187384582
-0.0011791690593233855
0.005747136743580527
-0.0024535494443270224
0.003927559213049065
0.045189749609824255
-0.0033784468915367518
-0.002526348728287575
-0.004352085113550956
0.006106663141299654
-0.008401718454582024
-0.0005555927244059732
0.021430903439592298
-0.03886375213169013
0.004236415537304964
-0.04340509210220144
0.01211608984735127
0.038539237660664645
-0.11064673573267128
0.018877169036866318
-0.028797855300497683
-0.022543771611620852
-0.0011216443129673263
-0.0015737609732186728
0.030041366800629604
0.005061989732117937
0.010061470149115603
0.04903499793849205
-0.013609270171213887
-0.0042773761763620025
-0.0409890557507973
0.11312549952335361
0.043116604513725336
-0.008530907123145363
-0.014845482825740799
0.0294507316054352
0.011133435855172295
-0.018031934384084056
-0.015465138039540654
0.012483362088593429
-0.021535942414224827
-0.03272155579020105
-0.01711834263859933
0.009717077082631594
-0.01881318000730598
0.030736735699434293
0.10802397238053851
-0.03522398192140163
-0.006809541007278115
0.03623802196493288
-0.05091855919997653
-0.013046660165463015
-0.053236593352451886
0.009463867204144192
0.012420234754792274
-0.046320877066906865
-0.010222947166668677
0.015908473621176113
-0.015082209351661031
-0.07592020501522162
-0.030113308476528138
-0.015576266130026068
-0.016094202986805778
-0.017625740317030254
0.10902918655587912
0.05207344865885494
-0.04343730640942626
-0.004730654085571591
0.019631340063587535
0.008105989344395869
-0.028079268792960178
-0.03349525333622694
0.1472068913485599
0.06383124027642698
-0.012422334590042716
0.11835637709386822
-0.01636504253443239
-0.016724280519145013
-0.031064709014626227
0.07336609464480243
0.026354031205881093
-0.045970650042570685
-0.04590621431210236
0.01796583613310681
0.02545411025338422
0.001675319938348389
-0.0427134677922992
0.044924381660041084
-0.04719505146368342
-0.07903076038709071
0.06002110669378546
-0.006655285667200139
0.023535695565360913
-0.02979298870722346
-0.04084973596101871
-0.03794891409992198
-0.019709094051547853
0.00535859183642812
0.0025098823570147313
-0.013904214446547885
-0.02599833626174912
0.023300435001912437
0.006721063905453858
0.003371565627586826
-0.008209647352440322
0.04663066724028328
0.044546935499211356
0.02934814813652533
-0.013737488904968027
-0.01702388652806152
-0.038442294792513085
-0.001165450555435808
-0.03565671343072114
-0.036016333346668726
0.00431335352403722
0.021271400132418888
0.006068949746766456
0.02053334568689458
0.02881801901878429
0.020252507868299845
0.021584624392975447
-0.002303399108656252
-0.04180134848615435
0.051043888829145956
-0.08616391794636014
-0.21104010268934478
0.0367233767034473
0.008454336354739099
0.012675028018483844
0.0039451771880291515
-0.0006392491309175502
0.002625709997748066
-0.0023559628679450484
0.06988048256161777
0.05053270490165381
-0.006714193906671277
-0.003023255223964391
0.0170306898608502
0.015505849129768677
-0.025834425643950547
-0.017364043179349177
0.004865997499486276
0.017075960829996528
-0.03327958419672375
0.01719436712043675
0.0015135434673116553
0.0040148748471293995
0.017825815266442786
-0.018705665311569607
0.00552220116822932
0.028858065540399006
-0.04524908449496773
0.015782778707979388
0.012007448629227079
-0.06186434041934878
-0.050420604534967106
-0.003480866900328017
0.01929337789630665
-0.041563969734728194
-0.011230679401624505
0.13517088811994452
0.033377690719056656
0.014521735348571119
0.04854826026044433
0.058925334301193635
0.007555763783646655
-0.041833926757824026
-0.047609756567377516
0.004457383052632127
0.01978127757977485
0.023159489442741203
0.014999586140308843
0.03712384862481989
-0.0316083537310131
0.020920616750419188
0.03794619739922398
-0.061318119264928445
-0.03711447070923363
0.0006915317825995923
0.03603638059641696
0.04950638361832434
-0.02890411943437053
-0.0007156238950081033
-0.022793373001132263
0.026550806034629927
0.006346633731902554
0.03380525910239843
0.0001245458637957051
-0.004052066138490713
-0.0315407622707888
0.018736829855872876
0.00841420174026115
0.012945915882769988
-0.11908950808166399
-0.10568100734371978
0.0537331504116995
-0.011615987342392877
