0
0.0063265386620232605
-0.018004912053007343
0.008507532587323839
-0.0018894162130094541
0.02824848791114135
0.06761414346103448
-0.0025127630454495125
-0.04005946978746566
0.012695576926520298
0.012540661581821986
-0.030243676573884017
-0.1284229322800917
-0.02326532317832484
-0.05258525940745859
-0.07793551244393745
0.01151848324289704
-0.03598965268384865
0.040586976750469114
-0.015381131149520354
-0.01658098664884301
0.03233017358642813
0.03332363923760529
-0.02012562693676908
-0.006985637659394341
-0.018723602261975024
-0.017430231453862476
0.012236667151730603
0.07333892765972981
0.008247874772168281
-0.0019729345529560524
-0.0107738975332701
0.024550064269535717
0.0027965145392918277
0.008994923222547127
0.01265057653128945
-0.0031302185296675717
-0.014139256966969983
0.0006202235617619777
-0.0228448136617116
-0.015807286107086708
-0.006586437363894496
-0.0017990480910664575
-0.007456552562065176
-0.03217292247100045
0.0434671160777691
0.019538410017053365
0.032135570080374404
0.019773327695168375
0.009099147397632347
-0.02279881618097107
-0.022123793147181214
0.0013673882460835626
0.014430051842581755
0.012141542153608163
-0.02200959251112482
-0.06531747720095503
0.043635678436010725
0.0338180247546765
0.002846715154871753
-0.01656262479752321
-0.03647074800744489
0.02463145343560609
0.021339343447821398
-0.0246612130033591
-0.01623237952534772
-0.012523807858814224
-0.023580883554631143
0.012001214430579955
-0.022358281336878904
-0.016647004319467116
0.022144720051869276
-0.02012944738845252
-0.016553854922007127
-0.01023742984613428
0.043250890439130954
-0.0005055572826642955
0.02907002711078519
0.01217463999006018
0.006753484319698307
0.0050020452267511145
-0.0014549155486174086
-0.005629774911274285
0.03742344775342649
0.0005780514165587039
-0.009326895990265451
-0.013484665934912148
0.016550714738109654
0.02498175280201929
0.01392974764476875
0.0639076001385688
0.018786839479601566
-0.02471899122721783
-0.009390950267646594
-0.028595389667624666
0.005930815811204767
-0.024533780667755994
-0.0283098247231779
-0.014517659042515327
-0.005103751688056088
-0.020114680077054505
-0.0022694282643251434
-0.046367318072659
0.02111318563246662
0.03172094335501562
0.013312499900078692
0.032076808823169566
-0.04575642359253589
-0.004945249428771227
-0.01093014723923626
-0.03146627433662114
-0.008574375705448086
0.012806131000256139
0.003673321701043112
-0.011034047492384232
-0.011937802964054106
-0.005349234136856586
-0.014015181958094806
0.027652310416363356
-0.010769306361255716
0.015175282741006765
-0.0024033914936648737
0.04660821245649259
0.032146507287264245
0.0184645562097126
0.08926068355705304
-0.008866065191931727
0.1068135100016199
0.00885659711722527
0.04882218476913158
-0.08245199583314683
-0.10608228142019906
0.042364344138516884
-0.024385293708825976
0.00228544405174733
-0.01405497658577963
0.05774553224593714
0.007010924427983353
-0.08237015432443194
-0.10363166774897466
0.050158169957479
-0.025477839331704655
0.011504516181046252
0.07823593707268534
0.02509331491068195
-0.021777390928078982
0.0008482625131736526
-0.011658239045350193
-0.003607532937554271
0.0025519464846613937
0.014400840832823829
-0.056462383155165066
-0.06610767976059247
-0.033465982082665
-0.018097667040990417
0.022573959731689658
0.006950438360451049
0.028043285523242
0.05272020820562174
-0.051121353713185255
-0.01716852364327988
-0.03959800326561642
0.03272775941834261
0.03668040255523299
-0.03555776582069608
0.04367723407575073
0.004269479804395886
-0.22173666972007386
-0.038397129371691714
0.025061010694259325
-0.002871317515142778
-0.044734932755226116
-0.011412571303662944
0.00999269995354235
-0.010560824888815308
0.08132545654007785
0.04903251291806492
-0.05221503209356453
-0.01891974292831924
0.02363693772007549
0.004637987454218745
0.056538030926875614
0.13744371379164297
-0.051050126572205666
0.012500378091323764
0.024060923900888317
0.01595859696342883
-0.01571057604651532
0.0024419712034042243
0.04849358808953846
0.10742181962945643
0.068410586223314
0.01585766178155006
-0.0191721481715921
-0.014787894131390672
-0.0009019237698063687
0.0022365902744031978
0.0318441002496922
-0.1126515309489488
-0.0330265380791314
-0.00021683895757494215
-0.014538028929299058
0.02130753789804155
-0.004065414063161827
-0.025819690550060188
-0.014886987190263103
0.011297964902740001
0.015414705192018815
0.038365385860802195
-0.030532535523096985
0.012521843145612272
0.007938165222298305
-0.0005806013367568218
0.010350993236279171
0.019342374387770818
-0.13251875802369426
-0.03759046437032105
0.024653868360001528
-0.07481286891643481
0.09884306766427095
0.0681526055063275
-0.023795891380303198
0.03676227807966306
4.77341479239633e-05
-0.0011045806149208078
0.007738412301815748
0.025000487998504448
0.0016582206628908002
-0.02357365168906417
-0.07038851244411067
-0.023036078829116933
-0.03853445962137338
0.03127955066121729
-0.01145070145037064
-0.007722512318963892
0.001795292966128017
0.015353522910008827
0.01012133960691008
0.05402644451279891
0.006177551031898454
0.01296229761218307
-0.1298112624376238
-0.07408870559472643
0.024370599513375595
0.04494081260573168
-0.04105766013200457
0.02596458519768532
0.06444809611463491
0.03956348537850728
0.020575360353161962
-0.002405112501173284
-0.026368372806673673
-0.013882354228960584
0.0062357902058639645
0.012960152714529645
0.002364071979286049
0.003731612002586983
-0.03734743057386992
0.015919365720383258
-0.011740897684098896
-0.004018458591953437
-0.048802048219184414
0.008197552326966938
0.009244323941540192
0.031281198416898096
-0.04986877960988386
0.021303753535050863
-0.015168349129223354
-0.015570484607879319
-0.027889266289076904
0.02194638752866561
-0.07604188342992828
-0.04169513159769509
-0.004698709840250132
-0.010908053127752821
-0.003885566569193292
0.003930991797508501
-0.03873004361787806
-0.025232295764724286
-0.016833148789539062
0.22350973558792767
0.11609173927454788
-0.03615976491060666
0.00990031311392787
-0.016457837251263617
-0.0017428377169778548
0.02883473094333211
0.023265545618030525
0.0051858315373377135
0.025153607228388816
0.02700382834271238
-0.0025908678781728445
0.02365523788363516
0.01826053299918987
-0.05389310040931828
-0.02725951803276151
0.02239322099302449
0.011845386510687055
-0.005145050064806682
0.02934473237474306
0.06269671579081496
-0.012486623906054943
0.058928500513118404
-0.01349229303237974
-0.036370083284565174
-0.02748026704296467
0.007925593256413246
-0.011759712727042449
-0.004037712330212435
-0.030353125133111603
-0.03998150040835967
-0.039756611379749694
-0.019628080003904508
-0.015333690427508184
0.0038099690616876752
-0.03186011525650936
-0.009319733191971305
-0.012717147780667681
-0.035563384487068805
-0.02079685616678868
0.02830592970915994
0.007174219443040462
0.05719321192184017
0.050932658034672396
0.040596679691876573
-0.1200981987743511
-0.15209520737874044
0.03618130269709929
0.0316518782532257
0.01873037768895431
-0.021116418464901438
0.06745977606180326
-0.004528083274020227
-0.006933104113614127
-0.0406963564101666
0.0051945703994474455
0.01337447456410822
-0.04218390192875001
0.11589938612878818
0.04200940284795631
-0.012149107059945164
-0.0006700855200669881
0.018857556764962265
0.01191543930750487
0.0137237508251587
0.01131645061571689
-0.02178708919688801
0.03945349261678007
-0.021538283212130763
-0.15697967218857295
0.010489676101430959
0.06814298327151665
-0.030819427780349413
0.002635640256555001
-0.014589810687641872
0.035860575576059525
0.09695572115137599
0.043588158672806014
-0.0043253828017296965
-0.011936135218703726
-0.00011453253480544084
0.029298339701731468
-0.007017807915907728
-0.03515834949570461
-0.005054183405080041
-0.017641364146455424
-0.016213883912454846
-0.01154792448875861
-0.09230783753156353
-0.07706180655114075
0.024752330546671582
0.021201022868655196
-0.008730188377038591
-0.05209949215320733
-0.001467981554300293
-0.021413554429862036
0.02856378807816791
0.03191847164288585
-0.019645880010301025
0.006701994659223174
0.1202810518628996
0.01705875474201622
-0.007476526188573028
-0.007741031654754217
0.008865478780520193
0.016631667139953153
-0.04013144660799533
0.016341667833780684
0.016743225096347562
0.007970340999647151
0.02151402529271896
0.010407412083243322
0.016494877542575212
0.015417657665549148
0.016564649226997432
-0.01623299999620833
-0.02836668382669618
-0.06020809416250477
-0.019569108435041144
-0.014829435329196845
-0.01388770511025474
0.03053991683243356
0.013164486481104503
-0.00025304279903409126
-0.008068957055188992
-0.014117749586264274
-0.007536429745433067
0.007968818312613112
-0.008482583708342041
0.024289414705321696
0.060558125034018216
-0.0430115339897811
-0.0211735543366112
0.009290277150709502
0.03851265318751094
-0.04836470077134907
-0.017446556659570647
0.05864557722467648
-0.019232921246323025
0.011082204610055442
0.02035779241841509
0.031812931505757654
-0.04009690359293739
-0.06976018107518879
-0.02429262522082745
-0.018975045180558345
-0.01709140591131324
-0.0028835162377893377
0.011407018259897565
0.008660644660342814
-0.0013250630693916303
0.0421128210409361
0.06644917998974184
0.03145587908315648
0.004610067785358245
0.02793875904556198
-0.015955068955588066
-0.047089352529594036
0.017054372640837836
0.012975705278426059
0.02434976153605949
-0.042737319801791435
-0.017001807665817412
-0.009649384865949288
-0.05155670471606833
-0.017785865680134058
7.900184499027427e-06
-0.003193069338777613
0.016079978388116735
-0.03471853193004496
0.0021931549965791166
0.0986380749530058
-0.007679539397870994
0.014171745979641005
-0.004379853971378094
-0.041649539650589845
-0.0315816828604998
-0.02713084455306914
0.03051668571226818
-0.02065205723941001
0.011632360708725207
-0.020138480211230356
0.014140466965958621
-0.012819169102401603
0.020289376809707983
0.007072618408907315
0.02877101602976081
0.11129822869634011
-0.04953051791396209
-0.024892603229988014
-0.035816150240981566
-0.005900672606840775
-0.008817426824045016
-0.005094755781820132
0.0516408553207705
-0.006815584097902519
-0.0222757949623704
-0.06642670746040573
-0.023290028572340363
-0.020240876016570503
0.004047960089768501
-0.02219980236887203
-0.018368782449684453
-0.007453663302626822
0.032895196803456477
0.015724799642059962
0.006226897294632837
0.030189174658633758
0.0088914555507787
-0.016235775299244495
0.01847270220458415
0.002375049653550023
-0.04250284415833898
0.016580298265218518
0.07033773709251938
-0.02136907119009281
0.02200193563415808
-0.029890044576356366
0.030390229565102823
0.009345973665701352
-0.00226665709606438
-0.0031670693035215345
-0.02799859820039643
-0.03524465170966282
0.07986664436258789
0.0884015291691674
0.0369592926065424
0.12915505169178895
-0.037722559225570246
-0.01139193524990229
-0.007731151011272044
-0.048762018970910724
-0.03984904528377558
-0.019500125607183786
-0.05787158721736124
0.020874860674380807
-0.0009231888945055146
0.011513325853330467
0.013907427287721931
-0.007791363119030739
-0.00010760356708033971
0.053185946597597254
0.007144000968364768
-0.012967134070963839
-0.024110740871397356
0.02274154641098852
0.02195456465086634
0.03997074648060486
0.1050815451111839
-0.014645667521893984
0.00691505993862821
-0.0325956502089736
-0.03158427014381384
-0.025037186458866725
0.008926591094991039
0.015360890650539874
-0.00999555431464643
0.04654540349353479
-0.2736182063461747
-0.22811384180944597
0.07233855547957359
0.018944111466628038
0.06979094808295887
0.02744394936454795
-0.025852162248625615
-0.020245796538317967
0.035294017119151665
0.033220426279792825
0.03385920323915602
-0.02036829985975182
0.0826438424238871
0.01916031867805098
-0.019650401721923245
-0.08763674683653971
-0.05375110872122979
0.001808982995740778
-0.028202808912824673
0.049731270224505866
-0.00897134204407223
0.008732901330268085
-0.03643041636215132
-0.14988875086570722
0.09335038633723536
-0.01241111901853001
0.01198794921824845
0.02016668632835829
0.022815325124288983
-0.019495183353505963
0.006528122356662954
-0.01732095282113991
0.03102923260089278
0.056105663850944704
0.002034682945845861
-0.026029684881275342
0.017875343187781677
0.021253915517502418
0.0146736195464257
-0.0450979582263372
0.04759478219498934
0.09034286918399097
-0.017810327524557936
-0.017820424672795637
0.0010367022662526545
0.025742411900032645
-0.029464686782532758
-0.20362053062134178
0.010405156015352697
-0.02183928322930914
0.047772050274154716
0.03270395063213899
0.041835545173164596
0.04458260227611081
0.026506626866437403
-0.032786336974135154
0.0003417576502962531
0.016981984947652743
-0.007289318009847606
0.010106816340770479
0.022563239824440112
0.0306810063289259
0.0005786345981584984
0.007345799979324096
0.0214524425804653
0.05081303335233238
0.03347027386718657
-0.005574005523027716
0.007090892789516349
-0.011378304141359251
-0.026178432403827202
-0.00539035963608692
0.05454096926262393
-0.032063598305693754
0.0058223130137888
0.008575219532487046
0.07406323065692844
-0.12401350098835912
-0.16283654516478238
0.03474501672549172
-0.0012671095465321839
0.007589896563321802
0.002526848031391733
0.042416849915561855
0.009462541365447656
-0.005405636179778664
-0.017409786279288283
-0.01709818300225637
-0.019304947238262413
0.0449782779895116
0.025206237644811082
0.029345944424996953
-0.032406629962116705
-0.010755137377057702
0.008917003680010709
-0.01533598766989057
0.045669528001267175
0.0472532701377203
0.03986841554200594
-0.09325016548796351
-0.11613372021475607
0.02211355043574389
0.003916032536507537
0.037168738889987965
0.05226478740666383
-0.04446794811479735
-0.23446912143101736
-0.004709688169509743
0.016462514550647834
0.02922514211742427
-0.006759386259956616
0.12433252740962172
0.041853035330689695
-0.014460013466231287
0.017642497867749345
0.004060081829130037
-0.0845742530515219
-0.04031567591510342
0.009306669938583789
0.004630887356750619
-0.011179496583307311
-0.07229168003587427
-0.023520288574557464
0.062165018969111925
0.08205730420388123
-0.008577162170808285
0.012605183678854331
0.01969506546158568
-0.06016446380218291
-0.04430591938161672
0.009290130294212816
0.09580715310194136
0.03052950125937917
0.012455042766168108
0.030313392445246726
-0.047252337228707
0.02477789027715712
-0.007785216321126528
-0.019819541784571165
0.007942597766206773
0.02715625728152698
-0.002850662615621533
0.00759518599132661
-0.006821797237760015
0.01651619699823049
-0.020198194194222006
-0.025249155059704993
-0.04899193798865703
0.10460132913026769
0.08016947082735974
0.007233455669386212
-0.012344274372963114
0.0472624372205652
-0.005617995819081516
-0.05858994282165408
0.01975947488755671
0.01659025507669756
-0.00477368350739824
-0.019756579964163006
0.03582842479824228
0.04189962695036188
0.006780794622471087
-0.009975764953234705
-0.020390803781494656
-0.0036871895303104297
-0.02904958978757694
0.045809221726916316
-0.01425325982294885
-0.07902821234838713
-0.054090972460158954
-0.03242563870840579
0.007103611448729641
0.05579556117672676
0.013891699693137218
-0.017972707715249604
0.009488383374240844
-0.020381258107731694
0.02513860628723756
-0.008356796273949377
-0.01643107704468523
-0.022698615728673772
-0.013832618137911241
0.05624282211138214
-0.14015291922105919
-0.10349340643950786
0.10676445174180796
0.025055367322253892
-0.016037004585906855
-0.013598893535867003
-0.02194923724212863
-0.02886976770320585
-0.027455999770441792
-0.04113513847678375
-0.012263897567015318
-0.014435434590286792
0.028726492143688238
0.15771494336007666
0.04005883581884649
0.006740167779410672
0.029009792752503136
0.005687684389822874
-0.009963510478198878
-0.021911608305947964
0.008336812137385808
-0.030121261804450194
0.035204182462831295
0.011451629403821172
0.03740201147103845
0.023086448188288866
-0.01935941038479252
-0.01405385585811101
0.008050495497192786
-0.0037197373563587445
0.04584106435703736
0.14101590419042548
-0.015028233434263188
0.026154218576847965
-0.016246462264857035
-0.061955658540012705
-0.029121636186876583
0.013748420420165929
-0.029152811997086223
-0.14706918387942253
-0.05123132773067301
-0.012638555988879661
-0.006697775934471921
0.004523761294776618
0.019774673739726533
0.017640323576919893
-0.03138034194981255
-0.014636872856573398
0.02435894829118858
0.039072919037159
0.010018397011726656
-0.023943381093683522
-0.0020988192135477156
-0.038554646321292144
0.0043281732920817904
-0.0009435925836285109
-0.0008288160960880415
-0.06770633143185828
-0.0818985563211086
0.0071043317755980565
-0.006591937229214388
0.0054389302807055645
0.014389121464410164
0.050226135485537914
0.020273229736900846
-0.007288073627577526
-0.004832222793292126
-0.004431180948484164
-0.02134770722534775
0.004206351182132677
0.00717917478094899
0.0331368682478901
-0.0041591834263174955
0.014016836251841547
0.009548750101658305
-0.012882194303525444
-0.013692011626440443
0.047283838671757006
0.015871377195415017
0.04208773199137765
0.0979978447412592
0.09648145110499153
-0.05379017634826423
-0.056555249546439826
-0.05410136339969012
0.07871712628331465
0.07213395031806694
-0.1081426952516402
-0.010063432844939213
0.027236149786678363
0.019028446066170948
0.029337535838914634
0.09565246259166568
-0.020710371858715857
0.012830976113239832
-0.030439988082644035
-0.005922518900660584
0.022796271826555328
-0.027017374896671657
-0.05091905137945107
0.02964490130326305
0.019518116775351167
-0.025765478600851842
-0.060632494479272825
0.018366049945382084
-0.004183359717952515
-0.005725283208205595
-0.029196570804331717
-0.01393002539988435
-0.017072241708104136
0.01080476636465764
-0.05358244950158818
-0.0948310669740538
0.037801486609659325
-0.029413635563475614
0.04450260144718351
0.18533670549642323
-0.01627422978159787
0.05353467971162062
-0.0009642016104622228
0.055157016532818307
-0.0029805046095690234
0.0019770149933906783
-0.13114304618820996
-0.11203476077848173
0.01772513228114212
0.025413732087373988
-0.002003736187374904
0.016521188131991122
-0.03250986223772163
0.017113876553006363
0.035097182319930705
-0.007527282249606228
-0.005529816019168171
0.004402722111472444
-0.009848878170902317
-0.0890361383115142
-0.005697217905018483
-0.01878498980849853
0.043872132350246035
0.01648470980178994
-0.004896772223296563
-0.005342404079359712
-0.03079617559392012
0.00847832918672094
0.0045471835352913475
0.007810764916643971
-0.006907119478334665
-0.011595256616089272
0.021274326494220903
-0.0005351297149111698
0.023700273081059042
0.07573498745326164
0.058517183876685426
-0.011007543978832635
0.0011141003731782338
0.003514332837764421
-0.01758530702750296
0.00638361871760868
-0.09760328305807638
-0.05089661422273087
0.01961131814777611
0.016919076487454828
-0.03348344717024533
-0.11783262440004777
0.014382758176854953
0.05523496326515854
-0.008744594047175326
0.012075670909197872
0.01131036013778564
-0.008266793596771497
0.0002564825830421665
-0.02955195122935848
-0.007865958491721812
-0.00020475842375570268
0.028022546758483653
0.04771708702285324
0.015161393972057145
0.0011138170756591912
0.0511414970412969
-0.010187700592528407
0.03484482604443734
0.01158085254017573
-0.017500653714525565
0.006574492278857389
-0.006138725257329368
-0.002424240026178301
-0.0038826305799133814
-0.00946743374887826
0.03199776132217299
-0.018040137262073704
0.002477274179156659
-0.046153574670603624
0.14108353516904804
-0.013260563022656411
-0.11660742643228829
0.015559409703556593
-0.00958707445889163
-0.01363616948127813
-0.010314741844317604
0.030879134924219447
0.02584850454819757
0.016311148752140334
-0.00262737713278662
-0.028157583759894165
-0.017042724594327416
0.009611707188038365
-0.0360360920753743
-0.04175739560819839
0.04356713829701388
0.035583164086278055
-0.0036881469532855636
-0.034821660905606545
-0.03152518423279369
0.00578741122603256
-0.02115341546777294
-0.005213809090008751
0.06916318803363056
0.01609780656345063
-0.021905812911003977
0.001519612090570431
-0.0007724378193615065
0.05508631846702661
0.09314731188230294
-0.01852159626183834
-0.005726142979898867
-0.009918827454642717
0.011128249184373717
0.024211537022965947
0.027829648289339082
-0.02405293235937757
-0.045953167984577964
-0.0014893573026242657
-0.06197809457410299
-0.028070604072756317
-0.009538167514806675
-0.03694995427570188
-0.02540196500404564
-0.029709702237395004
-0.033916412957401526
0.0016212316502151047
-0.025002608454755323
-0.006366665683888074
0.05044600243086252
-0.009183843467053395
-0.045406927575570355
0.01060251687490873
0.00824144123109286
-0.0460054435400133
-0.013270067537294943
0.08319765746344045
0.025276845651615015
-0.06427297860751024
0.029423749826419123
-0.049003389188110175
0.14842919816647793
0.14318841171668287
-0.06948134848463479
-0.0023573852854115135
-0.03764328397094189
-0.023408474082593715
-0.044444241575340125
-0.01528885614752515
-0.002601611866604997
-0.04143251884425026
-0.015914631797271615
-0.03259196702102008
0.2053192338046326
0.21872107022783044
-0.06475308832629481
-0.03330890938683308
-0.047350777912269916
-0.02930479081413267
0.01643268217649877
0.09291335650531486
-0.02088705579063928
0.04331884040467428
-0.01096267798611009
-0.03060714322789319
-0.02597207344998771
0.019417296397490014
-0.03689750353030972
-0.009395424678604283
-0.03622205496470674
0.02916862629354319
-0.10135286295314659
-0.03301374869169733
0.002991254764782832
0.010212127240976884
0.0024008756664194927
-0.016155206410262215
0.0027437309316728892
0.07487234775655002
0.01177220750940745
-0.02514079755733266
0.039814784807937646
-0.010465625525638634
0.00032978004510854825
0.005304395259000297
-0.0315209412346886
-0.022210840505202514
-0.00987089491008907
0.0012359046652007392
0.02605263538426423
-0.04563293165265927
-0.0005167560142102314
-0.025070733763801548
0.009836208922168892
-0.007797808424141545
-0.01815467545144816
0.022051415543832917
-0.007625157383185322
-0.01636562934541866
0.019658247355437888
-0.03817755119737524
0.07017237971541147
0.07903577463080504
-0.0030314643488266427
-0.01622948077924639
-0.04884097677768568
0.0007546999898939042
0.015240929031128884
-0.0015517801759428657
-0.022050859132101395
-0.011261792284726716
-0.015822029888814676
0.04574373645269993
-0.0042792513913088295
-0.008438427064920815
0.002166739422328533
-0.008420342605703988
0.058541045095370114
0.032945017146738004
-0.04423420325958999
0.022250917293519808
0.013076403249982767
-0.026348721139029453
-0.0012132831132919168
-0.013181839881450847
0.028452893847256893
0.040302522087863855
-0.008617053549770548
-0.017482500241086853
-0.011316177611915288
-0.019338864609583645
-0.0018796053638385321
-0.01921945902339656
-0.1600022396051052
-0.026513948294492457
0.007008974210181521
-0.030159573274552445
-0.0364471453112681
0.013148416446857509
-0.04289342829281859
0.10659264514493473
0.08537395015707384
0.0008723103062669397
0.017281693077133863
0.0024397365997942317
0.01848320611386451
0.002278620382550416
-0.003413417866857926
0.0036510050603874105
-0.014398392320255452
0.041981016063645175
0.028828931173101043
-0.021447223756354123
0.01864630624516324
0.0599339400329226
0.008183254863410044
-0.0431833505979714
-0.031223427602528716
-0.011627134445904784
-0.009024528663922681
0.0071938506953126745
-0.021679028421624367
0.0003636201566015627
-0.051829977284111255
-0.015424576117667807
-0.022419478509200258
0.0015793679889926288
0.022174014341054125
0.038239916419457724
0.002307845239022529
0.01950787234938386
-0.01308534334653596
0.04530959834507882
0.04457845405012699
-0.03205449922171143
-0.030623617110480363
-0.024911567112764522
-0.013939702861395181
-0.0011015746646210977
0.05369844665539484
-0.009574543800498945
0.0002496726337878658
-0.010212864235047829
0.018375932828488088
0.0021136621233434822
-0.046979361219180116
-0.020305395421468905
-0.013993712134610495
-0.017146834009650516
-0.04293835009181154
-0.07716330982955398
-0.09477328064913024
-0.08696852066512943
0.13307693315835978
0.264486486489797
0.006712380758469946
-0.02133961729251664
0.0016579500329872345
0.0020598792222780472
-0.017510023930220664
-0.01150745442506183
-0.047305279052594976
-0.004235709200973897
0.11423530899284984
0.017494359348981026
-0.04075664169876184
-0.03355252490648167
0.014259010827288235
0.02360711413942578
0.062089675064470794
0.14605066368052955
-0.04973950462707785
0.002286235460947939
-0.05063013495563646
0.010893911688159964
0.04569258098960495
-0.012386446746537435
-0.05285946285108401
-0.03680784256085858
-0.012521436719491833
0.03332147190280922
-0.008171088372174989
-0.01446404971563769
-0.004578474572145362
0.0022421320689001868
0.05292628169456686
0.008033253756927757
-0.015148621652475998
-0.03469321228123528
-0.02613150712947594
-0.0021851459200895504
-0.021709609927948847
-0.027891962494113437
0.016528297631120924
0.007265068195563517
-0.014084103144533795
-0.02988855416280442
-0.014636721635252765
0.019701945858411774
-0.0453260812042419
-0.02219527080078679
-0.02171651429831367
-0.008047049097446971
0.035453378158392376
0.02384249372768268
0.027237607673177785
-0.023155860688886174
0.01944625416828514
0.010736615414960581
-0.08999077837700643
0.009301022026787507
-0.03732510629037507
0.006808111616864351
0.009900065242464033
0.009855487776567346
-0.007492922743237943
0.02279635204553105
-0.0295286974598549
0.001362500700007295
0.024187633660578852
0.01809427474438789
0.07848442548350071
0.003980694359929813
-0.030562877617728534
0.01410686462425133
0.011823811090737994
-0.0009143815642404564
0.012543837923676492
0.04431138364111565
0.025063392655258684
-0.0188132294365284
0.026266712441418424
-0.027614886518164506
-0.1123614654324368
0.005906720463205008
-0.020647103025599276
-0.029487446945020205
-0.002166657098308759
0.03862690375927714
0.00041405613615559775
0.054061759914276454
0.003762361701175651
0.006080259025387658
-0.03337867119681676
-0.015186453431563152
-0.025800817744926843
-0.015185362186189292
-0.026617034471221462
0.011831119954261973
0.02866771038504136
-0.02869156073451896
0.00045744179480414725
0.012207974345990906
0.008941653725742382
-0.003933395338679911
0.04747357381825179
0.020789403500314284
0.0015770631575086486
0.01597386536559007
0.024790396777534578
0.004191113515215367
-0.021204995938424388
-0.0058986135299849965
-0.03182572761291496
0.046445060243104797
-0.00241701062741702
0.004290009282378719
-0.007286538721567543
0.003671438238881749
-0.005531293091941333
0.06854428805701679
0.04047701289614403
0.010926638065118463
-0.017250344159469636
0.066195086796863
0.003063754325544283
-0.04718617477913801
0.01104262690581073
0.01971340243073439
-0.10742778403406204
-0.05539161477300275
-0.0025713218264474223
0.011935269221483661
0.00553181394248184
-0.025750880226509905
-0.013185876104397757
-0.03035377615429409
0.02584753920371793
-0.0359383647022537
-0.023459625077164536
0.01463437290689597
0.047449241137604806
0.011789519521366814
-0.05111490401032638
-0.031183189555004952
0.009481984853973677
-0.02229431739764592
0.0047946104299692776
0.03037189506740367
-0.016774159627402866
0.01711095106255741
-0.03260132974882265
-0.01636389285106701
0.010870586676355128
0.006311566142679674
0.0011116770268334668
-0.04062870281211906
-0.034080089452267336
0.03718662734681348
-0.007821192275267678
0.0024745424388360475
0.024583880657926185
0.05571550049594419
0.18234936523306053
0.03513947426108218
-0.01655033585124417
-0.008056791923576343
-0.02742946169049885
-0.021047315921739137
-0.025424915081457118
-2.9239885857817327e-05
0.01987891790038744
0.059037356800741785
0.012942022542199245
-0.07237633899396483
-0.00413091148865418
-0.0519756014929895
-0.06744936015120954
0.0024321883583502224
-0.02398704930978768
-0.047627698068126764
0.0385147099300343
0.08230338042302691
-0.02950977933954572
0.021259702293487285
-0.04500795892985279
-0.00522414041504086
-0.012336163612103641
0.02336664625718011
-0.03722059683587067
0.06383865118392629
0.030574029253004894
-0.027968441211686738
0.00035078856328121674
-0.007701314798614057
-0.01174749073256213
-0.015328396567668491
-0.01966236231470211
0.0030746469565222836
-0.005913176183968143
-0.018632474965715108
-0.0050220653871881245
-0.008254651117363595
-0.03924113620962446
0.005464261731581416
-0.019168504800542382
0.012506772780922215
-0.026592594027570554
0.026777373663567354
0.003509497232468326
0.0013502301861563757
-0.039353054236408044
0.05526233455732187
0.08691864367277789
-0.001025939084084009
0.08922352360119229
-0.007343343683339925
-0.008064535712931748
-0.017914169877799885
-0.026337834180443533
0.07289934278589405
0.04284567900219756
-0.06842804617613345
-0.015190867763511097
-0.008092921073402218
0.01702305705836604
-0.008055431883201554
-0.005173506350475518
0.008047210000842691
-0.006969636117865174
-0.011694441955303699
0.006318619343036132
0.06874706948960917
0.025039510213783544
0.0017728205829034315
-0.014006547837199923
-0.008499900745086586
-0.043951518964462005
-0.016425163242397647
0.013786809246568957
-0.004472670563043637
0.03628324385620118
-0.0374720561036884
-0.15568020143792816
-0.009020954057049299
0.01664572412952681
0.2697820165982049
0.037618774219032106
-0.17394905663581212
0.0576760152084885
-0.0011249836997014474
0.012227345023322417
-0.021528454363013743
0.014805149301874859
0.012860998085697451
-0.00932676696533637
-0.026748684965624776
0.02324341031340883
-0.021138288833582007
-0.010512093701137969
-0.014209433251643231
0.003929674030294155
-0.031073783320608468
0.01848091962570584
-0.007510719440830901
-0.03798264427908327
-0.020196744212042435
-0.043455773531690986
-0.04051808625461018
0.0037971417992552934
0.023562517083198002
-0.009739017446673085
-0.05448096694716398
0.0019857470437576676
0.04826041010099741
0.015509754303670537
-0.02698392781718663
0.0002998806428194574
0.008081221287748921
0.009181856251142867
0.014491247527559361
0.03233005729701948
-0.03850292650252989
0.03234232566941135
0.053070679086592895
0.030764938331005437
-0.035125495845125344
-0.008725059560144759
-0.030833016090688024
0.03024399755198404
-0.012882138684806078
-0.031236220368051685
-0.028619988028451712
-0.029745282398826806
0.00022586491749235294
0.02341503150354599
0.0065677228247328166
-0.007372640677500628
-0.06554811268127651
-0.06188637088290424
0.11591347708370403
0.007903320730509292
-0.02486938943236416
-0.021931734608046847
-0.00928390689750666
0.020082564482532317
-0.04179526058059274
0.004858438046521223
-0.008454555601334927
0.12404951251038175
0.236331603544778
-0.03205583813110825
-0.03699090497599777
-0.01075438303416639
-0.006534086246962404
0.0014343323288215487
0.008585919444663413
-0.009039002214120956
0.0009674589243012803
-0.011752091587326147
-0.027715881069920668
0.03136203542666226
0.0017962606198430229
-0.05624077321933127
0.003078985216425769
0.060690436899087256
0.026993158651334913
0.000430838909685189
-0.011911258678914495
-0.02257254153025666
-0.01584412265313462
-0.041331335192074464
0.011490131313515915
0.007483632482220146
-0.002515245467935658
-0.021088171595785472
0.010758904431592876
0.00657288120072037
-0.01507581920160217
-0.014016749089064768
0.008558539315897394
-0.014276317361190352
-0.008003514618382623
-0.04491077425935169
-0.02413534383584724
-0.003633074979765238
0.052314003786256044
0.0039320571167749275
0.008482065556628985
0.005477785809819716
-0.010791926587927346
0.027299753533111277
-0.01230817549110489
-0.025053026981000006
-0.016406951501559856
0.02233300406193521
0.039160499530269045
-0.02575015238004851
-0.05609253767497996
0.08315680389571205
0.01520678733717303
-0.0026036476550137227
0.023743883783515163
-0.00959493615169514
-0.010257990873678808
-0.007021098157335105
-0.080745125641676
-0.05402642360357927
0.026024062445479234
0.03839811215923946
-0.029308328358732483
0.017571215224196444
0.021631983634857983
0.006315308082146861
-0.009337000110161838
0.016547984032078113
