,0
0.0,0.021836724924637844
0.008441596812453043,0.054828161733199716
0.016883193624906086,0.07681971370141617
0.02532479043735913,0.08574110188592975
0.03376638724981217,0.08746434790115618
0.04220798406226522,0.08679849357030418
0.05064958087471826,0.0845146850580647
0.05909117768717131,0.08113446091988852
0.06753277449962435,0.07712793419886084
0.07597437131207739,0.07240259284988179
0.08441596812453044,0.06856172504664618
0.0928575649369835,0.06827053889782002
0.10129916174943653,0.07043849046746405
0.10974075856188956,0.06725626139699709
0.11818235537434262,0.049030764607405256
0.12662395218679567,0.013706045796877963
0.1350655489992487,-0.023254597951370366
0.14350714581170174,-0.030948901497196833
0.15194874262415478,0.00599443799478729
0.16039033943660783,0.06322407788819188
0.16883193624906087,0.10160901277462694
0.17727353306151392,0.10486912515608145
0.185715129873967,0.08373093726332058
0.19415672668642,0.05546743477147457
0.20259832349887305,0.029159770031497993
0.2110399203113261,0.007855132582504946
0.2194815171237791,-0.006167341127631009
0.22792311393623219,-0.012737505250631538
0.23636471074868523,-0.014472283273543609
0.24480630756113825,-0.012750094479225186
0.25324790437359135,-0.007984521664505062
0.26168950118604434,-0.0035521405084896146
0.2701310979984974,-0.001559463708983199
0.2785726948109505,0.003566420053027649
0.2870142916234035,0.01989581445703296
0.2954558884358565,0.04535665801082175
0.30389748524830956,0.06564628530341367
0.3123390820607626,0.07039552040492761
0.32078067887321565,0.06457040775994666
0.3292222756856687,0.05759253741255076
0.33766387249812174,0.05138790293656234
0.3461054693105748,0.04423910880832965
0.35454706612302783,0.037621747849467764
0.3629886629354809,0.034740393328541896
0.371430259747934,0.036432177473784536
0.37987185656038697,0.04006538390697829
0.38831345337284,0.040581493641400346
0.39675505018529306,0.034508120571518947
0.4051966469977461,0.024865018063874443
0.41363824381019915,0.01927016034088882
0.4220798406226522,0.022051460174548634
0.43052143743510524,0.031036570743479288
0.4389630342475582,0.041983052995463906
0.4474046310600113,0.0525371057048257
0.45584622787246437,0.059774205399937705
0.46428782468491736,0.05805481485823745
0.47272942149737046,0.045265665993965185
0.4811710183098235,0.028343473668789913
0.4896126151222765,0.017694071870472113
0.4980542119347296,0.017324612085738243
0.5064958087471827,0.02189188801192846
0.5149374055596357,0.023695982332308733
0.5233790023720887,0.02098564971641783
0.5318205991845417,0.017616786941821713
0.5402621959969948,0.0172437162810738
0.5487037928094478,0.020203339178322455
0.557145389621901,0.02512978391050621
0.5655869864343539,0.030018516810387082
0.574028583246807,0.03067235971397999
0.58247018005926,0.024457814023633354
0.590911776871713,0.01818214773022327
0.5993533736841662,0.027738614872808445
0.6077949704966191,0.06953065003427111
0.6162365673090722,0.1491088113145757
0.6246781641215252,0.24115220900224954
0.6331197609339783,0.28608892754892407
0.6415613577464313,0.2450880948481822
0.6500029545588845,0.14806923090908367
0.6584445513713374,0.05308894602963292
0.6668861481837904,-0.0112614200640456
0.6753277449962435,-0.04591450465511585
0.6837693418086965,-0.058176394911055744
0.6922109386211496,-0.051660601357027984
0.7006525354336026,-0.03161727115862156
0.7090941322460557,-0.009785489347826866
0.7175357290585087,0.004119327113127663
0.7259773258709618,0.010442625481113332
0.7344189226834148,0.017315440905797543
0.742860519495868,0.03835119334616563
0.7513021163083209,0.090276912579476
0.7597437131207739,0.17677833337997653
0.768185309933227,0.27268790117436936
0.77662690674568,0.3335006681751669
0.7850685035581331,0.31895774134471727
0.7935101003705861,0.22386085184334426
0.8019516971830392,0.09265508593544987
0.8103932939954922,-0.0172797787697073
0.8188348908079452,-0.07558886315281273
0.8272764876203983,-0.08299176040980205
0.8357180844328512,-0.06165134287147548
0.8441596812453044,-0.036804418107278546
0.8526012780577574,-0.0201222617190071
0.8610428748702105,-0.010627243108106858
0.8694844716826635,-0.004916976834264472
0.8779260684951165,-0.0038347197137862145
0.8863676653075696,-0.009376460710407625
0.8948092621200227,-0.01858046704614523
0.9032508589324757,-0.025380432373603413
0.9116924557449287,-0.02566671254805436
0.9201340525573818,-0.018903286438667136
0.9285756493698347,-0.007988796340450815
0.9370172461822879,0.003166340361025132
0.9454588429947409,0.011779537876728082
0.953900439807194,0.01558621297120327
0.962342036619647,0.013552754035933413
0.9707836334321,0.00788432405363884
0.979225230244553,0.003303148436521749
0.9876668270570061,0.003258485971198606
0.9961084238694592,0.007196860061090501
1.0045500206819122,0.011703128741916213
1.0129916174943654,0.013086426579370425
1.0214332143068183,0.010197803773923753
1.0298748111192715,0.0055341481860021954
1.0383164079317242,0.0012791978170024676
1.0467580047441774,-0.0030443965350749284
1.0551996015566305,-0.006498142659343325
1.0636411983690834,-0.0065273041671427565
1.0720827951815366,-0.004260742463440782
1.0805243919939895,-0.002803895111156405
1.0889659888064427,-0.00046364427471294514
1.0974075856188956,0.008829813743106839
1.1058491824313488,0.02848845450531299
1.114290779243802,0.054354262531874406
1.1227323760562549,0.0752990518360552
1.1311739728687078,0.07894543564417389
1.1396155696811607,0.06173144974088186
1.148057166493614,0.03327998634709612
1.156498763306067,0.007949470737825077
1.16494036011852,-0.005271351769414567
1.1733819569309731,-0.006875211862107061
1.181823553743426,-0.005276033487352895
1.1902651505558792,-0.008986902209979181
1.1987067473683324,-0.01971079088376135
1.2071483441807853,-0.03245424627238672
1.2155899409932382,-0.039563298200436414
1.2240315378056912,-0.03617704659923724
1.2324731346181443,-0.02494312382110266
1.2409147314305973,-0.014110666793326388
1.2493563282430504,-0.008783870584480966
1.2577979250555036,-0.007148171863630758
1.2662395218679565,-0.007208995543234251
1.2746811186804097,-0.010856012438928146
1.2831227154928626,-0.018342507937380806
1.2915643123053158,-0.023659329453375275
1.300005909117769,-0.01897815527635871
1.3084475059302216,-0.00400936164290628
1.3168891027426748,0.013445215464127722
1.3253306995551277,0.02694753880517904
1.3337722963675809,0.03555602237786426
1.342213893180034,0.040314153640958944
1.350655489992487,0.04069234502893812
1.3590970868049401,0.03343525656553883
1.367538683617393,0.01590741370532128
1.3759802804298462,-0.009113368635395195
1.3844218772422991,-0.0332392106166862
1.3928634740547523,-0.04571833907883917
1.4013050708672052,-0.040025108729546295
1.4097466676796582,-0.021060650472130953
1.4181882644921113,-0.0012269424924284938
1.4266298613045643,0.01132374742871737
1.4350714581170174,0.015501818644836744
1.4435130549294706,0.012251170474203581
1.4519546517419235,0.003665235997957479
1.4603962485543767,-0.005097774285587
1.4688378453668296,-0.007978287417838348
1.4772794421792828,-0.003486077368051433
1.485721038991736,0.0032826446027154777
1.4941626358041886,0.006705430048693542
1.5026042326166418,0.007456466002660011
1.5110458294290947,0.009257019957909975
1.5194874262415479,0.010835391367798673
1.5279290230540008,0.0073996483532080505
1.536370619866454,-0.0033447147908403506
1.5448122166789071,-0.02396717783284109
1.55325381349136,-0.05893619833547544
1.5616954103038132,-0.10258284777173986
1.5701370071162661,-0.1319708301729423
1.578578603928719,-0.127770783069459
1.5870202007411722,-0.09778115842664781
1.5954617975536252,-0.06492344348458662
1.6039033943660783,-0.04121306590163237
1.6123449911785313,-0.025423034684620836
1.6207865879909844,-0.01570762567087486
1.6292281848034376,-0.011606239685597396
1.6376697816158905,-0.008828229677814124
1.6461113784283437,-0.005284117025581013
1.6545529752407966,-0.007177815910880269
1.6629945720532497,-0.019105180039365413
1.6714361688657025,-0.03545133355430224
1.6798777656781556,-0.04559647683323448
1.6883193624906088,-0.0436904989063288
1.6967609593030617,-0.03269388966609304
1.7052025561155149,-0.018567834891053937
1.7136441529279678,-0.00511513620422627
1.722085749740421,0.004200163598784314
1.730527346552874,0.006987882200153111
1.738968943365327,0.004900313754135493
1.7474105401777802,0.0007970358136228709
1.755852136990233,-0.007094881495289952
1.764293733802686,-0.023473908927427074
1.7727353306151392,-0.0460188240139937
1.7811769274275921,-0.06434885884455545
1.7896185242400453,-0.07266759438732914
1.7980601210524982,-0.07392550269326348
1.8065017178649514,-0.06896832493118013
1.8149433146774043,-0.053501013000455754
1.8233849114898575,-0.02959719478737085
1.8318265083023106,-0.009708421305322158
1.8402681051147636,-0.005369299150248267
1.8487097019272165,-0.01761604011011119
1.8571512987396694,-0.036628119840931166
1.8655928955521226,-0.04671113858913293
1.8740344923645758,-0.035095698982034546
1.8824760891770287,0.00180929641280193
1.8909176859894818,0.058482637430452795
1.8993592828019348,0.11650259675954858
1.907800879614388,0.14411943396063848
1.916242476426841,0.12390065909695747
1.924684073239294,0.07517371012972439
1.9331256700517472,0.028251834607416444
1.9415672668642,-0.0041100300260321545
1.950008863676653,-0.022742549141733966
1.958450460489106,-0.033562760447665825
1.9668920573015594,-0.0430888928943847
1.9753336541140123,-0.05193839287518937
1.983775250926465,-0.05471977222893622
1.9922168477389184,-0.04923800064638566
2.0006584445513713,-0.04110500407904588
2.0091000413638245,-0.03560633138619353
2.017541638176277,-0.03193827283272774
2.025983234988731,-0.026974370147112008
2.0344248318011835,-0.018869791009994613
2.0428664286136367,-0.008513568554769414
2.0513080254260894,0.00038399039396823506
2.059749622238543,0.0041425651873157904
2.0681912190509957,0.0009875381109852453
2.0766328158634484,-0.007788181970309943
2.085074412675902,-0.015755998985539057
2.0935160094883547,-0.016141828268843392
2.101957606300808,-0.010979608171653481
2.110399203113261,-0.00934096272892271
2.118840799925714,-0.01621897367378174
2.127282396738167,-0.02769010832896645
2.13572399355062,-0.034672523820406614
2.144165590363073,-0.03004025703736094
2.1526071871755263,-0.015922611339440996
2.161048783987979,-0.0016443664527048298
2.169490380800432,0.007261088229321376
2.1779319776128854,0.011512271501357394
2.186373574425338,0.010534622104531714
2.1948151712377912,0.003485644924411392
2.2032567680502444,-0.001962493324610096
2.2116983648626976,0.0045306277072196255
2.2201399616751503,0.01932249722122016
2.228581558487604,0.027633947092990028
2.2370231553000566,0.023132667781825936
2.2454647521125097,0.012681935667305303
2.253906348924963,0.0068791934019572076
2.2623479457374156,0.012107617187352758
2.2707895425498688,0.023312560674217272
2.2792311393623215,0.027730784127647137
2.287672736174775,0.02110900019468778
2.296114332987228,0.011560697379816463
2.304555929799681,0.007507257148311294
2.312997526612134,0.008725547944850448
2.3214391234245872,0.00875263626235487
2.32988072023704,0.004576797038146514
2.338322317049493,0.001208343796758621
2.3467639138619463,0.0033318600301310607
2.355205510674399,0.006311006528032387
2.363647107486852,0.001481835252920735
2.3720887042993053,-0.012754422560119714
2.3805303011117585,-0.030614213229147244
2.388971897924211,-0.045263143483279096
2.3974134947366648,-0.051548665355296
2.4058550915491175,-0.0472757007791269
2.4142966883615706,-0.036417074740169614
2.4227382851740233,-0.028833226890914873
2.4311798819864765,-0.030194640313557917
2.4396214787989297,-0.033985046444310135
2.4480630756113824,-0.0306400361694676
2.456504672423836,-0.02079222853835374
2.4649462692362887,-0.014292638061731153
2.473387866048742,-0.019327467035423346
2.4818294628611945,-0.034507643004031766
2.490271059673648,-0.050436069187515684
2.498712656486101,-0.056596524054462166
2.507154253298554,-0.04664662853015853
2.515595850111007,-0.023554911005976197
2.52403744692346,-0.0011741490644835454
2.532479043735913,0.0072649279564494474
2.540920640548366,0.0031558890531896084
2.5493622373608193,-0.0015263832980733343
2.557803834173272,-0.0007331542656432612
2.566245430985725,0.0007593720434150638
2.5746870277981784,-0.0016841658730729768
2.5831286246106315,-0.006645566251609052
2.5915702214230842,-0.014049154519469956
2.600011818235538,-0.02722728627423506
2.6084534150479906,-0.04324871147041827
2.6168950118604433,-0.05112017018305937
2.6253366086728964,-0.043089667467473024
2.6337782054853496,-0.022605105879227524
2.6422198022978027,-0.0006553816303716715
2.6506613991102554,0.014880322587492636
2.659102995922709,0.024138170003390535
2.6675445927351618,0.02778598358216666
2.675986189547615,0.020835342641611583
2.684427786360068,0.0016657163501952524
2.6928693831725212,-0.01658798784298106
2.701310979984974,-0.016987638536249124
2.7097525767974266,0.00023036764328166447
2.7181941736098802,0.01965259401342065
2.726635770422333,0.029339325055384172
2.735077367234786,0.028604492565460098
2.7435189640472393,0.022772835514136155
2.7519605608596924,0.017576022721100364
2.760402157672145,0.01517189659864744
2.7688437544845983,0.012788650494033986
2.7772853512970515,0.008168729943033826
2.7857269481095046,0.004475906236204336
2.7941685449219573,0.007646984233802615
2.8026101417344105,0.020277596711386077
2.8110517385468636,0.03547759863938886
2.8194933353593163,0.039074261755414105
2.82793493217177,0.026007770467712497
2.8363765289842227,0.00739681764161459
2.844818125796676,-0.004826035912849219
2.8532597226091285,-0.008031674904949701
2.861701319421582,-0.003526692652984811
2.870142916234035,0.005678529100662767
2.878584513046488,0.010391173836883056
2.887026109858941,-0.001733089967672431
2.895467706671394,-0.029453072530316024
2.903909303483847,-0.051871057137642236
2.9123509002962997,-0.05243294543196492
2.9207924971087533,-0.0381124562730594
2.929234093921206,-0.02423088761623608
2.937675690733659,-0.01545023793801263
2.9461172875461124,-0.007838663541873247
2.9545588843585655,0.0022767083133474744
2.963000481171018,0.012765011089645638
2.971442077983472,0.015324727793043365
2.9798836747959245,0.00481992104680237
2.9883252716083772,-0.012835600790846908
2.9967668684208304,-0.027526196765677247
3.0052084652332836,-0.03461331387600162
3.0136500620457367,-0.03420203906800361
3.0220916588581894,-0.02644732186373836
3.030533255670643,-0.011153767977725604
3.0389748524830957,0.007504920643066272
3.047416449295549,0.01897612427788892
3.0558580461080016,0.015977939594752348
3.0642996429204548,0.003935448597549722
3.072741239732908,-0.0033704559115785857
3.0811828365453606,0.0067626597233001115
3.0896244333578142,0.03837070767589801
3.098066030170267,0.07814204410373353
3.10650762698272,0.09683204628011781
3.1149492237951732,0.075401504284445
3.1233908206076264,0.027066348216856117
3.131832417420079,-0.019111674949981367
3.1402740142325323,-0.04562613408193949
3.1487156110449854,-0.05137395026199116
3.157157207857438,-0.04235397051957854
3.1655988046698913,-0.02446144561070015
3.1740404014823445,-0.0036444020126426375
3.1824819982947976,0.013011121823585355
3.1909235951072503,0.020387257114854625
3.1993651919197035,0.014941009753313838
3.2078067887321566,-0.008135571955059031
3.21624838554461,-0.04893846036495048
3.2246899823570625,-0.09350283219355403
3.233131579169516,-0.11841496277480006
3.241573175981969,-0.11165016756544174
3.2500147727944215,-0.0844873475204321
3.258456369606875,-0.05714470726999327
3.266897966419328,-0.042339924223619374
3.275339563231781,-0.047002311657352115
3.2837811600442337,-0.0753741253011548
3.2922227568566873,-0.11524832499399795
3.30066435366914,-0.12999234801025472
3.309105950481593,-0.09302678414897236
3.3175475472940463,-0.024667894952139745
3.3259891441064995,0.030088991022589093
3.334430740918952,0.04581457587298822
3.342872337731405,0.0284381136107235
3.3513139345438585,0.0013494633357042391
3.359755531356311,-0.01456951371416499
3.3681971281687644,-0.014252370636732702
3.3766387249812175,-0.007367781937497236
3.3850803217936707,-0.004847739859866885
3.3935219186061234,-0.007433245545579899
3.4019635154185766,-0.008811850808388732
3.4104051122310297,-0.0035679125753470685
3.418846709043483,0.009318592917807345
3.4272883058559356,0.024103669213949998
3.4357299026683887,0.03155799977177702
3.444171499480842,0.03022647668252751
3.4526130962932946,0.02928588594776472
3.461054693105748,0.03538981206393863
3.469496289918201,0.04354393615277486
3.477937886730654,0.043798881557140804
3.486379483543107,0.031122892438074284
3.4948210803555604,0.009028152289898131
3.503262677168013,-0.013857445930897008
3.511704273980466,-0.031308195276821396
3.5201458707929194,-0.04213296800131997
3.528587467605372,-0.04708057677825183
3.5370290644178253,-0.046430784256272915
3.5454706612302784,-0.039368284560921875
3.5539122580427316,-0.025578344439273017
3.5623538548551843,-0.0078107754726539835
3.5707954516676375,0.0074806126352053035
3.5792370484800906,0.012340238923127722
3.5876786452925438,0.004081193623615203
3.5961202421049965,-0.010076416264843928
3.6045618389174496,-0.020418608219511383
3.613003435729903,-0.02466757851698231
3.6214450325423555,-0.026559445129752314
3.6298866293548087,-0.02792871388466508
3.638328226167262,-0.024234361057512453
3.646769822979715,-0.0070676935646312505
3.6552114197921677,0.027475511349337577
3.6636530166046213,0.06794090999487352
3.672094613417074,0.08716510384580942
3.680536210229527,0.06870714789811792
3.6889778070419803,0.02991308760507664
3.697419403854433,0.00038751969213830263
3.705861000666886,-0.010367483332974867
3.714302597479339,-0.009737255362798437
3.7227441942917925,-0.0021634777449676904
3.731185791104245,0.013767293379778027
3.7396273879166984,0.03398883501691344
3.7480689847291515,0.0457882253734096
3.7565105815416047,0.0404359484983076
3.7649521783540574,0.021604253900905195
3.7733937751665105,-0.0023469595973134713
3.7818353719789637,-0.025615252554154633
3.7902769687914164,-0.0431090345048923
3.7987185656038696,-0.048308175901847085
3.8071601624163227,-0.034292908622356684
3.815601759228776,0.004331863601935585
3.8240433560412286,0.06977344216600685
3.832484952853682,0.15940545477606838
3.840926549666135,0.25026055505145384
3.849368146478588,0.28814422125357275
3.8578097432910408,0.2370503999870327
3.8662513401034944,0.12980979575171786
3.874692936915947,0.027418695490798287
3.8831345337284,-0.03857962804506331
3.8915761305408534,-0.06419967092058916
3.900017727353306,-0.05554634528485963
3.908459324165759,-0.02595879632941775
3.916900920978212,0.007424588816959496
3.9253425177906656,0.0323506766028182
3.9337841146031187,0.044931406738293676
3.942225711415571,0.04700803669819601
3.9506673082280246,0.042849443612899545
3.9591089050404777,0.03448262681132747
3.96755050185293,0.022955466026628474
3.9759920986653836,0.014361062247671051
3.9844336954778368,0.013672936092592299
3.99287529229029,0.014498269101082794
4.001316889102743,0.0069735230358699525
4.009758485915196,-0.007382270309098528
4.018200082727649,-0.01877581734267057
4.026641679540102,-0.022560422722885883
4.035083276352554,-0.021146195289540873
4.0435248731650075,-0.01702319401329237
4.051966469977462,-0.011472550766408409
4.060408066789914,-0.007473672923708703
4.068849663602367,-0.007650153607133564
4.07729126041482,-0.010086294504934512
4.085732857227273,-0.01026800687591301
4.094174454039726,-0.007476831818250759
4.102616050852179,-0.0052382988883933265
4.111057647664633,-0.00443363116278782
4.119499244477086,0.00038049325347640244
4.127940841289538,0.015349838924857277
4.136382438101991,0.0370930768201682
4.1448240349144445,0.0517233741953757
4.153265631726897,0.04871893154701404
4.16170722853935,0.032164140853212383
4.170148825351804,0.015096488399433913
4.178590422164257,0.006164751379459991
4.187032018976709,0.004325890920931777
4.195473615789163,0.004464077899089444
4.203915212601616,0.003467963178021829
4.212356809414069,0.0006363476394551262
4.220798406226522,-0.0036406763462662798
4.229240003038975,-0.007930501814482608
4.237681599851428,-0.00947390986060128
4.246123196663881,-0.006206557556886141
4.254564793476334,0.0002545876716133419
4.263006390288787,0.005294699447428251
4.27144798710124,0.005364327509811707
4.279889583913693,0.0007848274109868462
4.288331180726146,-0.007460646088960357
4.2967727775385995,-0.021532043579285242
4.305214374351053,-0.041900099201745
4.313655971163505,-0.062491205355129115
4.322097567975958,-0.07316538235957487
4.330539164788411,-0.0647259816288445
4.338980761600864,-0.03899843059190658
4.347422358413318,-0.013004019587136671
4.355863955225771,-0.002006539320110951
4.364305552038224,-0.005092173381170432
4.372747148850676,-0.01308468867267783
4.381188745663129,-0.01981242022806807
4.3896303424755825,-0.023469524848166126
4.3980719392880365,-0.02501504566471621
4.406513536100489,-0.02753110273815939
4.414955132912942,-0.033550866789757314
4.423396729725395,-0.04133675287235761
4.431838326537847,-0.04552550387283183
4.4402799233503005,-0.042697496716834
4.448721520162754,-0.03479372379378473
4.457163116975208,-0.025411800464082895
4.46560471378766,-0.01542712586997649
4.474046310600113,-0.003869403764453688
4.482487907412566,0.009685637510063098
4.4909295042250195,0.022603578280865903
4.499371101037472,0.027423398989194693
4.507812697849926,0.01789942468844072
4.516254294662379,-0.003865110342698979
4.524695891474831,-0.0306357524723913
4.533137488287284,-0.05303274529567744
4.5415790850997375,-0.05980447594794768
4.550020681912191,-0.04670493573700153
4.558462278724643,-0.02259300120142536
4.566903875537097,-0.001531847239026737
4.57534547234955,0.007378374348355123
4.583787069162003,0.005039855218919328
4.592228665974456,0.00042845317161989286
4.600670262786909,0.0002445961220071468
4.609111859599362,0.0032477296622298647
4.617553456411814,0.006999464898261813
4.625995053224268,0.012013428642134654
4.634436650036721,0.017351429951595446
4.6428782468491745,0.020398450991504686
4.651319843661627,0.0204781707913593
4.65976144047408,0.017411093515885094
4.668203037286533,0.010393119034688267
4.676644634098986,0.0011017326176164864
4.685086230911439,-0.00612920633730055
4.6935278277238925,-0.007810097122307333
4.701969424536346,-0.003862278044882254
4.710411021348798,0.001532771579163616
4.718852618161251,0.002562830096670155
4.727294214973704,-0.00301211022771135
4.735735811786157,-0.012090889162085231
4.744177408598611,-0.019387959285281767
4.752619005411064,-0.019694466104191358
4.761060602223517,-0.00810639644516557
4.76950219903597,0.01258335612422218
4.777943795848422,0.02664216368321032
4.7863853926608755,0.02135457201839692
4.7948269894733295,0.001026288131518444
4.803268586285782,-0.02290192613046571
4.811710183098235,-0.04125282460588548
4.820151779910688,-0.04694759550459003
4.828593376723141,-0.038590708969332144
4.8370349735355935,-0.02234901295066322
4.845476570348047,-0.006316589135009463
4.853918167160501,0.004694992524667764
4.862359763972953,0.008882384338718017
4.870801360785406,0.0073104046702763496
4.879242957597859,0.004693691721096775
4.8876845544103125,0.004156269999340354
4.896126151222765,0.0036244932938978448
4.904567748035218,0.0001751825384469119
4.913009344847672,-0.006186417378774865
4.921450941660125,-0.008289306669894393
4.929892538472577,0.009835275028762675
4.9383341352850305,0.05951751384517367
4.946775732097484,0.12520828644402004
4.955217328909936,0.16397999264401442
4.963658925722389,0.1479408502911933
4.972100522534843,0.09705471176278631
4.980542119347296,0.04843359085169907
4.988983716159749,0.01721869046431904
4.997425312972202,0.0011616217110668918
5.005866909784655,-0.004172274340790352
5.014308506597108,-0.004218087023581591
5.02275010340956,-0.00489217733557264
5.031191700222014,-0.009428229761519654
5.0396332970344675,-0.017612406425713392
5.04807489384692,-0.02548050610511792
5.056516490659373,-0.027612605079728632
5.064958087471826,-0.021903304707660665
5.073399684284279,-0.010354663379753605
5.081841281096732,0.004223025652650099
5.0902828779091855,0.021254630728979713
5.098724474721639,0.040061637688295834
5.107166071534092,0.0537724180258931
5.115607668346544,0.053933100194356855
5.124049265158997,0.04276752558755679
5.13249086197145,0.031004806848385365
5.140932458783904,0.02563262887545667
5.149374055596357,0.025950833125270724
5.15781565240881,0.02563945584641516
5.166257249221263,0.01469429098389457
5.174698846033715,-0.015062079244585783
5.1831404428461685,-0.061297847177594116
5.191582039658622,-0.1044514414257146
5.200023636471076,-0.11433997493826395
5.208465233283528,-0.0812638032582859
5.216906830095981,-0.033242975455687836
5.225348426908434,-0.003154212389489628
5.2337900237208865,0.0027029354105237782
5.24223162053334,-0.004290704152053876
5.250673217345793,-0.011824333010878737
5.259114814158247,-0.012388834983614068
5.267556410970699,-0.005181522221521056
5.275998007783152,0.004753809902311169
5.2844396045956055,0.011169536239680722
5.292881201408059,0.010824710288553963
5.301322798220511,0.004055389078800515
5.309764395032964,-0.006698557405224166
5.318205991845418,-0.01898878049553914
5.32664758865787,-0.029614930313634564
5.3350891854703235,-0.03264798717688764
5.343530782282777,-0.02475618372012965
5.35197237909523,-0.011842815705253057
5.360413975907682,-0.0032860809748530783
5.368855572720136,-0.0010754114011561047
5.377297169532589,-0.00045634947985218294
5.3857387663450424,0.0016669053426467218
5.394180363157495,0.0049313671075762325
5.402621959969948,0.009492555950962973
5.411063556782401,0.01545589664647056
5.419505153594853,0.019812444727081997
5.427946750407307,0.019499160256702994
5.4363883472197605,0.015929717946671147
5.444829944032214,0.012835491182451465
5.453271540844666,0.011715320718833555
5.461713137657119,0.011600052894913986
5.470154734469572,0.011387256344288174
5.478596331282025,0.010610564523115014
5.4870379280944785,0.008904290193388694
5.495479524906932,0.006464097604869588
5.503921121719385,0.00396257170299272
5.512362718531837,0.0006790581084084126
5.52080431534429,-0.0042297784472929666
5.529245912156743,-0.008133809806972843
5.537687508969197,-0.0066705723198653265
5.54612910578165,0.0004983672420068289
5.554570702594103,0.008638541516304351
5.563012299406556,0.01369926482885312
5.571453896219009,0.015914380276162668
5.5798954930314615,0.014525670611380086
5.588337089843915,0.004341560106596731
5.596778686656368,-0.015216880487470287
5.605220283468821,-0.03410769187251806
5.613661880281274,-0.04142351059555355
5.622103477093727,-0.03486144485765199
5.63054507390618,-0.020984224795575355
5.638986670718633,-0.010313764292036705
5.647428267531086,-0.006970833047833754
5.65586986434354,-0.005717247056574694
5.664311461155993,-0.0021394686729648118
5.672753057968445,0.0021876480834227864
5.6811946547808985,0.0037752934956088754
5.689636251593352,0.001870758629870777
5.698077848405804,-0.0003942515081548839
5.706519445218257,-0.0007018415253129571
5.714961042030711,-0.00031135513790449867
5.723402638843164,-0.0008100382469176327
5.7318442356556165,-0.0022509120656156426
5.74028583246807,-0.0024974372806092528
5.748727429280523,0.002077876748922362
5.757169026092976,0.011862945693097777
5.765610622905428,0.021645833267932065
5.774052219717882,0.025009027871935742
5.7824938165303355,0.02139760473097447
5.790935413342788,0.016475038321784107
5.799377010155241,0.014331401015044098
5.807818606967694,0.013793036387205339
5.816260203780147,0.012806326115682602
5.8247018005925995,0.012379621348612329
5.8331433974050535,0.014409989250636045
5.841584994217507,0.01747230887455944
5.85002659102996,0.017953321145204936
5.858468187842412,0.014863323327445256
5.866909784654865,0.010715503908869072
5.875351381467318,0.007083621746105482
5.883792978279771,0.002417347018223102
5.892234575092225,-0.004039815884634625
5.900676171904678,-0.010468686578634052
5.909117768717131,-0.015335435854479768
5.917559365529583,-0.017041724419361793
5.926000962342036,-0.012667907495524867
5.93444255915449,-0.001523496090356325
5.942884155966944,0.012100181776536986
5.951325752779396,0.020941049909700436
5.959767349591849,0.018873234680738964
5.968208946404302,0.005532171709888583
5.9766505432167545,-0.0123016091836492
5.985092140029208,-0.026308246365078516
5.993533736841661,-0.03351565425681053
6.001975333654115,-0.03670835460522896
6.010416930466567,-0.03949068633966829
6.01885852727902,-0.04202372669709568
6.027300124091473,-0.04136514869796748
6.035741720903926,-0.03625710584239016
6.044183317716379,-0.03044694384260707
6.052624914528832,-0.02908990499169335
6.061066511341286,-0.03389977830302618
6.069508108153738,-0.04245019900941508
6.0779497049661915,-0.048337510403781196
6.086391301778645,-0.04396133527875769
6.094832898591098,-0.02747917582269855
6.10327449540355,-0.005464657662778858
6.111716092216003,0.012585779393229777
6.120157689028457,0.020951433607320786
6.1285992858409095,0.01915769381841425
6.137040882653363,0.009828267028333379
6.145482479465816,-0.001998299976477558
6.153924076278269,-0.009791740760584018
6.162365673090721,-0.009340984672881431
6.170807269903174,-0.0008912166762917361
6.1792488667156285,0.01155216331250645
6.187690463528082,0.021313245000804584
6.196132060340534,0.02309729549156052
6.204573657152987,0.018196765470706762
6.21301525396544,0.012659415491003901
6.2214568507778925,0.009927706398772366
6.2298984475903465,0.00874616285465581
6.2383400444028,0.007804711814717044
6.246781641215253,0.006994574152189307
6.255223238027705,0.004317310498769902
6.263664834840158,-0.0016556494773622464
6.272106431652611,-0.007511914437369987
6.2805480284650645,-0.008476998797620294
6.288989625277518,-0.002687289864914687
6.297431222089971,0.008761743025726028
6.305872818902424,0.02129167068122051
6.314314415714876,0.028007810973830073
6.322756012527329,0.02573732347974334
6.331197609339783,0.019379123669399926
6.339639206152236,0.01610406711908832
6.348080802964689,0.017128553522023207
6.356522399777142,0.019188477354453455
6.364963996589595,0.020102384317126878
6.373405593402048,0.02086793560913899
6.381847190214501,0.02387186961329707
6.390288787026954,0.029621907827590575
6.398730383839407,0.03578656524801657
6.40717198065186,0.03700471765294171
6.415613577464313,0.027666417679391788
6.424055174276766,0.009574132779910541
6.43249677108922,-0.00854052839731999
6.440938367901672,-0.021451651141190475
6.449379964714125,-0.030267384387888677
6.457821561526578,-0.03634319115934297
6.466263158339032,-0.03880569121781602
6.4747047551514845,-0.036549040692616566
6.483146351963938,-0.02904115793021044
6.491587948776391,-0.01619231983124246
6.500029545588843,0.0004900189729560986
6.508471142401296,0.01768918307937452
6.51691273921375,0.030511845944341868
6.525354336026203,0.03291238290225694
6.533795932838656,0.02338724573090429
6.542237529651109,0.009508424374227619
6.550679126463562,0.002878822284524761
6.559120723276015,0.011711221957063912
6.567562320088467,0.03559221228517914
6.5760039169009215,0.06075511378850743
6.584445513713375,0.06552134493977159
6.592887110525827,0.042208957024325235
6.60132870733828,0.007785033323179653
6.609770304150733,-0.0171513505293321
6.618211900963186,-0.029237630906750803
6.626653497775639,-0.03752500560243982
6.635095094588093,-0.04978184603294742
6.643536691400546,-0.06582845876096989
6.651978288212999,-0.07756866800565204
6.660419885025451,-0.07657211512672574
6.668861481837904,-0.06274947902241097
6.6773030786503575,-0.04240252181559324
6.68574467546281,-0.021700742823286902
6.694186272275264,-0.005272069679866466
6.702627869087717,0.003086143450471119
6.71106946590017,0.0024430235995604424
6.719511062712622,-0.002969487090592436
6.727952659525076,-0.008097010574733872
6.736394256337529,-0.013564822287082721
6.744835853149982,-0.022565481623256795
6.753277449962435,-0.033398917116526275
6.761719046774888,-0.04007051687247994
6.770160643587341,-0.03756463836319276
6.778602240399794,-0.02466277458154997
6.787043837212247,-0.00527466628927626
6.7954854340247,0.012340980182457887
6.803927030837153,0.021468405898761343
6.812368627649606,0.022379452282857783
6.820810224462059,0.02045642398489401
6.829251821274513,0.02012010361801153
6.837693418086966,0.020186732330719968
6.846135014899418,0.015522091773380393
6.854576611711871,0.0034841755760849883
6.863018208524325,-0.013030295369492018
6.8714598053367775,-0.027196011536356993
6.879901402149231,-0.03256139406650641
6.888342998961684,-0.027445622439837315
6.896784595774137,-0.01507818097746309
6.905226192586589,-0.0009324443177649217
6.913667789399042,0.00946722993404067
6.922109386211496,0.012404443358701877
6.93055098302395,0.007742755451991641
6.938992579836402,-0.0014476185124859477
6.947434176648855,-0.011648804821721382
6.955875773461308,-0.02067021019118195
6.96431737027376,-0.027478477976546963
6.972758967086214,-0.03182629922030408
6.981200563898668,-0.03381277991633047
6.989642160711121,-0.032804605088790406
6.998083757523573,-0.027529842661347965
7.006525354336026,-0.01679673252820464
7.014966951148479,0.001967330177175905
7.023408547960932,0.031939940219732385
7.031850144773385,0.06987023388576168
7.040291741585839,0.10390848009658249
7.048733338398292,0.12569267318024607
7.057174935210744,0.13370832279644998
7.065616532023197,0.12069659326493205
7.0740581288356505,0.08402759448205846
7.082499725648104,0.04403224386606365
7.090941322460557,0.024141046212161052
7.09938291927301,0.02491598967046863
7.107824516085463,0.030252089958405417
7.116266112897915,0.027380087798482538
7.124707709710369,0.01702169489516773
7.133149306522822,0.007734985583940436
7.141590903335275,0.004269697695917
7.150032500147728,0.005119696658935
7.158474096960181,0.008319390747046665
7.166915693772634,0.013592750173466572
7.1753572905850875,0.019544326008804857
7.18379888739754,0.023424576012612656
7.192240484209993,0.024505121588896325
7.200682081022446,0.025433202504689043
7.209123677834899,0.029157128708739155
7.217565274647352,0.03386923034288633
7.226006871459806,0.03194849003584469
7.234448468272259,0.01747183695096677
7.242890065084711,-0.005524175889928427
7.251331661897164,-0.024718999243220685
7.259773258709617,-0.02882728024801101
7.268214855522071,-0.01547893883886899
7.276656452334524,0.007939419879654642
7.285098049146977,0.02971156283101094
7.29353964595943,0.040864895175635685
7.301981242771882,0.03907186539427494
7.310422839584335,0.02817385910334966
7.3188644363967885,0.015207515898875363
7.327306033209243,0.005281827419343956
7.335747630021695,-0.001398148874301585
7.344189226834148,-0.005816328344573734
7.352630823646601,-0.006688801038997506
7.361072420459054,-0.003652560566329787
7.369514017271507,-0.0005129284705632548
7.377955614083961,-0.0019576471226217373
7.386397210896414,-0.008511739087663594
7.394838807708866,-0.016562106751900667
7.403280404521319,-0.02243948857806617
7.411722001333772,-0.02549799478772307
7.4201635981462255,-0.0277765606622258
7.428605194958678,-0.031779755358581706
7.437046791771132,-0.03885700586661906
7.445488388583585,-0.04794890349366591
7.453929985396038,-0.054068465342195636
7.46237158220849,-0.05089371234030085
7.4708131790209436,-0.038092533779545384
7.479254775833397,-0.02231298556557287
7.487696372645849,-0.010934398171184537
7.496137969458303,-0.010413390998508158
7.504579566270756,-0.025396496590195185
7.513021163083209,-0.04984021852152264
7.521462759895662,-0.06466690073846783
7.529904356708115,-0.05688897263471623
7.538345953520568,-0.03526277514410324
7.546787550333021,-0.016679314180674098
7.555229147145474,-0.007564015103246798
7.563670743957927,-0.004819100743503135
7.5721123407703805,-0.004728069487866096
7.580553937582833,-0.0070041748918797985
7.588995534395286,-0.012517674588411645
7.597437131207739,-0.0185574131399228
7.605878728020192,-0.0199670333391752
7.614320324832645,-0.01541740212290484
7.622761921645099,-0.009109081812554114
7.631203518457552,-0.006444384888098386
7.639645115270005,-0.009334822430574504
7.648086712082457,-0.014828655009205261
7.65652830889491,-0.019372043097493918
7.664969905707364,-0.024896744803270497
7.673411502519817,-0.03798275211207038
7.68185309933227,-0.062688113284263
7.690294696144723,-0.09166701865336498
7.698736292957176,-0.10050912549743371
7.707177889769628,-0.06241904426612031
7.7156194865820815,0.019831954416217344
7.724061083394536,0.10467619235624584
7.732502680206989,0.14137635667045576
7.740944277019441,0.11078047158116795
7.749385873831894,0.037826873509034256
7.757827470644347,-0.03362182943674008
7.7662690674568,-0.06971750477079276
7.774710664269253,-0.06258457461899522
7.783152261081707,-0.03107580830802036
7.79159385789416,0.002003762754282763
7.800035454706612,0.02747383815213726
7.808477051519065,0.041532391600242524
7.816918648331518,0.041258713997149844
7.825360245143971,0.03133499197080019
7.833801841956424,0.020210782376398728
7.842243438768878,0.012622874060427943
7.850685035581331,0.009871978161148091
7.859126632393784,0.011087574025167015
7.867568229206237,0.015005995473069801
7.876009826018689,0.0225589184950685
7.884451422831142,0.03461929743392136
7.892893019643595,0.047854148819744924
7.901334616456049,0.05490242965115373
7.909776213268502,0.04864614133092136
7.9182178100809555,0.02938942218947052
7.926659406893409,0.006609911965181721
7.93510100370586,-0.010413911806285085
7.943542600518313,-0.019669305925080566
7.951984197330767,-0.02376314541581538
7.96042579414322,-0.02577688240565674
7.9688673909556735,-0.0263623162913949
7.977308987768127,-0.021937921261509844
7.98575058458058,-0.008116356232885287
7.994192181393033,0.012604325992118167
8.002633778205485,0.030065970702378545
8.011075375017938,0.036982036721575795
8.019516971830392,0.034967966508177316
8.027958568642845,0.02810130672546362
8.036400165455298,0.01681080643492203
8.044841762267751,-0.00015342801640330118
8.053283359080204,-0.01989888725099042
8.061724955892656,-0.03496764977741172
8.070166552705109,-0.04159391477447825
8.078608149517562,-0.04383933274458164
8.087049746330015,-0.04584063649068145
8.09549134314247,-0.04625673123563696
8.103932939954923,-0.04328579835397127
8.112374536767376,-0.037706253419183475
8.120816133579828,-0.02997053506189494
8.12925773039228,-0.020831690791818104
8.137699327204734,-0.012790627812471735
8.146140924017187,-0.006952876059842123
8.15458252082964,-0.0005756432719069627
8.163024117642093,0.01097914264682131
8.171465714454547,0.02803462582200635
8.179907311267,0.043675763326968736
8.188348908079451,0.052606046077147375
8.196790504891904,0.05702597637605454
8.205232101704357,0.05880627976159442
8.213673698516812,0.057167714568298736
8.222115295329266,0.05326176708923827
8.230556892141719,0.04662284611547527
8.238998488954172,0.034163108894999995
8.247440085766623,0.017280857096986593
8.255881682579076,0.002362271230595891
8.26432327939153,-0.006822894727881077
8.272764876203983,-0.012932010710887586
8.281206473016436,-0.019748491101062575
8.289648069828889,-0.02550987622794367
8.298089666641342,-0.024459095785361037
8.306531263453794,-0.014590738228866324
8.314972860266247,-0.002149456408296865
8.3234144570787,0.0037439115427336774
8.331856053891155,7.329280663748053e-05
8.340297650703608,-0.009387608225692068
8.348739247516061,-0.01903196444131491
8.357180844328514,-0.0236502794938432
8.365622441140967,-0.020088305769716965
8.374064037953419,-0.010468404105689538
8.382505634765872,-0.001158368085505145
8.390947231578325,0.0031302449389690934
8.399388828390778,0.002189507957745262
8.407830425203231,-0.0018132079863202235
8.416272022015685,-0.006079347274861998
8.424713618828138,-0.007417116958948826
8.43315521564059,-0.004439669690947043
8.441596812453044,-0.0009111140399860663
8.450038409265497,-0.002868520854511486
8.45848000607795,-0.010269434780906434
8.466921602890404,-0.016584041201817362
8.475363199702857,-0.017635909650519047
8.48380479651531,-0.015957700962538613
8.492246393327761,-0.01615970425172469
8.500687990140214,-0.018143947805749
8.509129586952668,-0.01586831399831562
8.51757118376512,-0.004776138716483485
8.526012780577574,0.010957356413988683
8.534454377390027,0.022356598947970284
8.54289597420248,0.02439384409835258
8.551337571014933,0.017650555006390494
8.559779167827386,0.0049513230857338875
8.56822076463984,-0.010104388496460474
8.576662361452293,-0.022723041474091446
8.585103958264746,-0.028580113209623552
8.593545555077199,-0.027164923588899145
8.601987151889652,-0.02144687195843908
8.610428748702105,-0.014555653347731144
8.618870345514557,-0.009000204254010264
8.62731194232701,-0.007717757228084155
8.635753539139463,-0.012881270326513287
8.644195135951916,-0.02351763804849636
8.65263673276437,-0.03676374729646392
8.661078329576823,-0.052447751272014675
8.669519926389276,-0.07313244490863849
8.677961523201729,-0.09495735228489142
8.686403120014182,-0.10317320135904234
8.694844716826635,-0.08733322912627717
8.703286313639088,-0.0547448320947673
8.711727910451541,-0.02062270816068722
8.720169507263995,0.004695115524774244
8.728611104076448,0.017185705952462667
8.7370527008889,0.019074388105903152
8.745494297701352,0.017381362497781255
8.753935894513805,0.01698708636749398
8.762377491326259,0.017710606495205002
8.770819088138712,0.019239252721565483
8.779260684951165,0.021296398110557117
8.78770228176362,0.02149608423090157
8.796143878576073,0.01982027840639955
8.804585475388524,0.019715594833456855
8.813027072200978,0.02317192573270116
8.82146866901343,0.02788438537854245
8.829910265825884,0.028370639087152982
8.838351862638337,0.0213217534811922
8.84679345945079,0.00939701282972489
8.855235056263243,-0.0028305225486238927
8.863676653075695,-0.012965757216195318
8.872118249888148,-0.01986456314272236
8.880559846700601,-0.022861679899672308
8.889001443513054,-0.020254979916619672
8.897443040325507,-0.008108319316536437
8.905884637137962,0.016065914472955422
8.914326233950415,0.0464174188784968
8.922767830762867,0.06609633312930682
8.93120942757532,0.06139149972595907
8.939651024387773,0.037536608110513084
8.948092621200226,0.00947276815601208
8.95653421801268,-0.012939078590176983
8.964975814825133,-0.024043606566832687
8.973417411637586,-0.0204233384941081
8.981859008450039,-0.00581934388165611
8.99030060526249,0.008322152799974704
8.998742202074943,0.012313557041880318
9.007183798887397,0.006641266571325844
9.015625395699852,-0.0006136261231438978
9.024066992512305,-0.0029494422668999514
9.032508589324758,-0.0011886059574846342
9.040950186137211,-0.0015072408178734423
9.049391782949662,-0.011033172506188325
9.057833379762116,-0.03626774115186289
9.066274976574569,-0.07940727395722827
9.074716573387022,-0.12529435398412586
9.083158170199475,-0.1368055109110691
9.091599767011928,-0.08547000950668712
9.100041363824381,0.014090798703230989
9.108482960636833,0.11214041783666759
9.116924557449286,0.16093189017690923
9.125366154261739,0.15074771315123
9.133807751074194,0.11019213130255735
9.142249347886647,0.06722968682925654
9.1506909446991,0.03209652441508277
9.159132541511553,0.010985674667282253
9.167574138324007,0.0064924134845487915
9.176015735136458,0.012752838939965995
9.184457331948911,0.024344721748367028
9.192898928761364,0.04256229929456399
9.201340525573817,0.06435170217571932
9.20978212238627,0.07315174956633196
9.218223719198724,0.056534425711574805
9.226665316011177,0.02464730775861597
9.235106912823628,-0.002798959274129974
9.243548509636083,-0.016278867501678878
9.251990106448536,-0.01691874945463014
9.26043170326099,-0.009402924233775485
9.268873300073443,0.0002961217208981453
9.277314896885896,0.006090917759479616
9.285756493698349,0.005615561326150462
9.2941980905108,0.000791974313032111
9.302639687323254,-0.005215570225510487
9.311081284135707,-0.008767311673568928
9.31952288094816,-0.006931154683278348
9.327964477760613,-0.0002930471925004516
9.336406074573066,0.006833245621390469
9.34484767138552,0.00948891105397048
9.353289268197972,0.006297436417698737
9.361730865010426,0.000299890070205347
9.370172461822879,-0.004818631592444504
9.378614058635332,-0.006712018141741052
9.387055655447785,-0.003620672497319366
9.395497252260238,0.003220942007654796
9.403938849072691,0.007841769507076702
9.412380445885145,0.00493195538036272
9.420822042697596,-0.0043980350557684695
9.429263639510049,-0.013644770539450329
9.437705236322502,-0.016167543272714312
9.446146833134955,-0.010513737435056689
9.454588429947409,-0.0013007839282883692
9.463030026759862,0.0055424021962767345
9.471471623572315,0.007571155870426768
9.479913220384768,0.007953273802340023
9.488354817197221,0.015004958846653458
9.496796414009674,0.03557258941033436
9.505238010822127,0.06286635873583316
9.51367960763458,0.07478082168812732
9.522121204447034,0.05659323353975864
9.530562801259487,0.020683875003440592
9.53900439807194,-0.009139761964759682
9.547445994884391,-0.02305717600778308
9.555887591696845,-0.025953838702586003
9.564329188509298,-0.0244363665320159
9.572770785321751,-0.021930966144106428
9.581212382134204,-0.020771954656878325
9.589653978946659,-0.02144062686213003
9.598095575759112,-0.022114845745122395
9.606537172571564,-0.022381555696166858
9.614978769384017,-0.02422075208446204
9.62342036619647,-0.028604330096605145
9.631861963008923,-0.03445509740407917
9.640303559821376,-0.040617118959499404
9.64874515663383,-0.04566000321548154
9.657186753446283,-0.04644290438656924
9.665628350258734,-0.039947804938919265
9.674069947071187,-0.026461759863138864
9.68251154388364,-0.009820053916751621
9.690953140696093,0.0046847989908433
9.699394737508547,0.013424249662442485
9.707836334321001,0.018803136797737076
9.716277931133455,0.028962396650156243
9.724719527945906,0.047953368961633
9.73316112475836,0.06773209544681037
9.741602721570812,0.07455590433708557
9.750044318383265,0.06242801028619102
9.758485915195719,0.03694904468162266
9.766927512008172,0.009111174334903842
9.775369108820625,-0.009886717807411828
9.783810705633078,-0.013681703058724097
9.79225230244553,-0.005861786955125001
9.800693899257983,0.00453868851844013
9.809135496070436,0.012377536546388212
9.817577092882889,0.017364837974260253
9.826018689695344,0.019326448794384592
9.834460286507797,0.018168606142211705
9.84290188332025,0.019412562390610753
9.851343480132702,0.034461540268706785
9.859785076945155,0.06929417536653278
9.868226673757608,0.1099878550221932
9.876668270570061,0.1252142596044626
9.885109867382514,0.0987361005471922
9.893551464194967,0.05169034453414871
9.90199306100742,0.016304315970155258
9.910434657819872,0.004688303106686843
9.918876254632325,0.009849988165663098
9.927317851444778,0.016302956335683527
9.935759448257233,0.005878322816315645
9.944201045069686,-0.03197889828953716
9.95264264188214,-0.08406042887868122
9.961084238694593,-0.11596454450422748
9.969525835507046,-0.10727817680706189
9.977967432319497,-0.07226441543418828
9.98640902913195,-0.03497101751035589
9.994850625944403,-0.005301548224652461
10.003292222756857,0.016299174558230173
10.01173381956931,0.028988943052413486
10.020175416381763,0.029860169984126255
10.028617013194216,0.015336962721353287
10.037058610006667,-0.018235865420312223
10.04550020681912,-0.07071857421725279
10.053941803631576,-0.1261645248194706
10.062383400444029,-0.14960806922566283
10.070824997256482,-0.11783957917305465
10.079266594068935,-0.04748755556550717
10.087708190881388,0.02519844451044962
10.09614978769384,0.07599422437132106
10.104591384506293,0.10176825310798396
10.113032981318746,0.11472077614733833
10.121474578131199,0.12222509540525131
10.129916174943652,0.11286297046726021
10.138357771756105,0.07792409957947673
10.146799368568558,0.03450887351908442
10.155240965381012,0.005777663925887133
10.163682562193465,-0.004706931771933062
10.172124159005918,-0.005448660138925163
10.180565755818371,-0.0041319199247244615
10.189007352630824,-0.006880251885370372
10.197448949443277,-0.014445911352337238
10.20589054625573,-0.020455076823292742
10.214332143068184,-0.020902160141035013
10.222773739880635,-0.018170355267866305
10.231215336693088,-0.014304408730374961
10.239656933505541,-0.00923834553805264
10.248098530317995,-0.003583938841358584
10.256540127130448,0.0021918528126465458
10.2649817239429,0.007519213536787611
10.273423320755354,0.010272390601300543
10.281864917567807,0.009447517216425668
10.29030651438026,0.007441736499579032
10.298748111192713,0.0066459306222927715
10.307189708005167,0.004955901446363212
10.31563130481762,-0.0021557303622322553
10.324072901630073,-0.015420753042989515
10.332514498442526,-0.0305767723572834
10.34095609525498,-0.043374321733254145
10.34939769206743,-0.053793243672867336
10.357839288879884,-0.06188344866642258
10.366280885692337,-0.06182349709543788
10.37472248250479,-0.0483070572072948
10.383164079317243,-0.025405090793548173
10.391605676129696,-0.0028676311987438094
10.400047272942151,0.01182211007026495
10.408488869754603,0.01584224448894537
10.416930466567056,0.010768310608660294
10.425372063379509,0.0028629762760969866
10.433813660191962,-0.0007483826516497503
10.442255257004415,0.0007239450743224034
10.450696853816869,0.0022547796752345295
10.459138450629322,0.00078045225168269
10.467580047441773,-0.001886580678270946
10.476021644254226,-0.0028429970007851513
10.48446324106668,-0.0012718095411342859
10.492904837879133,0.0009612010821834541
10.501346434691586,0.0007118128084153222
10.50978803150404,-0.003803780584883376
10.518229628316494,-0.012443449433069194
10.526671225128947,-0.023262482283492134
10.535112821941398,-0.03295950626813133
10.543554418753851,-0.03912730862680433
10.551996015566305,-0.040772689350250683
10.560437612378758,-0.03915492184117303
10.568879209191211,-0.03874641904237301
10.577320806003664,-0.042819125104821984
10.585762402816117,-0.04923127802061598
10.594203999628569,-0.0500757821278248
10.602645596441022,-0.03420516501589441
10.611087193253475,0.001968982559694999
10.619528790065928,0.04299383194286315
10.627970386878383,0.06296890084550655
10.636411983690836,0.049774208557479604
10.64485358050329,0.012465008168850796
10.65329517731574,-0.03329336628900098
10.661736774128194,-0.07302605517024277
10.670178370940647,-0.09348590069636144
10.6786199677531,-0.09197037327655744
10.687061564565553,-0.0795301579999938
10.695503161378006,-0.0665574202410774
10.70394475819046,-0.053489774624276225
10.712386355002913,-0.03611642129176425
10.720827951815364,-0.012124639560253208
10.729269548627817,0.014198630079012309
10.737711145440272,0.030541533280684294
10.746152742252725,0.02765799652889904
10.754594339065179,0.012249598942228043
10.763035935877632,0.00012023579787621887
10.771477532690085,-0.00039886629792221023
10.779919129502536,0.008135143088657723
10.78836072631499,0.019431275603590994
10.796802323127443,0.0278107387636502
10.805243919939896,0.028487716245866452
10.813685516752349,0.020014824297111752
10.822127113564802,0.007500199174452566
10.830568710377255,-0.0011107213161538334
10.839010307189707,-0.002526687326722006
10.84745190400216,0.0006644895946354494
10.855893500814615,0.004770042525796999
10.864335097627068,0.007737823124780692
10.872776694439521,0.008341037144385222
10.881218291251974,0.006410476357048385
10.889659888064427,0.002203574923288005
10.898101484876879,-0.005249892630615163
10.906543081689332,-0.014994510638974322
10.914984678501785,-0.021715720357859018
10.923426275314238,-0.020957212108067308
10.931867872126691,-0.014195957759340823
10.940309468939144,-0.006448100429517759
10.948751065751598,-0.001525929068219445
10.95719266256405,-0.0007727788366226915
10.965634259376504,-0.003620569463101172
10.974075856188957,-0.008872664292007684
10.98251745300141,-0.01543650765428419
10.990959049813863,-0.020059909312148044
10.999400646626317,-0.01783446037289492
11.00784224343877,-0.009446539778431517
11.016283840251223,-0.004326421871226336
11.024725437063674,-0.011904329457371009
11.033167033876127,-0.032292613768829685
11.04160863068858,-0.05471233326314213
11.050050227501034,-0.062449146059299035
11.058491824313487,-0.04794321003111497
11.06693342112594,-0.022578867867313966
11.075375017938393,-0.003688187070463576
11.083816614750846,0.0009682592435577258
11.0922582115633,-0.005225259576323037
11.100699808375753,-0.012955068617005898
11.109141405188206,-0.014321786468566673
11.117583002000659,-0.006817097889232445
11.126024598813112,0.006557650448554761
11.134466195625565,0.016867456176222623
11.142907792438018,0.016566144498318114
11.15134938925047,0.008130539229832437
11.159790986062923,-0.0012186645801014378
11.168232582875376,-0.005387787847621655
11.17667417968783,0.0005077209378240583
11.185115776500282,0.015459461583657068
11.193557373312736,0.031115128182514714
11.20199897012519,0.03986623827875672
11.210440566937642,0.04048200570249171
11.218882163750095,0.03552522520458523
11.227323760562548,0.028422191040816364
11.235765357375001,0.02302469506885533
11.244206954187455,0.020806920954282045
11.252648550999908,0.01875275223955322
11.26109014781236,0.013375903170793664
11.269531744624812,0.00400583477766073
11.277973341437265,-0.009961141052224624
11.286414938249719,-0.029377031577162586
11.294856535062172,-0.04895419214627605
11.303298131874625,-0.05609714201948334
11.31173972868708,-0.04375708420911355
11.320181325499533,-0.021129719991128282
11.328622922311986,-0.004262962670432795
11.337064519124437,-0.0001271403303342801
11.34550611593689,-0.0040128683832246
11.353947712749344,-0.00605628994511216
11.362389309561797,0.001885026345695498
11.37083090637425,0.019033330036122287
11.379272503186703,0.03687028052480031
11.387714099999156,0.04989516575880698
11.396155696811608,0.05665680428653679
11.404597293624061,0.054658986969706974
11.413038890436514,0.04523078194787739
11.421480487248967,0.03554744382262047
11.429922084061422,0.03042802319513372
11.438363680873875,0.02839044115591486
11.446805277686328,0.025305076347130816
11.45524687449878,0.01980989578666143
11.463688471311233,0.015298318016100562
11.472130068123686,0.01420391970189999
11.48057166493614,0.012516980792223749
11.489013261748592,0.00516974432550574
11.497454858561046,-0.005302510697283794
11.505896455373499,-0.011908174767693382
11.514338052185952,-0.01249280318287933
11.522779648998403,-0.00915940324992533
11.531221245810857,-0.002799241501187165
11.539662842623311,0.005315036796659931
11.548104439435765,0.01116770904103292
11.556546036248218,0.011127169761778475
11.564987633060671,0.0047356388479077105
11.573429229873124,-0.005588747966356722
11.581870826685575,-0.016882502552448025
11.590312423498029,-0.026862829514131683
11.598754020310482,-0.03221171312641594
11.607195617122935,-0.030035933405177517
11.615637213935388,-0.022327422668543113
11.624078810747841,-0.013636465526140465
11.632520407560294,-0.004484198846654065
11.640962004372746,0.0070836779994782224
11.649403601185199,0.01917580119123007
11.657845197997654,0.02680672279514666
11.666286794810107,0.026772282794738193
11.67472839162256,0.01880671977622099
11.683169988435013,0.0056322315389429
11.691611585247466,-0.006820155499384575
11.70005318205992,-0.01335872820816118
11.708494778872371,-0.013588735638929351
11.716936375684824,-0.010896442458731595
11.725377972497277,-0.009541862545401994
11.73381956930973,-0.011561919147942799
11.742261166122184,-0.013689786446031551
11.750702762934637,-0.007386450896154314
11.75914435974709,0.016268881926795296
11.767585956559541,0.05768381695692293
11.776027553371996,0.09955081118965121
11.78446915018445,0.11371576876418214
11.792910746996903,0.09073524025699269
11.801352343809356,0.05173776700334466
11.809793940621809,0.020629521741176517
11.818235537434262,0.0022560290215277203
11.826677134246713,-0.008671112794039653
11.835118731059167,-0.014644103035195371
11.84356032787162,-0.014519479185786246
11.852001924684073,-0.0080430462136041
11.860443521496526,0.0008576387524543735
11.86888511830898,0.005906759278210176
11.877326715121432,0.0050280310004982435
11.885768311933887,0.001508637081817326
11.894209908746339,-0.0020180691515566842
11.902651505558792,-0.0047774924903897665
11.911093102371245,-0.005032354962160672
11.919534699183698,-0.0029463502153207616
11.927976295996151,-0.0028189173513570773
11.936417892808604,-0.006960256217313295
11.944859489621058,-0.010444408691025106
11.953301086433509,-0.0065802801000033615
11.961742683245962,0.004920014544831699
11.970184280058415,0.022142758647649054
11.978625876870868,0.048859932509896314
11.987067473683322,0.08675504815197958
11.995509070495775,0.1210835975535472
12.00395066730823,0.12520728708624468
12.012392264120681,0.08858053492722882
12.020833860933134,0.032696215769410814
12.029275457745587,-0.010713882770091672
12.03771705455804,-0.025940328274559107
12.046158651370494,-0.01621100458973023
12.054600248182947,0.004256025613339987
12.0630418449954,0.01969426790923243
12.071483441807851,0.022487031528324628
12.079925038620305,0.015771003269310916
12.088366635432758,0.006328875422006411
12.09680823224521,-0.0014657365717196521
12.105249829057664,-0.0048278085069585735
12.113691425870117,-0.0020163249471743167
12.122133022682572,0.004665191699469504
12.130574619495025,0.009064439787867216
12.139016216307477,0.007449773903946387
12.14745781311993,0.0019565114632690748
12.155899409932383,-0.004029761049261405
12.164341006744836,-0.012345667467194552
12.17278260355729,-0.029457238234502123
12.181224200369742,-0.058189639466282625
12.189665797182196,-0.09224306058730286
12.198107393994647,-0.11963844116319639
12.2065489908071,-0.13013592026664333
12.214990587619553,-0.11789184381434258
12.223432184432006,-0.08175353989865188
12.231873781244461,-0.030274152619864797
12.240315378056914,0.017633668280827915
12.248756974869368,0.04289298672246618
12.257198571681819,0.04035056308829903
12.265640168494272,0.02295998066717585
12.274081765306725,0.007285521165298332
12.282523362119179,-0.0036128344394090075
12.290964958931632,-0.01798898585975158
12.299406555744085,-0.03693635010608058
12.307848152556538,-0.048910065195839805
12.316289749368991,-0.0460775698003063
12.324731346181443,-0.032381044067094134
12.333172942993896,-0.015439185629616447
12.341614539806349,-5.741146299297452e-05
12.350056136618804,0.012640780173636665
12.358497733431257,0.022239043070863815
12.36693933024371,0.02738267771764957
12.375380927056163,0.029209851314836083
12.383822523868615,0.03205860308661647
12.392264120681068,0.03764365278048814
12.400705717493521,0.04066585886814732
12.409147314305974,0.03454019701204495
12.417588911118427,0.020098035752036125
12.42603050793088,0.002801618489471776
12.434472104743334,-0.014857965203109074
12.442913701555785,-0.03310166828259052
12.451355298368238,-0.051783348053680615
12.459796895180693,-0.06755546468623576
12.468238491993146,-0.07207236050303183
12.4766800888056,-0.06056893636017861
12.485121685618052,-0.04026715393480826
12.493563282430506,-0.022679076248991903
12.502004879242959,-0.013743578863358667
12.51044647605541,-0.0141122634912783
12.518888072867863,-0.02349361714183416
12.527329669680316,-0.044119287171440015
12.53577126649277,-0.07822867238044261
12.544212863305223,-0.11574879078641374
12.552654460117676,-0.13134452869001184
12.561096056930129,-0.10996883939533876
12.56953765374258,-0.0666869888747719
12.577979250555035,-0.02807133035661463
12.586420847367489,-0.007547720582786756
12.594862444179942,-0.0034487497210624572
12.603304040992395,-0.00720367975642749
12.611745637804848,-0.010403824395244184
12.620187234617301,-0.00934062323227868
12.628628831429753,-0.0038369558608168496
12.637070428242206,0.0081749464026269
12.645512025054659,0.031375720139091956
12.653953621867112,0.0644903592138032
12.662395218679565,0.0948944249713823
12.670836815492018,0.11012826320971102
12.679278412304472,0.10774248394880385
12.687720009116925,0.08880305334331588
12.696161605929378,0.058223113659837504
12.704603202741831,0.029029885994473675
12.713044799554284,0.010097583047466167
12.721486396366737,-0.0009011803982924629
12.72992799317919,-0.007424985687458152
12.738369589991644,-0.01015531896926703
12.746811186804097,-0.011180443384216799
12.755252783616548,-0.012310412678757605
12.763694380429001,-0.013386498691116511
12.772135977241454,-0.014991123885773588
12.780577574053908,-0.0186263045983773
12.78901917086636,-0.02643366381270398
12.797460767678814,-0.041477025735091023
12.805902364491269,-0.06211128323008048
12.81434396130372,-0.07770071889216933
12.822785558116173,-0.07810616831280848
12.831227154928627,-0.06357019595547546
12.83966875174108,-0.040926167839648676
12.848110348553533,-0.018424741560421024
12.856551945365986,-0.0039650433982274785
12.86499354217844,-0.0009943186715919911
12.873435138990892,-0.006142167201322822
12.881876735803344,-0.011306878010245172
12.890318332615797,-0.00987843794193606
12.89875992942825,-0.004142963056548028
12.907201526240703,-0.005656613723620574
12.915643123053156,-0.025571679351984886
12.924084719865611,-0.061258350920798045
12.932526316678064,-0.09023336656276286
12.940967913490516,-0.07878277539769561
12.949409510302969,-0.002972108845686162
12.957851107115422,0.12901715925463914
12.966292703927875,0.2722456715771723
12.974734300740328,0.3650377543571526
12.983175897552782,0.36163249182712587
12.991617494365235,0.2691418289369179
13.000059091177686,0.1487382083554878
13.00850068799014,0.057332529788876374
13.016942284802592,0.007886409093861915
13.025383881615046,-0.01235521388594245
13.0338254784275,-0.01833287859592036
13.042267075239954,-0.01878713219285858
13.050708672052407,-0.015416395677723698
13.059150268864858,-0.008121967840815002
13.067591865677311,5.212814087361727e-05
13.076033462489765,0.003455475181331411
13.084475059302218,-0.0006010484494298309
13.09291665611467,-0.008989996533341808
13.101358252927124,-0.01696517602680945
13.109799849739577,-0.022545966910922824
13.11824144655203,-0.025241452684708333
13.126683043364482,-0.022630904809191003
13.135124640176935,-0.0129737835567292
13.143566236989388,-0.0006410415583771424
13.152007833801843,0.007725280933873254
13.160449430614296,0.0120361317418416
13.16889102742675,0.018486954507573462
13.177332624239202,0.029909356121472327
13.185774221051654,0.0396434129429461
13.194215817864107,0.03917428480748461
13.20265741467656,0.02852651190522333
13.211099011489013,0.014533648152084216
13.219540608301466,0.004899039631876691
13.22798220511392,0.0042135865859385425
13.236423801926373,0.010143015616485545
13.244865398738824,0.0167293585929156
13.253306995551277,0.020990180453675088
13.26174859236373,0.022965334026362336
13.270190189176185,0.023590878311060583
13.278631785988638,0.02368807286334482
13.287073382801092,0.022363945857859894
13.295514979613545,0.017256140544652094
13.303956576425998,0.0077181326500195
13.31239817323845,-0.0036171881104141296
13.320839770050902,-0.01299818189556493
13.329281366863356,-0.016467355629473053
13.337722963675809,-0.010460173197525393
13.346164560488262,0.004054159891727217
13.354606157300715,0.019378753540349063
13.363047754113168,0.025748707387473233
13.37148935092562,0.02091143646467476
13.379930947738075,0.012838157104996728
13.388372544550528,0.008325595940243971
13.39681414136298,0.0060051157320857446
13.405255738175434,0.003361133157259636
13.413697334987887,0.0011645546779448914
13.42213893180034,0.0005007012303160829
13.430580528612792,0.001104527082669173
13.439022125425245,0.0025554316667466617
13.447463722237698,0.004590750599136672
13.455905319050151,0.005451266166157936
13.464346915862604,0.003125476989637042
13.472788512675058,-9.576417854646952e-05
13.48123010948751,0.0008538318622431957
13.489671706299964,0.006040994275886865
13.498113303112417,0.009397005261513578
13.50655489992487,0.006848286440965169
13.514996496737323,0.0007584087766863237
13.523438093549776,-0.005460305842312007
13.53187969036223,-0.012711419405979146
13.540321287174683,-0.023718716750061555
13.548762883987136,-0.03648103583995974
13.557204480799587,-0.04604222516520109
13.56564607761204,-0.056527403290396176
13.574087674424494,-0.07642172456609114
13.582529271236947,-0.0973794210826671
13.5909708680494,-0.09983263716824628
13.599412464861853,-0.07837499599786427
13.607854061674306,-0.046004166349551304
13.61629565848676,-0.019954901335553415
13.624737255299213,-0.009016108158967622
13.633178852111666,-0.010629547123534668
13.641620448924119,-0.0164322457618479
13.650062045736572,-0.018791724096052963
13.658503642549025,-0.014619781043609423
13.666945239361478,-0.0051172387154860745
13.675386836173931,0.0060167926172543205
13.683828432986383,0.012799826368980199
13.692270029798836,0.011027172296113509
13.70071162661129,0.00447397128081298
13.709153223423742,0.001185373712198391
13.717594820236195,0.0043573453580842475
13.72603641704865,0.010982233868996763
13.734478013861104,0.016490006417148657
13.742919610673555,0.018747760528466384
13.751361207486008,0.018745916317955746
13.759802804298461,0.019076157590595225
13.768244401110914,0.022149719066365117
13.776685997923368,0.02714267332893526
13.78512759473582,0.029388859138889716
13.793569191548274,0.025082339286343583
13.802010788360725,0.014933558933943072
13.810452385173178,0.0030906738065253165
13.818893981985632,-0.005148602088899511
13.827335578798085,-0.005610145202408404
13.835777175610538,0.0012718813154874876
13.844218772422993,0.009249654391996662
13.852660369235446,0.011370594475725901
13.8611019660479,0.00677966379208484
13.86954356286035,0.0001204350100339445
13.877985159672804,-0.0043795953452702785
13.886426756485257,-0.004705677055249278
13.89486835329771,-0.0004254730772673041
13.903309950110163,0.0062169259139874585
13.911751546922616,0.011521432775492488
13.92019314373507,0.01369934747065851
13.92863474054752,0.013548681832320957
13.937076337359974,0.013008240217217693
13.945517934172427,0.013205914043705936
13.953959530984882,0.012484691023678173
13.962401127797335,0.008382629787485989
13.970842724609788,0.001777644052503867
13.979284321422242,-0.0035394368275784207
13.987725918234693,-0.004150841938937881
13.996167515047146,-0.00034491119477827775
14.0046091118596,0.00230239931596388
14.013050708672052,-0.0016501878707031834
14.021492305484506,-0.010852193793691664
14.029933902296959,-0.019349940608384873
14.038375499109412,-0.023288155337931188
14.046817095921863,-0.024608006337218425
14.055258692734316,-0.028062750675140104
14.06370028954677,-0.03348111258700827
14.072141886359224,-0.0354988148363002
14.080583483171678,-0.03168622363865225
14.08902507998413,-0.02503705416749796
14.097466676796584,-0.019613160385683046
14.105908273609037,-0.017489309525011067
14.114349870421488,-0.017275562079405633
14.122791467233942,-0.014915369473763082
14.131233064046395,-0.009100623985611988
14.139674660858848,-0.0037225698268928634
14.148116257671301,-0.002546980962429128
14.156557854483754,-0.0068894460735888854
14.164999451296207,-0.020045821642067613
14.173441048108659,-0.04536993661602796
14.181882644921114,-0.07515352403867319
14.190324241733567,-0.08989020103356286
14.19876583854602,-0.07841062609921276
14.207207435358473,-0.05032478671670832
14.215649032170926,-0.020561554203333998
14.22409062898338,0.004876302906513475
14.23253222579583,0.024407110814951564
14.240973822608284,0.03545067331434311
14.249415419420737,0.03566351223577762
14.25785701623319,0.025680266136975667
14.266298613045644,0.01087411332115081
14.274740209858097,-0.0009447007804386544
14.28318180667055,-0.005174716103733689
14.291623403483003,-0.0025493999210193592
14.300065000295456,0.0032502158022896734
14.30850659710791,0.0074618020004933215
14.316948193920362,0.006244999769142991
14.325389790732816,0.0010758264810551083
14.333831387545269,-0.0006944733571098401
14.342272984357722,0.00658179371277665
14.350714581170175,0.020261385329342838
14.359156177982626,0.03260960918684506
14.36759777479508,0.03776341233302366
14.376039371607533,0.033647763436890826
14.384480968419986,0.02276139802398871
14.392922565232439,0.013674457689808335
14.401364162044892,0.01590555043918428
14.409805758857345,0.030260582188223938
14.418247355669799,0.04575899860654519
14.426688952482252,0.0495100621405104
14.435130549294705,0.038573419018966555
14.443572146107158,0.019578873352259534
14.452013742919611,0.0025459765224733408
14.460455339732064,-0.004389894978497386
14.468896936544517,0.00020432213440405077
14.47733853335697,0.011637324811842525
14.485780130169422,0.023140241562628516
14.494221726981875,0.028387183754561375
14.502663323794328,0.0246588061681824
14.511104920606781,0.014924736255706395
14.519546517419235,0.004716375006491395
14.52798811423169,-0.0019159192774922604
14.536429711044143,-0.003110845628402034
14.544871307856594,-4.2269234085068764e-05
14.553312904669047,0.0015396083283387434
14.5617545014815,-0.005317174432603222
14.570196098293954,-0.023675370690141265
14.578637695106407,-0.05612857324576571
14.58707929191886,-0.10630639101769959
14.595520888731313,-0.16124964836941907
14.603962485543764,-0.18328146078825952
14.612404082356218,-0.1472148230163722
14.62084567916867,-0.07387582834694635
14.629287275981124,-0.004307562434540248
14.637728872793577,0.03815530408900933
14.646170469606032,0.050137370629560155
14.654612066418485,0.03732332297604506
14.663053663230938,0.010375222619943513
14.67149526004339,-0.01758438532903025
14.679936856855843,-0.036109518550192565
14.688378453668296,-0.042243159490635486
14.69682005048075,-0.03945427086505381
14.705261647293202,-0.031024952499093917
14.713703244105655,-0.017597509118565315
14.722144840918109,-0.0009029005532973223
14.73058643773056,0.015432706301566988
14.739028034543013,0.028145432724377244
14.747469631355466,0.03507200300421467
14.755911228167921,0.0351443662353872
14.764352824980374,0.028543272808014813
14.772794421792828,0.017809749628911468
14.78123601860528,0.008371197198072954
14.789677615417732,0.004532075081299157
14.798119212230185,0.004427022724944595
14.806560809042638,0.003287416847044266
14.815002405855092,0.0010185967694555194
14.823444002667545,0.000733994998659573
14.831885599479998,0.0022069688196440307
14.840327196292451,0.0028370963206116534
14.848768793104904,0.0020394247792120527
14.857210389917356,-4.7134343890866195e-05
14.865651986729809,-0.0038376462130674987
14.874093583542264,-0.007356679256367473
14.882535180354717,-0.006744516250535214
14.89097677716717,-0.00011908313625306634
14.899418373979623,0.010893876123379557
14.907859970792076,0.022360661677497895
14.916301567604528,0.030762413147828137
14.92474316441698,0.0334528989115809
14.933184761229434,0.028199153447105496
14.941626358041887,0.01578159514661858
14.95006795485434,0.000795166425144891
14.958509551666793,-0.011455090316114955
14.966951148479247,-0.018353012366442035
14.975392745291698,-0.02066725971500993
14.983834342104153,-0.01830531764269014
14.992275938916606,-0.007806411313768938
15.00071753572906,0.011836059412821138
15.009159132541512,0.033350737095553175
15.017600729353966,0.045501467990493004
15.026042326166419,0.04512297124774564
15.034483922978872,0.04034470810888015
15.042925519791323,0.038403581875048456
15.051367116603776,0.03748776484098535
15.05980871341623,0.03272471206393491
15.068250310228683,0.02371261984535065
15.076691907041136,0.013839439818275867
15.085133503853589,0.0052755328848925215
15.093575100666042,-0.0010310245682622974
15.102016697478495,-0.0016531362076596472
15.110458294290948,0.00789259076082167
15.118899891103402,0.026325921917433253
15.127341487915855,0.041364673864790126
15.135783084728308,0.03307152521020045
15.144224681540761,-0.015078357416403712
15.152666278353214,-0.10495037080734163
15.161107875165666,-0.20755629057811006
15.169549471978119,-0.2614568253388258
15.177991068790572,-0.22698668777784092
15.186432665603025,-0.1331047915313847
15.194874262415478,-0.03784479815082531
15.203315859227931,0.027055879340853115
15.211757456040385,0.061255443113574067
15.220199052852838,0.07907429916757516
15.22864064966529,0.09035071479521166
15.237082246477744,0.08849109419034157
15.245523843290197,0.06280912023251184
15.25396544010265,0.021330469786321554
15.262407036915103,-0.010439665530506828
15.270848633727557,-0.015843516607687676
15.27929023054001,-0.0021682612073814877
15.287731827352461,0.013701177831506182
15.296173424164914,0.023605737134675703
15.304615020977367,0.0275221445521872
15.31305661778982,0.025877446162507783
15.321498214602274,0.018965463856344893
15.329939811414729,0.00950154026895829
15.338381408227182,0.0032033323488008833
15.346823005039633,0.006903618179224294
15.355264601852086,0.023481187800652017
15.36370619866454,0.04522120945773109
15.372147795476993,0.05438677901365281
15.380589392289446,0.03997297455920723
15.389030989101899,0.01205637169969231
15.397472585914352,-0.009786347103343262
15.405914182726804,-0.014728770224880665
15.414355779539257,-0.0026834632959198673
15.42279737635171,0.020069250525474737
15.431238973164163,0.041787047270696986
15.439680569976616,0.04981231444778238
15.448122166789071,0.040903392275280864
15.456563763601524,0.024210329774487286
15.465005360413977,0.011178999433981892
15.473446957226429,0.005743242382695635
15.481888554038882,0.005952891683563598
15.490330150851335,0.010254563697128648
15.498771747663788,0.018168363554432236
15.507213344476241,0.02740752301981414
15.515654941288695,0.03350209476794396
15.524096538101148,0.032582989251405736
15.5325381349136,0.024533314468055525
15.540979731726052,0.012581509694222127
15.549421328538505,0.0002773374981368806
15.557862925350959,-0.009202424937962307
15.566304522163414,-0.013111876619047459
15.574746118975867,-0.01025970047944816
15.58318771578832,-0.000903398952099698
15.591629312600771,0.013274997176009783
15.600070909413224,0.02881909361929211
15.608512506225678,0.04056527372925789
15.61695410303813,0.04354949706732348
15.625395699850584,0.03762536043456399
15.633837296663035,0.02818980695956934
15.64227889347549,0.02092182678477877
15.650720490287942,0.017910726533281504
15.659162087100396,0.01813778371567775
15.667603683912848,0.02013548741039321
15.676045280725305,0.022625656651802405
15.684486877537756,0.022008515778397197
15.692928474350207,0.013394701843430135
15.701370071162662,-0.004373752320767019
15.709811667975114,-0.025271234336391068
15.718253264787569,-0.03776332510044963
15.72669486160002,-0.0348674200298081
15.735136458412475,-0.0206356635893258
15.743578055224926,-0.0024859935428102106
15.752019652037378,0.014187200064424558
15.760461248849833,0.02137421483666148
15.768902845662284,0.0070694883557360436
15.777344442474739,-0.03955054287375852
15.78578603928719,-0.11902448201933127
15.794227636099647,-0.20484445753556565
15.802669232912098,-0.24321579053007705
15.81111082972455,-0.20327516148609126
15.819552426537005,-0.11714333108250477
15.827994023349456,-0.03950414774278259
15.836435620161911,0.005378889095927975
15.844877216974362,0.021942640222461895
15.853318813786817,0.02185980124015067
15.861760410599269,0.014472745720918608
15.87020200741172,0.00515809240179228
15.878643604224175,-0.0034227849151420935
15.887085201036626,-0.01053770661224067
15.895526797849081,-0.017192991506630634
15.903968394661534,-0.02334960044511464
15.91240999147399,-0.02560120343551977
15.92085158828644,-0.020653716860008116
15.929293185098896,-0.010796857937078895
15.937734781911347,-0.0022733853339235452
15.946176378723798,0.0016249782039424831
15.954617975536253,0.0013500862166342872
15.963059572348705,-0.0030548363734766177
15.97150116916116,-0.011114355902170364
15.979942765973611,-0.019471218658544228
15.988384362786066,-0.024956889920019563
15.996825959598517,-0.027489757373742284
16.00526755641097,-0.02786166517995061
16.013709153223424,-0.02574205687205527
16.022150750035877,-0.020447056400757797
16.03059234684833,-0.010082538419293813
16.039033943660783,0.011219829091489284
16.047475540473236,0.051353185726888476
16.05591713728569,0.11084372647757745
16.06435873409814,0.16948326292639843
16.072800330910596,0.18796445558070504
16.08124192772305,0.14471871227153257
16.089683524535502,0.06207251140993228
16.098125121347955,-0.02446410270180475
16.10656671816041,-0.09846328695299406
16.11500831497286,-0.15011360706676188
16.12344991178531,-0.1609710887098578
16.131891508597768,-0.12544396808323596
16.140333105410217,-0.06981470382973935
16.148774702222674,-0.024490525547170686
16.157216299035124,0.005490085036597722
16.16565789584758,0.02832926001898158
16.17409949266003,0.044112330555596116
16.182541089472483,0.047023132724352275
16.19098268628494,0.03714042752648439
16.19942428309739,0.020329196149720286
16.207865879909846,0.00291392673821529
16.216307476722296,-0.010093035574829701
16.224749073534753,-0.016960097040452177
16.233190670347202,-0.019439099875008813
16.241632267159655,-0.019115629701474384
16.25007386397211,-0.015236852144291529
16.25851546078456,-0.007066302518383354
16.266957057597015,0.0026779794734575956
16.275398654409468,0.00900035678482788
16.28384025122192,0.009673479958120316
16.292281848034374,0.006271329031119404
16.300723444846824,0.0002760677116098189
16.30916504165928,-0.009093405142823969
16.317606638471734,-0.021451522525175543
16.326048235284187,-0.03110508297286325
16.33448983209664,-0.032091345333091735
16.342931428909093,-0.025593254580916006
16.351373025721546,-0.01731095507043224
16.359814622534,-0.012454675736818957
16.368256219346453,-0.013575388400399686
16.376697816158902,-0.018441736933317632
16.38513941297136,-0.022959635918440267
16.39358100978381,-0.026554726577097683
16.402022606596265,-0.030098755301680494
16.410464203408715,-0.02951651383959676
16.41890580022117,-0.0173830783956908
16.427347397033625,0.007384146612127338
16.435788993846074,0.0337444920885108
16.44423059065853,0.04518520159118255
16.45267218747098,0.03617604067708975
16.461113784283437,0.017832993590021454
16.469555381095887,0.003397848071116723
16.477996977908344,-0.003335721082331245
16.486438574720793,-0.004612946655941307
16.494880171533246,-0.0026276473985390758
16.5033217683457,0.0023136367174030298
16.511763365158153,0.010600299274688781
16.520204961970606,0.01992815926023798
16.52864655878306,0.024754946470492603
16.537088155595512,0.022063258120547716
16.545529752407965,0.014017181833128
16.55397134922042,0.00414729004756662
16.56241294603287,-0.004585937578388976
16.570854542845325,-0.010033805990451065
16.579296139657778,-0.011758129463347202
16.58773773647023,-0.010494595272072357
16.596179333282684,-0.007289154230574307
16.604620930095138,-0.0034048341356359563
16.613062526907587,0.0009873271838309208
16.621504123720044,0.007946829214710049
16.629945720532493,0.017785264758843327
16.63838731734495,0.024863915825016642
16.6468289141574,0.021995641322503638
16.655270510969856,0.008758982464725243
16.66371210778231,-0.006450099203853159
16.67215370459476,-0.013344935968311697
16.680595301407216,-0.009096114424636485
16.689036898219666,0.00023047272020972585
16.697478495032122,0.007306242639876026
16.705920091844572,0.008990188960108968
16.71436168865703,0.0053380702289122645
16.722803285469478,-0.000753943289899953
16.731244882281935,-0.004776920432728079
16.739686479094384,-0.004778654861478709
16.748128075906838,-0.0021912775929041257
16.75656967271929,0.0004770245697256312
16.765011269531744,0.0011503701736577808
16.7734528663442,-0.0008445147267525859
16.78189446315665,-0.004125355651018112
16.790336059969107,-0.006381403295884272
16.798777656781557,-0.006778068777440074
16.80721925359401,-0.006044451900301011
16.815660850406463,-0.0033879469234451747
16.824102447218916,0.004547356808871708
16.83254404403137,0.019323754428853198
16.840985640843822,0.034617833525435536
16.849427237656275,0.03758201384770055
16.85786883446873,0.023091810682231047
16.86631043128118,0.0028702601575206514
16.874752028093635,-0.006477426352547704
16.883193624906088,0.003337013628621449
16.89163522171854,0.03205606308903741
16.900076818530994,0.07156360807672302
16.908518415343448,0.10820516297563267
16.9169600121559,0.13464066147106546
16.92540160896835,0.15142018485104441
16.933843205780807,0.1530609107556671
16.942284802593257,0.13427013948880176
16.950726399405713,0.10360781073804201
16.959167996218163,0.0694122194559878
16.96760959303062,0.0326976482955562
16.97605118984307,-5.1131765038761774e-05
16.984492786655522,-0.019798996599514805
16.992934383467976,-0.025701747916405733
17.00137598028043,-0.023795879299606575
17.009817577092885,-0.020625041208956817
17.018259173905335,-0.01959412284136072
17.02670077071779,-0.02141522036664237
17.03514236753024,-0.024749829240664403
17.043583964342695,-0.026584722485788526
17.052025561155148,-0.025163975566193757
17.0604671579676,-0.02203898397764386
17.068908754780054,-0.01950225362647913
17.077350351592507,-0.014602260523593188
17.08579194840496,0.004946356078307585
17.094233545217413,0.0551602411013728
17.102675142029867,0.13878866169323006
17.11111673884232,0.22526346736490072
17.119558335654773,0.2576101580827025
17.127999932467226,0.20868658222681477
17.13644152927968,0.11644796060907034
17.144883126092132,0.037063368954819216
17.153324722904586,-0.005551409129393858
17.16176631971704,-0.016841175577881482
17.170207916529492,-0.015592960186652006
17.17864951334194,-0.021224693583260644
17.187091110154398,-0.03826135126077715
17.195532706966848,-0.05478006455264403
17.203974303779304,-0.062394080425879045
17.212415900591754,-0.06805914672337178
17.22085749740421,-0.07846550790593146
17.229299094216664,-0.08649032767816182
17.237740691029114,-0.08167834906983612
17.24618228784157,-0.06454250801355883
17.25462388465402,-0.04487816491024348
17.263065481466477,-0.03139818263115504
17.271507078278926,-0.026636500746144636
17.279948675091383,-0.028742698313906998
17.288390271903832,-0.03471201439508767
17.296831868716286,-0.041838566889613536
17.30527346552874,-0.04669386546774014
17.313715062341192,-0.044990035137345105
17.322156659153645,-0.03615338867946115
17.3305982559661,-0.02455365414949095
17.33903985277855,-0.013767697596166906
17.347481449591005,-0.0057414311387037125
17.355923046403458,-0.003969760941808064
17.36436464321591,-0.010402552011147438
17.372806240028364,-0.021717805570364363
17.381247836840817,-0.03259129711679012
17.38968943365327,-0.03784228071227249
17.398131030465724,-0.03197029938496928
17.406572627278177,-0.015446773307909634
17.415014224090626,0.0025936416046602948
17.423455820903083,0.012845245272145808
17.431897417715533,0.010586859913675646
17.44033901452799,-0.005767565646416505
17.44878061134044,-0.03486463002293975
17.457222208152896,-0.07221659298924933
17.46566380496535,-0.10708092590622681
17.4741054017778,-0.12184531089348152
17.482546998590255,-0.10799996066780655
17.490988595402705,-0.07789825078837646
17.49943019221516,-0.04919551736492916
17.50787178902761,-0.028786269230153136
17.516313385840068,-0.015863302941251198
17.524754982652517,-0.009020669508533256
17.533196579464974,-0.007636108414715671
17.541638176277424,-0.010123654509741448
17.550079773089877,-0.01370342255049371
17.55852136990233,-0.016802477958748802
17.566962966714783,-0.01911402124554075
17.57540456352724,-0.01798674477721947
17.58384616033969,-0.009290169224765778
17.592287757152146,0.005969219902921838
17.600729353964596,0.019897007861832263
17.60917095077705,0.023664773018043365
17.617612547589502,0.015047602837004789
17.626054144401955,0.002191377590389677
17.63449574121441,-0.0027343503637057634
17.64293733802686,0.0029710392151510823
17.651378934839315,0.009210041077867239
17.659820531651768,0.005954094901043886
17.668262128464217,-0.004916402168145713
17.676703725276674,-0.012636825264946307
17.685145322089127,-0.008364553222622128
17.69358691890158,0.008710085401109412
17.702028515714034,0.03374668103990318
17.710470112526487,0.06224223604356366
17.71891170933894,0.08749714146674174
17.72735330615139,0.09484559261531028
17.735794902963846,0.07582646028138952
17.744236499776296,0.04309508417553976
17.752678096588753,0.01543993066733259
17.761119693401202,0.000630273916035937
17.76956129021366,-0.0017168499211971777
17.77800288702611,0.0038139260917054198
17.78644448383856,0.00946076386323905
17.794886080651015,0.01111416692247977
17.803327677463468,0.012187166141288624
17.811769274275925,0.017759684607695125
17.820210871088374,0.028141001552079128
17.82865246790083,0.0376945186782656
17.83709406471328,0.039493078021228575
17.845535661525734,0.03144003950528168
17.853977258338187,0.015320471632195893
17.86241885515064,-0.005375255509982681
17.870860451963093,-0.02391977860914645
17.879302048775546,-0.03404421603504591
17.887743645588,-0.03598559047363476
17.896185242400453,-0.034914309701776045
17.904626839212906,-0.03204899389304985
17.91306843602536,-0.016865485162578103
17.921510032837812,0.026286376089054243
17.929951629650265,0.10038664114363645
17.93839322646272,0.18059055034833335
17.94683482327517,0.21698359702699835
17.955276420087625,0.17866343839334609
17.963718016900078,0.09423837977485744
17.97215961371253,0.0191225816357957
17.98060121052498,-0.01834202424530355
17.989042807337437,-0.021595387306922245
17.997484404149887,-0.005769990392976864
18.005926000962344,0.014313388367554837
18.014367597774793,0.02812054356763072
18.02280919458725,0.030891508521060596
18.031250791399703,0.023496704059935695
18.039692388212153,0.009926405584752036
18.04813398502461,-0.004938968440226997
18.05657558183706,-0.01600260988161836
18.065017178649516,-0.01892850349579717
18.073458775461965,-0.012899571945233427
18.081900372274422,-0.0027082788036493716
18.09034196908687,0.004743469394556764
18.098783565899325,0.006297897713526966
18.107225162711778,0.0038458640268756224
18.11566675952423,0.0012737395653305468
18.124108356336684,-0.00019122469348416943
18.132549953149137,-0.003930547482372385
18.14099154996159,-0.012856972654450379
18.149433146774044,-0.020754900369909846
18.157874743586497,-0.013658084189966503
18.16631634039895,0.012565071918500125
18.174757937211403,0.042334052057010976
18.183199534023856,0.057910738602195255
18.19164113083631,0.057214421839578006
18.200082727648763,0.0467384371851836
18.208524324461216,0.03115930585056621
18.216965921273665,0.015362009366143518
18.225407518086122,0.004207052372323312
18.23384911489857,-0.0015421699308251521
18.24229071171103,-0.003083059894207529
18.250732308523478,-0.0008219818926951034
18.259173905335935,0.003270372892591546
18.267615502148388,0.005665900618306074
18.27605709896084,0.004861195607887561
18.284498695773294,0.0016005374852723609
18.292940292585744,-0.002510554502592138
18.3013818893982,-0.004804149441028839
18.30982348621065,-0.0024502283542349036
18.318265083023107,0.005449677600508499
18.326706679835556,0.017086192442535928
18.335148276648013,0.02909650613366134
18.343589873460463,0.037349673133781146
18.352031470272916,0.0365928140967402
18.36047306708537,0.021951589723432047
18.368914663897822,-0.007094916917732675
18.37735626071028,-0.04083511554038881
18.38579785752273,-0.0595347184610386
18.394239454335185,-0.05120664507045207
18.402681051147635,-0.026955581050242698
18.411122647960088,-0.008948458408415589
18.41956424477254,-0.010353753019779187
18.428005841584994,-0.029568540592567367
18.436447438397447,-0.05198216476797645
18.4448890352099,-0.05673344077674295
18.453330632022354,-0.03477200921969613
18.461772228834807,-0.0006009501697001318
18.470213825647257,0.023604933161943398
18.478655422459713,0.03140232975509072
18.487097019272166,0.03195235280762747
18.49553861608462,0.03222957643779626
18.503980212897073,0.028718630450451865
18.512421809709526,0.0129540796386046
18.52086340652198,-0.02441441368938387
18.52930500333443,-0.08894794597798478
18.537746600146885,-0.16539267607691088
18.546188196959335,-0.2132134247391492
18.55462979377179,-0.20581362699499328
18.56307139058424,-0.1595808609069347
18.571512987396698,-0.10359021286750297
18.579954584209148,-0.05118887408410797
18.5883961810216,-0.007656899778231395
18.596837777834054,0.022330843637146984
18.605279374646507,0.03550465657526257
18.613720971458964,0.03253634850287771
18.622162568271413,0.021050804647550058
18.63060416508387,0.011363095261749376
18.63904576189632,0.008376060320142426
18.647487358708773,0.010029601124716148
18.655928955521226,0.011840343588982644
18.66437055233368,0.011313031341801475
18.672812149146132,0.008622339442777986
18.681253745958585,0.004035040407150402
18.68969534277104,-0.0037917369475118615
18.69813693958349,-0.017520510990555824
18.706578536395945,-0.04072888723244041
18.715020133208398,-0.07205545361875054
18.72346173002085,-0.09864095318972886
18.731903326833304,-0.10687128418996807
18.740344923645758,-0.09529171143182869
18.74878652045821,-0.07116636190697367
18.757228117270664,-0.045955007230052074
18.765669714083117,-0.029816928038632198
18.77411131089557,-0.023361224886354684
18.78255290770802,-0.019893338106097253
18.790994504520476,-0.013387520606833852
18.799436101332926,-0.0026810365289252278
18.807877698145383,0.00865061128092031
18.816319294957832,0.015433411820529798
18.82476089177029,0.014972873684552095
18.833202488582742,0.008449195002353424
18.841644085395192,-0.0019699368982796605
18.85008568220765,-0.014140388458959489
18.858527279020098,-0.024143916153165502
18.866968875832555,-0.02933757949605878
18.875410472645004,-0.03276510789295913
18.88385206945746,-0.039051049182265714
18.89229366626991,-0.04550623022801312
18.900735263082364,-0.04219850493080504
18.909176859894817,-0.02445276247890065
18.91761845670727,-0.0009763804491376062
18.926060053519723,0.015530549040325987
18.934501650332177,0.02034385302728415
18.94294324714463,0.0137811840192265
18.951384843957083,-0.007216893402584868
18.959826440769536,-0.0455967608529605
18.96826803758199,-0.0899936663422601
18.976709634394442,-0.11312762777083435
18.985151231206896,-0.09896442344272557
18.99359282801935,-0.06323548396756415
19.002034424831802,-0.032089277840613134
19.010476021644255,-0.014835308008464068
19.018917618456705,-0.005501864810242077
19.02735921526916,0.004457199201389113
19.03580081208161,0.01727111188592689
19.044242408894068,0.02644806336770036
19.052684005706517,0.02448673341337551
19.061125602518974,0.011182031613384436
19.069567199331427,-0.00633555285438492
19.07800879614388,-0.018602540684659174
19.086450392956333,-0.02121582471138431
19.094891989768783,-0.018383823775117738
19.10333358658124,-0.01607361524651758
19.11177518339369,-0.015004990158146617
19.120216780206146,-0.01265554931654189
19.128658377018596,-0.006373564649878029
19.137099973831052,0.004909848114519284
19.145541570643502,0.018132019906777125
19.153983167455955,0.028043652105441595
19.16242476426841,0.031665625207548655
19.17086636108086,0.028814607219208088
19.179307957893318,0.02098386622785166
19.187749554705768,0.01091291836172524
19.196191151518224,0.0019413819077855055
19.204632748330674,-0.00264652510786874
19.213074345143127,-0.0011152902477488476
19.22151594195558,0.004982706088324339
19.229957538768033,0.011303713153100768
19.238399135580487,0.013963439850678199
19.24684073239294,0.012182433732363537
19.255282329205393,0.006143897554631397
19.263723926017846,-0.0039407199001197536
19.272165522830296,-0.01345693145588409
19.280607119642752,-0.014762085330868563
19.289048716455206,-0.00548375348977607
19.29749031326766,0.008207356170674533
19.305931910080112,0.01596225688930824
19.314373506892565,0.010401835593838909
19.322815103705018,-0.009539584743387546
19.331256700517468,-0.04198155395437948
19.339698297329925,-0.08377640564519495
19.348139894142374,-0.12337033525457211
19.35658149095483,-0.13902349794017688
19.36502308776728,-0.1178970882611004
19.373464684579737,-0.07021907829828648
19.381906281392187,-0.012664613885063382
19.39034787820464,0.0491015343258008
19.398789475017093,0.1076999732687452
19.407231071829546,0.13921286700062246
19.415672668642003,0.12622971614171258
19.424114265454453,0.08380570951149613
19.43255586226691,0.03967764545454695
19.44099745907936,0.006150845092427502
19.449439055891812,-0.017338451680801382
19.457880652704265,-0.03212567985448421
19.46632224951672,-0.037320242779772146
19.47476384632917,-0.0321886656636242
19.483205443141625,-0.017769457173804876
19.491647039954078,0.005540960481476568
19.50008863676653,0.041484999874240786
19.508530233578984,0.09391254115844419
19.516971830391437,0.15037309318543718
19.52541342720389,0.17643393866310017
19.533855024016344,0.15060364714562544
19.542296620828797,0.09480193275924226
19.55073821764125,0.04635149704143553
19.559179814453703,0.021159279835817807
19.567621411266156,0.014793341117116042
19.57606300807861,0.015655166143773023
19.58450460489106,0.013733989235537763
19.592946201703516,0.007121280335432945
19.601387798515965,0.001688526366686264
19.609829395328422,0.005200402050414116
19.61827099214087,0.019267367471568833
19.62671258895333,0.03585365598809003
19.635154185765778,0.04959338214574691
19.64359578257823,0.06994281722852301
19.652037379390688,0.1078603060466172
19.660478976203137,0.15029114337027522
19.668920573015594,0.16266401378374865
19.677362169828044,0.12931064537108627
19.6858037666405,0.07357884963658454
19.69424536345295,0.02511972272826822
19.702686960265403,-0.007097092326506972
19.711128557077856,-0.025603698346843232
19.71957015389031,-0.03314590259891377
19.728011750702763,-0.032562406655520834
19.736453347515216,-0.027664507645237306
19.74489494432767,-0.02213172729252271
19.753336541140122,-0.017876059738354225
19.761778137952575,-0.014913347354655528
19.77021973476503,-0.012765684568516655
19.77866133157748,-0.011845184129710796
19.787102928389935,-0.012692689622893851
19.795544525202388,-0.013490003658723746
19.80398612201484,-0.010592838284610504
19.812427718827294,-0.0023107807973451024
19.820869315639744,0.009428112549719685
19.8293109124522,0.022009114558554827
19.83775250926465,0.034194153548812535
19.846194106077107,0.04393673935485306
19.854635702889556,0.04696495531896414
19.863077299702013,0.039319260988387034
19.871518896514466,0.023394974809978084
19.87996049332692,0.009312198944802392
19.888402090139373,0.004750445257144822
19.896843686951822,0.007008723011542372
19.90528528376428,0.009132137585690096
19.91372688057673,0.00783895485258572
19.922168477389185,0.0022894700518108968
19.930610074201635,-0.007532509666867084
19.93905167101409,-0.01812129841455412
19.94749326782654,-0.023996983629348566
19.955934864638994,-0.02377273094178738
19.964376461451447,-0.021616978334299757
19.9728180582639,-0.021555215202579896
19.981259655076357,-0.022612612597460793
19.989701251888807,-0.021853906170503874
19.998142848701264,-0.020217949101400637
20.006584445513713,-0.021022102503436627
20.015026042326166,-0.02349339672518599
20.02346763913862,-0.022636849675110274
20.031909235951073,-0.014616102992298607
20.040350832763526,0.0015030333939704868
20.04879242957598,0.02567886336839152
20.057234026388432,0.05333667744075232
20.065675623200885,0.07041324440189957
20.074117220013335,0.06554059014937082
20.08255881682579,0.04515529318546362
20.09100041363824,0.024812779979275525
20.099442010450698,0.01398176156004056
20.10788360726315,0.012233935000293607
20.116325204075604,0.009931530148942642
20.124766800888057,-0.00579905561117006
20.133208397700507,-0.04048374180619483
20.141649994512964,-0.08353048686236535
20.150091591325413,-0.11068209595596906
20.15853318813787,-0.10619533584824892
20.16697478495032,-0.07881472747363022
20.175416381762776,-0.04760108934858112
20.183857978575226,-0.023217927388843238
20.19229957538768,-0.006759990334782622
20.200741172200132,0.0035272262059653637
20.209182769012585,0.008882080150897675
20.217624365825042,0.01054711711521379
20.22606596263749,0.010375572978097687
20.23450755944995,0.010849636615098726
20.242949156262398,0.01333992682446146
20.251390753074855,0.015596022548231905
20.259832349887304,0.014449654174307422
20.268273946699757,0.010427300635231541
20.27671554351221,0.006528204541008044
20.285157140324664,0.0052004369156431595
20.293598737137117,0.007376381444371085
20.30204033394957,0.01082855221124221
20.310481930762023,0.011424651797991623
20.318923527574476,0.007492176966371929
20.32736512438693,1.4293900443596713e-05
20.335806721199383,-0.008728550509203027
20.344248318011836,-0.01576824126107969
20.35268991482429,-0.020464344872915336
20.361131511636742,-0.024084838828981013
20.369573108449195,-0.025146377144422142
20.37801470526165,-0.019061976438104075
20.386456302074098,-0.0020178631093698872
20.394897898886555,0.02434059006391978
20.403339495699004,0.04900314100896733
20.41178109251146,0.05685516911124118
20.42022268932391,0.043971263566796384
20.428664286136367,0.022458495155499296
20.437105882948817,0.006180313727889349
20.44554747976127,-0.0015589139798993837
20.453989076573727,-0.00561233073451969
20.462430673386176,-0.01134804647646334
20.470872270198633,-0.019983682853888733
20.479313867011083,-0.028228054516258247
20.48775546382354,-0.0322087914739978
20.49619706063599,-0.031319107939848476
20.504638657448442,-0.02709268640122587
20.513080254260895,-0.020799168593395544
20.52152185107335,-0.014072274723503985
20.5299634478858,-0.009517522764177578
20.538405044698255,-0.009674664664586703
20.546846641510708,-0.015485443704566669
20.55528823832316,-0.0251787798999846
20.563729835135614,-0.03661802995198786
20.572171431948068,-0.04851832884033659
20.58061302876052,-0.05599248305426163
20.589054625572974,-0.05352655924556697
20.597496222385427,-0.04468468784054248
20.60593781919788,-0.03786480148398401
20.614379416010333,-0.03362102659932507
20.622821012822783,-0.022616218413217756
20.63126260963524,0.007071958440011913
20.63970420644769,0.05916063611623209
20.648145803260146,0.11703618620495378
20.656587400072596,0.14762165608144806
20.665028996885052,0.13345843806226615
20.673470593697505,0.09204856267126907
20.68191219050996,0.05088326524565525
20.69035378732241,0.022189660676541816
20.69879538413486,0.006316366197259977
20.707236980947318,7.567623928670495e-05
20.715678577759768,0.00026362180760334435
20.724120174572224,0.005532599294042765
20.732561771384674,0.013531554268306713
20.74100336819713,0.019337468112796772
20.74944496500958,0.019711895767455755
20.757886561822033,0.015474328477031018
20.766328158634487,0.009579585993963026
20.77476975544694,0.005384349193060904
20.783211352259393,0.006287587546152092
20.791652949071846,0.013864625217648915
20.800094545884303,0.023560553662382546
20.808536142696752,0.025877983770931947
20.816977739509205,0.01701199873164613
20.82541933632166,0.003609918478003454
20.833860933134112,-0.006648142627884989
20.842302529946565,-0.011664700902297613
20.850744126759018,-0.01117398329932198
20.85918572357147,-0.004701889481676695
20.867627320383924,0.004582827963631469
20.876068917196374,0.00918966057586592
20.88451051400883,0.004444400345912653
20.89295211082128,-0.006693982559051663
20.901393707633737,-0.01870058921240996
20.90983530444619,-0.03048735021014937
20.918276901258643,-0.04578095231821189
20.926718498071097,-0.06644431971312158
20.935160094883546,-0.08403093886081461
20.943601691696003,-0.08278610947822922
20.952043288508452,-0.05802009872877649
20.96048488532091,-0.024117537107009836
20.96892648213336,0.0013151815497256985
20.977368078945815,0.011902513798110784
20.985809675758265,0.011441635613864465
20.994251272570718,0.006561304020705387
21.00269286938317,0.000890590839295194
21.011134466195625,-0.0050074961561819295
21.01957606300808,-0.009432420628738098
21.02801765982053,-0.008297327698462927
21.036459256632988,-0.0002279156158130557
21.044900853445437,0.010265155895811508
21.053342450257894,0.017297962782387672
21.061784047070343,0.018256825564979682
21.070225643882797,0.014314935947512502
21.07866724069525,0.008564910690597368
21.087108837507703,0.004122569100205296
21.095550434320156,0.003764951738584777
21.10399203113261,0.006748752546102345
21.112433627945062,0.0064101921566861834
21.120875224757516,-0.003044944849891513
21.12931682156997,-0.01937921273742926
21.137758418382422,-0.03406582815205381
21.146200015194875,-0.03830030550170102
21.154641612007328,-0.029376870129179954
21.16308320881978,-0.014333905726949335
21.171524805632234,-0.005543353657452291
21.179966402444688,-0.011174294430464964
21.188407999257137,-0.027679835570623933
21.196849596069594,-0.04032316291868006
21.205291192882044,-0.03662745858895965
21.2137327896945,-0.018489675502651372
21.22217438650695,0.0022920238102943774
21.230615983319407,0.014871428645831698
21.239057580131856,0.016497917715024082
21.24749917694431,0.011932778231235602
21.255940773756766,0.005647647280497911
21.264382370569216,-0.001354729854471255
21.272823967381672,-0.008383982376748861
21.281265564194122,-0.013888318445789173
21.28970716100658,-0.0160669158265208
21.29814875781903,-0.013001377033292162
21.30659035463148,-0.0049907827506684935
21.315031951443935,0.0034688917469319633
21.323473548256388,0.007420475531515124
21.33191514506884,0.005112980908502518
21.340356741881294,-0.0031856906606460723
21.348798338693747,-0.014683589068117545
21.3572399355062,-0.02329008934787134
21.365681532318654,-0.025446037247994206
21.374123129131107,-0.0241432297295948
21.38256472594356,-0.023311600399480856
21.391006322756013,-0.022224462537590046
21.399447919568466,-0.018783001951417376
21.40788951638092,-0.01522994379880191
21.416331113193372,-0.015456627473243641
21.424772710005826,-0.018781856714273383
21.43321430681828,-0.021209787021614905
21.44165590363073,-0.019402129864731093
21.450097500443185,-0.01288636059724548
21.458539097255635,-0.0053205366035992616
21.46698069406809,-0.00035492467142635327
21.475422290880545,0.0024602993550282793
21.483863887692998,0.005099741864847088
21.49230548450545,0.009383037640636308
21.5007470813179,0.01737627215593528
21.509188678130357,0.027895408258140977
21.517630274942807,0.035058464924650964
21.526071871755263,0.034083687284116225
21.534513468567713,0.02583961241153912
21.54295506538017,0.016240555127351244
21.55139666219262,0.013430881464063118
21.559838259005073,0.019840161163823776
21.568279855817526,0.027608701090756207
21.57672145262998,0.028968146198787032
21.585163049442432,0.02406357054027728
21.593604646254885,0.014837137769561878
21.602046243067342,0.0014508105118952765
21.61048783987979,-0.012338953723520443
21.618929436692245,-0.014970090181978073
21.627371033504698,0.005053529966958991
21.63581263031715,0.04272172271019045
21.644254227129604,0.07379586941735189
21.652695823942057,0.0764682531018906
21.66113742075451,0.052778673715452924
21.669579017566964,0.024214040016405237
21.678020614379413,0.012012103133572451
21.68646221119187,0.023102895849578635
21.69490380800432,0.046704614285285724
21.703345404816776,0.06074664164154436
21.71178700162923,0.048591299495489244
21.720228598441683,0.01321768370260337
21.728670195254136,-0.02715177887207963
21.737111792066585,-0.05304002162866636
21.745553388879042,-0.05634049070314977
21.75399498569149,-0.04580487882248741
21.76243658250395,-0.03633173180058384
21.770878179316398,-0.034953173669757254
21.779319776128855,-0.03825146799441062
21.787761372941304,-0.03776177873249923
21.796202969753757,-0.030240727237674615
21.80464456656621,-0.022260142121926205
21.813086163378664,-0.021811847706875522
21.82152776019112,-0.029343619372212384
21.82996935700357,-0.037446213446942926
21.838410953816027,-0.03790481752051124
21.846852550628476,-0.029508075020817842
21.855294147440933,-0.017392351361923363
21.863735744253383,-0.005382595626059014
21.872177341065836,0.007416628185544986
21.88061893787829,0.02176945998829957
21.889060534690742,0.033949029462920305
21.897502131503195,0.03897540984616574
21.90594372831565,0.035475845692278914
21.9143853251281,0.025901362480530956
21.922826921940555,0.014977585431705132
21.931268518753008,0.007343205833513851
21.93971011556546,0.0049852862050876225
21.948151712377914,0.006350215984000042
21.956593309190367,0.006138417214504589
21.96503490600282,0.0008132021110822468
21.973476502815274,-0.0049017975818793705
21.981918099627727,-0.006486663000307479
21.990359696440176,-0.009055451853074034
21.998801293252633,-0.018699363684887938
22.007242890065083,-0.03552969225329354
22.01568448687754,-0.05988215991400478
22.02412608368999,-0.0919264060656292
22.032567680502446,-0.11834323222195979
22.041009277314895,-0.11187696887699633
22.04945087412735,-0.06477983968927153
22.057892470939805,-0.010055689763442826
22.066334067752255,0.016630080913276005
22.07477566456471,0.015305789620839448
22.08321726137716,0.0054348869530479816
22.091658858189618,-0.0021928054029117083
22.100100455002067,-0.007693509799688796
22.10854205181452,-0.012599242243640887
22.116983648626974,-0.015218417724928927
22.125425245439427,-0.011800756329079894
22.13386684225188,0.00041963144824192346
22.142308439064333,0.01949453582375687
22.150750035876786,0.03691158846068262
22.15919163268924,0.04324334672352971
22.167633229501693,0.037478599029757725
22.176074826314146,0.02698920220237374
22.1845164231266,0.017775027811200814
22.192958019939052,0.008999554037724768
22.201399616751505,-0.0025805806376125863
22.20984121356396,-0.014992021026036572
22.21828281037641,-0.020291915932775698
22.226724407188865,-0.01367064694384361
22.235166004001318,0.0008025008120729192
22.243607600813768,0.015143489249269695
22.252049197626224,0.0233062756679743
22.260490794438674,0.0234408975359713
22.26893239125113,0.01809911268325601
22.277373988063584,0.01231795485256084
22.285815584876037,0.010193860177518613
22.29425718168849,0.011882576025782913
22.30269877850094,0.014816570627733769
22.311140375313396,0.01600518297308484
22.319581972125846,0.011169575696691999
22.328023568938303,-0.0038816279507999304
22.336465165750752,-0.02663392122489031
22.34490676256321,-0.043841370211488415
22.35334835937566,-0.04162852144400253
22.36178995618811,-0.02160776477254933
22.370231553000565,0.0009557428741897699
22.378673149813018,0.014373989585677463
22.38711474662547,0.01869737572989162
22.395556343437924,0.02087746105190303
22.40399794025038,0.028787645081985547
22.41243953706283,0.04353683239238409
22.420881133875284,0.052323394986655405
22.429322730687737,0.03935212245874531
22.43776432750019,0.008274815557827078
22.446205924312643,-0.020062014793915946
22.454647521125096,-0.033140269026322076
22.46308911793755,-0.03475145198191079
22.471530714750003,-0.03189837645475609
22.479972311562452,-0.0268259677297874
22.48841390837491,-0.019619744810976083
22.49685550518736,-0.01228637691190535
22.505297101999815,-0.0081095412744524
22.51373869881227,-0.008760508954522789
22.52218029562472,-0.013658878340336158
22.530621892437175,-0.02105223025668524
22.539063489249624,-0.02959676762807743
22.54750508606208,-0.03721807861406689
22.55594668287453,-0.03928700621275101
22.564388279686987,-0.03295693378161426
22.572829876499437,-0.020598248366257916
22.581271473311894,-0.006724437378722099
22.589713070124343,0.00312384002527385
22.5981546669368,0.003916286066596335
22.60659626374925,-0.0026346761538608536
22.615037860561703,-0.008863277181697595
22.62347945737416,-0.00947113722532264
22.63192105418661,-0.004646993582846618
22.640362650999066,0.0017936483915489175
22.648804247811515,0.004517101350814903
22.657245844623972,7.349235824503984e-05
22.665687441436422,-0.00981962065464862
22.674129038248875,-0.018459029867385842
22.682570635061328,-0.018078059483365425
22.69101223187378,-0.004171747922173122
22.699453828686234,0.022773334418972696
22.707895425498688,0.05435251231379746
22.71633702231114,0.07383361872465644
22.724778619123594,0.07092592539196987
22.733220215936043,0.05284068624625766
22.7416618127485,0.03181781419021831
22.750103409560953,0.014134780086429419
22.758545006373406,0.002507628181135703
22.76698660318586,-0.003160571701626964
22.775428199998313,-0.006434094455102468
22.783869796810766,-0.010681309226424896
22.792311393623216,-0.015278420550828583
22.800752990435672,-0.01755536896392115
22.809194587248122,-0.01748572653313727
22.81763618406058,-0.017542668259212777
22.826077780873028,-0.019343760089813804
22.834519377685485,-0.024006123168148163
22.842960974497935,-0.033084425137593555
22.851402571310388,-0.04308573278262925
22.859844168122844,-0.041021901127758074
22.868285764935294,-0.01068895922739027
22.87672736174775,0.05559038941181861
22.8851689585602,0.14824507007850007
22.893610555372657,0.234201815858562
22.902052152185107,0.26460631628148057
22.91049374899756,0.2169648977437069
22.918935345810013,0.12488757898733582
22.927376942622466,0.04201338755561913
22.93581853943492,-0.0035547358512446267
22.944260136247372,-0.013084750638833086
22.952701733059826,-0.0030284900451896767
22.96114332987228,0.00948720569959037
22.969584926684732,0.015545268099224518
22.978026523497185,0.013093116459865082
22.986468120309638,0.003760066662080515
22.99490971712209,-0.006942694646022043
23.003351313934544,-0.01188739896406962
23.011792910746998,-0.007196885286597014
23.02023450755945,0.006446327018100507
23.028676104371904,0.023984450133246644
23.037117701184357,0.03750538112187782
23.045559297996807,0.04120828214242488
23.054000894809263,0.031986872913953836
23.062442491621713,0.006322090714409135
23.07088408843417,-0.03851455359151701
23.079325685246623,-0.10133414524485045
23.087767282059076,-0.16732052712461135
23.09620887887153,-0.2018256970029182
23.10465047568398,-0.18142589300586515
23.113092072496435,-0.12535328649560268
23.121533669308885,-0.06714369200575226
23.129975266121342,-0.01540813796117376
23.13841686293379,0.038705233505284695
23.146858459746248,0.0925554559547162
23.155300056558698,0.12392547169962036
23.16374165337115,0.11762713816788514
23.172183250183604,0.08745413008724454
23.180624846996057,0.05753265536237428
23.18906644380851,0.03796038378246894
23.197508040620963,0.02600689134959562
23.20594963743342,0.015368416133043322
23.21439123424587,0.0012026572387521116
23.222832831058323,-0.01615551353765418
23.231274427870776,-0.032463059613888366
23.23971602468323,-0.044846908654662974
23.248157621495682,-0.05204847741979693
23.256599218308136,-0.04958749678443226
23.26504081512059,-0.029884891789647556
23.273482411933042,0.005309360611918386
23.28192400874549,0.03716163434368365
23.290365605557948,0.04751244880329037
23.298807202370398,0.0370653473640527
23.307248799182855,0.01774607625611138
23.315690395995308,0.0002005185170697141
23.32413199280776,-0.009169476244467106
23.332573589620214,-0.010419716826425365
23.341015186432664,-0.009292284183622736
23.34945678324512,-0.010879559074859005
23.35789838005757,-0.01602122510638713
23.366339976870027,-0.022392110001976502
23.374781573682476,-0.02610729098460154
23.383223170494933,-0.02439869777341581
23.391664767307383,-0.018322396960151317
23.40010636411984,-0.011227013907955226
23.40854796093229,-0.0056943208683010475
23.416989557744742,-0.0038578964075803414
23.425431154557195,-0.0075800611938906
23.43387275136965,-0.01597790803468084
23.442314348182105,-0.025278742365244387
23.450755944994555,-0.03180375573506284
23.45919754180701,-0.03337027453718546
23.46763913861946,-0.029102259901510445
23.476080735431914,-0.020181944291953358
23.484522332244367,-0.009351649481821694
23.49296392905682,0.0004108246106006245
23.501405525869274,0.006088207263229012
23.509847122681727,0.0068493785091805065
23.51828871949418,0.005050508360545982
23.526730316306633,0.002950285991593019
23.535171913119083,0.0020913561311491787
23.54361350993154,0.00417298056612875
23.552055106743992,0.008216767912793594
23.560496703556446,0.011134962087614572
23.5689383003689,0.011962159190847824
23.577379897181352,0.010496715987120429
23.585821493993805,0.005041341291460121
23.594263090806255,-0.005365922354630018
23.60270468761871,-0.021578453902097006
23.61114628443116,-0.04765646180232852
23.619587881243618,-0.0854245104977376
23.628029478056067,-0.11959126139164325
23.636471074868524,-0.11895148639465294
23.644912671680974,-0.07193373782740584
23.653354268493427,-0.00874792282165943
23.661795865305884,0.03327884084741587
23.670237462118333,0.045372920722087685
23.67867905893079,0.037977138173206415
23.68712065574324,0.02199568964913347
23.695562252555696,0.005519232178830967
23.704003849368146,-0.003965593280575835
23.7124454461806,-0.001334723664271109
23.720887042993052,0.010143437407666645
23.729328639805505,0.018163823408089107
23.73777023661796,0.01316532941972174
23.74621183343041,-0.0011248837826710037
23.754653430242865,-0.014443081307373939
23.763095027055318,-0.020462092529512015
23.771536623867775,-0.01720549310229608
23.779978220680224,-0.007017544374786166
23.788419817492677,0.0034735406472608133
23.79686141430513,0.009089932960608798
23.805303011117584,0.010156722416431094
23.813744607930037,0.00929147510731371
23.82218620474249,0.006348138914944761
23.830627801554943,-3.104235176361542e-06
23.839069398367396,-0.007556308158750953
23.847510995179846,-0.012429036517468272
23.855952591992303,-0.013215657363745394
23.864394188804752,-0.010894091160570593
23.87283578561721,-0.007457558787287869
23.88127738242966,-0.004791784378593762
23.889718979242115,-0.004044425330055812
23.89816057605457,-0.006044814717787474
23.906602172867018,-0.01061288401580891
23.915043769679475,-0.014983834636480769
23.923485366491924,-0.014585890638500484
23.93192696330438,-0.007909485258486122
23.94036856011683,0.00018305088244492977
23.948810156929287,0.004018612394342473
23.957251753741737,0.0030812012940838822
23.96569335055419,-0.0006320059031400633
23.974134947366643,-0.004308530466128169
23.982576544179096,-0.0031041961718291993
23.99101814099155,0.0046287800711162785
23.999459737804003,0.014054808000306306
24.00790133461646,0.020150545572961358
24.01634293142891,0.02098183136069899
24.024784528241362,0.015272180134358842
24.033226125053815,0.0027821722931337224
24.04166772186627,-0.015215497385078743
24.05010931867872,-0.03696274554104588
24.058550915491175,-0.05749865323507647
24.066992512303628,-0.06717479159084971
24.07543410911608,-0.060545465449740224
24.08387570592853,-0.04436668480939246
24.092317302740987,-0.028374075169792547
24.100758899553437,-0.010609367179861717
24.109200496365894,0.02250196672515205
24.117642093178347,0.08013228283459023
24.1260836899908,0.14498896939788883
24.134525286803253,0.17385078356918943
24.142966883615703,0.14272780293390125
24.15140848042816,0.07843299088297136
24.15985007724061,0.022903832042580397
24.168291674053066,-0.007913569654647037
24.176733270865515,-0.0192136972512739
24.185174867677972,-0.019997152111419475
24.19361646449042,-0.017214970903092024
24.20205806130288,-0.014823715346022092
24.210499658115328,-0.013918216869562362
24.21894125492778,-0.0134400868240575
24.227382851740234,-0.011216494377566517
24.235824448552687,-0.005108290882449115
24.244266045365144,0.005123699813408114
24.252707642177594,0.015612181638232985
24.26114923899005,0.01945594811280358
24.2695908358025,0.011224851350264457
24.278032432614953,-0.006933672039880007
24.286474029427406,-0.024380267635923027
24.29491562623986,-0.03211602201630469
24.303357223052313,-0.029638323061058014
24.311798819864766,-0.020264324644294226
24.32024041667722,-0.007754699396861915
24.328682013489672,0.004304267040026219
24.337123610302122,0.015703901924296226
24.34556520711458,0.029770344326206982
24.35400680392703,0.04855376774170137
24.362448400739485,0.0664488690953778
24.370889997551938,0.06973175509433693
24.37933159436439,0.051553699988856394
24.387773191176844,0.022980951467091983
24.396214787989294,-0.00038628978303420665
24.40465638480175,-0.012177676656167516
24.4130979816142,-0.013449677012732293
24.421539578426657,-0.007882787795327547
24.429981175239107,0.0004972149168432139
24.438422772051563,0.006444438104737252
24.446864368864013,0.004910476676183957
24.455305965676466,-0.0026386903215863218
24.463747562488923,-0.0083437064566769
24.472189159301372,-0.003909387940150749
24.48063075611383,0.016887078020948017
24.48907235292628,0.05396698638068175
24.497513949738735,0.09192485227521727
24.505955546551185,0.10431613564449763
24.514397143363638,0.08089917555274043
24.52283874017609,0.04048165559349904
24.531280336988544,0.005915357372517725
24.539721933800998,-0.017232375457717327
24.54816353061345,-0.033607505514576134
24.556605127425904,-0.044064288668491505
24.565046724238357,-0.04333390944765369
24.57348832105081,-0.03040009602303319
24.581929917863263,-0.012989881455806892
24.590371514675716,0.003216902475216819
24.59881311148817,0.021803693880530554
24.607254708300623,0.04519692535876978
24.615696305113076,0.06158475048836071
24.62413790192553,0.055947685019794476
24.632579498737982,0.03152809217673
24.641021095550435,0.005055841383539812
24.649462692362885,-0.012184928049170183
24.65790428917534,-0.018431136761171425
24.66634588598779,-0.015488055009702698
24.674787482800248,-0.006435953532007278
24.683229079612698,0.0023765360772113656
24.691670676425154,0.0027551490922442037
24.700112273237607,-0.009404414596322457
24.708553870050057,-0.029265982176454795
24.716995466862514,-0.04355379363825056
24.725437063674963,-0.041833136811670155
24.73387866048742,-0.026624028472844716
24.74232025729987,-0.005976157699602255
24.750761854112326,0.01566894357602286
24.759203450924776,0.0335768006341274
24.76764504773723,0.039659820315865325
24.776086644549682,0.03050000721380863
24.784528241362136,0.0131875538728199
24.79296983817459,-0.0009495011707770181
24.801411434987042,-0.0038564644902763117
24.8098530317995,0.005195169947743697
24.818294628611948,0.017097595825268406
24.8267362254244,0.019763182191539427
24.835177822236854,0.011254252985957981
24.843619419049308,0.0015432008155285607
24.85206101586176,0.0005002006473707034
24.860502612674214,0.007982314484653683
24.868944209486667,0.015886710172486503
24.87738580629912,0.016186316781465513
24.88582740311157,0.004045826070740246
24.894268999924027,-0.022623141722198273
24.902710596736476,-0.057559004924947574
24.911152193548933,-0.08216166591771988
24.919593790361386,-0.080141035411716
24.92803538717384,-0.05508713434224763
24.936476983986292,-0.02329469889665664
24.944918580798742,0.0032356926147190613
24.9533601776112,0.01846416729577864
24.96180177442365,0.0159707506274037
24.970243371236105,-0.009823288531071457
24.978684968048555,-0.054087107583325245
24.98712656486101,-0.09129083598153057
24.99556816167346,-0.08264240776045127
25.004009758485918,-0.01980795025298255
25.012451355298367,0.045322378446118396
25.02089295211082,0.05123312635956497
25.029334548923273,-0.004556013661805537
25.037776145735727,-0.07282268567397046
25.046217742548183,-0.10745359120583495
25.054659339360633,-0.09614749543493467
25.06310093617309,-0.05624927415959863
25.07154253298554,-0.014906191291629463
25.079984129797992,0.012022644277291945
25.088425726610446,0.023368300631402276
25.0968673234229,0.02133896616215536
25.105308920235352,0.008582381830284204
25.113750517047805,-0.007718643213214076
25.122192113860258,-0.01868773699889788
25.13063371067271,-0.020675010065984295
25.13907530748516,-0.017144836380437418
25.147516904297618,-0.013809020706165112
25.15595850111007,-0.012329745985963496
25.164400097922524,-0.010498812670764008
25.172841694734977,-0.007367055478791447
25.18128329154743,-0.005046479478446472
25.189724888359883,-0.005540620089279697
25.198166485172333,-0.007659076659887702
25.20660808198479,-0.008308339575596116
25.21504967879724,-0.004778765652809711
25.223491275609696,0.005604053582908038
25.231932872422146,0.0240953821175235
25.240374469234602,0.04350884140136952
25.248816066047052,0.04747415401305328
25.257257662859505,0.028608313756104238
25.265699259671962,0.0009604322622627859
25.27414085648441,-0.01545142860069524
25.282582453296868,-0.01310392737025289
25.291024050109318,0.0012201055214725587
25.299465646921774,0.013094769964347646
25.307907243734224,0.008821245401991676
25.316348840546677,-0.016157078811157615
25.32479043735913,-0.0515583793993588
25.333232034171584,-0.07633676283821562
25.341673630984037,-0.07615242034472876
25.35011522779649,-0.056844192739308234
25.358556824608943,-0.03514316055620836
25.366998421421396,-0.021157447987019958
25.37544001823385,-0.015373680903536633
25.383881615046302,-0.01555710305413691
25.392323211858756,-0.018575537843692307
25.40076480867121,-0.01800094406915622
25.409206405483662,-0.008466752260671298
25.417648002296115,0.006389757618043883
25.42608959910857,0.016779898245094124
25.43453119592102,0.017646844002385746
25.442972792733475,0.01192092296412179
25.451414389545924,0.004263999712709296
25.45985598635838,-0.003674128698009806
25.46829758317083,-0.011693624250992058
25.476739179983287,-0.01820395062597579
25.485180776795737,-0.02046425142020629
25.493622373608193,-0.017718040287339955
25.502063970420647,-0.013618170379349401
