0
0.002840521183292221
0.0010174322460484854
0.0022847796738541142
-0.008179121716244221
-0.010645678590709504
-0.02989808739167489
-0.01286565630461832
-0.04729641071274784
0.03728657124430783
0.02359375143066017
0.003394554461946151
-0.0017247574027338395
0.0028355490093962743
0.01204691595748103
-0.028398853872086644
0.00574559341617985
0.00483021614312424
0.0020739170050228235
0.004304400902432028
0.025581083393244053
-0.02885296165260343
-0.020155848019006904
-0.0052202784448590325
-0.02490201701662345
0.002963773082183382
-0.0039618784909337314
-0.005491860091460893
0.015570618580382048
0.02622492283335352
0.010750972969220049
0.027314982418446668
0.013182475251708948
-0.012379020327432797
-0.0077234005775573805
-0.02769890125353947
-0.0015016932432544978
0.016717605073551314
0.016533648596300472
-0.006275132663404127
-0.08497639573724587
-0.03652974084863157
-0.005978597171789034
-0.03457782320701477
-0.029276577982322305
0.07809659588024502
0.0450388881357617
-0.0166339529364635
0.005809361616583122
-0.005766190536476283
-0.029030521138847635
0.005225870041448165
0.03454133554478363
-0.010747758431836278
0.034296469720462054
0.02249136645918579
-0.01117819862470236
-0.05153082916717726
-0.03854876597467953
0.0032006955933125284
0.035524751176686756
0.0011204913151579585
-0.02535879635396739
-0.02896276346555693
-0.037776832569327734
-0.007563789467465269
-0.005384174112214771
-0.04037007776903632
-0.02136167837594551
0.02356729184364025
0.021706854488575823
-0.017897212785472707
0.029421792125414712
0.06338797193854333
0.15569675470664823
-0.03199094199441686
0.07401906913481494
0.03951133096066833
-0.006289632336647027
-0.014305011259254055
0.00594360505090899
-0.02559383376274283
-0.03673162515680978
-0.00729301135349455
-0.00459548598614447
-0.02354067847204143
-0.04194180574590336
-0.035387545610470146
0.021285868793598724
0.01910489046009903
-0.011060107842718037
0.007388557151106842
-0.025294059508075093
-0.03621854786613159
-0.02035704501211275
0.001368984836265887
0.02708714113515278
0.06527117347286669
-0.021081668774480873
0.02759255245623234
0.02125279910470784
0.029521175962338622
-0.023128501643882304
-0.012379090372254922
-0.010987309646976156
-0.07979823455583455
-0.012067647453783647
-0.03357739349792108
0.040019204696479946
0.033129404289072684
0.015916534824864517
0.024640708158189976
-0.017212765194865386
0.03687458049913617
0.027343294039872627
-0.049374192793889715
0.03513726737986893
0.005388454411117515
-0.029810141510220087
0.001012871704216229
0.03926704546135592
-0.008241012454054298
0.04671558622342588
0.03603514854484904
0.021500540484463197
-0.027347912950157583
-0.025373704646589054
-0.008473227031465403
-0.04283936246905464
-0.020941978509158465
0.005241191266555036
-0.019526996390838845
-0.005580737683390916
-0.016499308338434573
0.008235077892942106
0.04753809137822936
-0.015541016827986665
0.03319352380597744
0.012816687881186405
-0.01355708211427373
0.011770458395851143
-0.005504870263568068
-0.03844462539541968
-0.020025904031641357
0.0018963678974778402
-0.016609184343491724
-0.019741383514531047
-0.02769588929109557
0.04489259910512649
0.050433109918566914
-0.055190532417992044
-0.023561496172941232
-0.00018640068923420457
0.014021570050419502
-0.0704862982036374
0.0039636441824852835
0.030452607036008765
-0.03235831842591445
-0.0016075733710680126
-0.013385951199777302
-0.02808789611405966
-0.00721670304861008
-0.030518743346503164
-0.04829261780343174
-0.04194945258122843
0.07929596443387397
0.07180077485771172
-0.026617559413163374
-0.0001540789244607177
-0.0412383713473882
-0.04879015182712757
0.01312460327049973
-0.001392619741987335
-0.03681691713045932
0.043016362880899946
0.021279786998654546
0.1160505903405453
0.12385208345905546
-0.05288118649250015
0.01654466917267948
0.08980024858306782
-0.006851035570558989
0.008548397442707913
-0.0045182753677786664
0.07721211043132448
0.024919921513625872
-0.04335418230938672
0.019957925173745873
0.0011562729570277282
0.00948556309051098
0.0021606036247564294
-0.03151318964457968
-0.015207928836621204
-0.0287420933142289
-0.020043696266455004
0.05971736499327653
0.0008897972479420128
-0.04645402782754601
0.01953515602031
-0.028479493958171846
-0.004444576999071842
-0.011724790426935354
0.013190969338525663
0.017070890375200917
-0.02793462926831438
0.0007085475690981298
-0.02651591558040568
-0.04155594088376057
-0.015118439507375786
-0.03965137853830332
0.007747148211525639
-0.023131372935050763
-0.0037475415862968844
-0.01642178467554862
0.025091940129480222
0.0033156956924877386
0.004212202411175395
0.04733619659511188
-0.08253044437777417
-0.01969986465858929
0.024397138655440263
0.03521684331144876
0.03863422736747933
-0.003901096864375233
-0.022308478407955842
-0.05329133855549146
0.08536644086974524
0.02448481393270674
-0.07208727748388452
-0.016774081388645716
0.0013455205542120304
-0.06168745888683514
-0.038569338522170524
0.0023140083347675524
0.013303381834442938
-0.032444792743074886
0.08494478622366898
0.027194641646351762
-0.009510084487251502
-0.02817516764890809
-0.09195709698135719
0.020523715057461304
0.016349775250718308
0.038837953183207874
0.012963951953607887
0.014147080007732658
0.0699204678063954
0.0854666851606554
0.009852030341098614
0.0005888531873413404
0.01695790967254497
0.03523322018206755
0.00649668499581081
-0.03045466118654565
-0.06555219631930584
0.05859795245997111
0.039714927237294834
-0.06166975690665271
-0.01578441610723926
0.01700807505507773
-0.022568940037029632
0.03797203426710316
0.014070875070970431
-0.01243458968907601
0.016473341411867383
-0.05392431630036163
-0.03582913046025458
-0.0050311916310543225
-0.20288278151363298
-0.0412052534331983
0.025725596045958556
0.0015077009896716882
0.019821907986948044
0.00870377453027058
0.03297424972141379
0.006887469841258489
0.018251401959223906
0.06410567521539709
0.003789341182341266
0.03115364336413434
-0.02430235882681943
0.0015449434112172133
0.00809428911969891
0.055867232522242426
0.02689024379501881
-0.02110806270266868
-0.07052464120407617
0.04511755642503684
-0.03694104972503228
-0.0036073879768563333
0.009844164434239579
-0.0019253228870913667
0.000759204145858435
0.0113387858386935
-0.03378888868009577
0.018333689176569922
0.0175700070868704
0.010106845367871214
-0.015741688554449556
-0.007016173056973207
0.0393232247400991
0.0010982182281878542
-0.04732508003386339
-0.03463788106048058
0.021936376373988934
0.030923788538237393
-0.017374430990162965
0.05023434067239676
-0.01394145646764916
-0.04495895264949337
-0.029011479037924663
0.051724906046407164
0.020984018116961527
-0.04719662887599853
0.011777241225198638
0.034047502886330384
0.04157713109723158
-0.00887867295970724
-0.010191997118304081
0.0042942666619435466
0.004829504276149944
-0.015881491532162284
-0.028455080520175573
-0.019766974594133888
-0.01759003187464454
0.001002775400386952
-0.0317441020323837
0.007713651889799661
-0.00818893188012289
-0.013784444390742282
0.03708933866069329
0.021125160261024414
0.027023238187197842
0.00012592180207036792
0.0038950641893913704
-0.01561998037294416
0.019967608899151224
-0.013756562711914704
-0.011535197525522919
-0.006428428782930102
-0.03283926530018329
0.037857771990923765
0.17241282400229122
0.005593466086235138
0.010150335242460022
0.002943740027829206
-0.02242972211962183
-0.03247706324911069
0.00222351127446821
-0.005687263680445942
-0.027707405995068154
-0.040514037143980546
0.021949312155229397
0.031565205577346864
-0.011683301436172865
-0.026706895571209918
0.021629656721413863
0.04123255741999366
0.04655729489743762
0.05914536133422317
-0.027584048304726563
-0.1311820244344493
-0.04049545287553851
0.0034131858646604886
-0.07407504417700125
-0.04151869938424455
-0.024275510272447353
-0.0013712686711541105
0.005446862328682641
-0.007032398754628207
0.005315498886195311
-0.1368556320116146
-0.053840770887870974
0.05190499319415602
0.025152837065105647
0.023017252131560865
-0.007490917752097959
-0.001959041249903559
0.002250686253733855
0.020826601992045488
-0.002170780651634489
0.06390287495569848
0.12447692599203014
0.005063899312098378
-0.0013652130856129994
-0.026775777132946574
0.020980504300917798
0.006532389014335389
-0.018975994899293264
0.027400801210305227
-0.08484988519094658
0.0007241025552381763
0.09395767355087756
-0.031007775210311346
0.025000623897286915
0.029227588780263256
0.03899002190344314
-0.04871619338489847
-0.062263232432251535
-0.028627046834058017
0.08455679104829554
-0.008928462925777987
-0.005551982852983565
-0.0010096089940569023
-0.023328191026456186
-0.07003817079152438
0.1544111057760552
0.007917795442049487
-0.030713064836055716
-0.007586323392974269
0.0177337928891744
-0.020376243611797115
-0.025048484584111918
-0.017964505317016436
0.006547925101569291
-0.026125929759061046
-0.022833876306053113
0.009474208280141222
0.00555631928395527
-0.0387312845898425
0.00824829581812554
0.031360673656222346
-0.0024083986696143045
-0.01677983339158654
0.0012710173035186763
-0.020479527534164883
0.003511043179392754
-0.018882960188037166
0.026954813317453072
0.005427729061643835
-0.018965101159170744
0.007718605783945348
-0.0158794662672724
0.056782900421550986
0.04390962100923007
-0.01398263820677493
0.00782805607487349
0.007696462027175015
-0.010304459046349593
0.04792994470843076
-0.010280138740919462
-0.0425759750763798
0.007584651747255167
-0.06036006434492572
-0.03458422774011423
0.0006404890727637115
0.007422751513430042
-0.01724162487820647
-0.014583230530850992
0.0020496989287212804
0.035967499951918516
-0.057034094615918164
-0.05385928937307306
0.0011837007040170528
-0.007044771821997203
0.025152734829073202
0.16148926201377542
0.0034308741349846936
0.09168990002799562
0.07672922387355315
-0.06402333748148854
-0.024367070816281887
-0.039338682461022095
0.05610032024177943
0.01877036058069905
-0.15718166528120384
-0.02902205465937479
-0.004544946609296993
-0.026387535209951306
0.03709024361604093
0.002461255779965139
-0.0034154246623226132
0.06707268440150857
0.06020616692061345
0.05603373417048318
0.08334511321628563
0.029317579487499978
-0.04570867851538172
-0.04868614719941313
-0.005632819217380151
-0.00223127938913522
-0.03035529102879898
-0.0027378335172162558
0.011766290855930847
0.0021321712854651606
0.009172281754080521
0.0072367645052665575
-0.028236032805093663
0.021099495493870354
-0.0016616699583259557
0.024008923505542373
0.007183590650015316
-0.023365604701359906
-0.05349692224517363
-0.06591407623909161
0.004935126372486139
0.0022536853182265272
-0.02832408539391354
0.008794800668189048
0.025948607602563133
-0.020982484196912683
-0.1999531861292558
-0.05149869476054702
0.016290071417929226
0.006471636035575761
0.010886670356497534
0.045701731784032765
0.014244145190115628
-0.017303132410544788
0.03195994508959827
-0.02970445387761092
0.009800903715286394
-0.017867816745561312
0.01405448369678284
-0.006467795484371787
0.0012471374704233155
0.03636645752395517
0.09097486675153747
0.017542945749216256
-0.0070155696432338795
0.04624112977322773
0.012700389154938053
-0.035322208546988657
0.012060510917917749
-0.004243353807598805
-0.031215729710197305
-0.0017512999679061
0.015985555196432428
0.004274205382179222
-0.007823220658124602
-0.0035287236212159312
0.013887875142003821
-0.007924032253563636
0.0004015896229164736
0.00998898754158824
0.051714465311362603
-0.016592864521620423
-0.0937460552408087
-0.04682477073403383
-0.006978019449210501
-0.040052593712316814
0.025015213314586233
-0.009226787647748412
-0.010126056931759721
0.01160133725361651
-0.027119521043016414
-0.002271979037500264
0.02106913077056976
-0.029755253481519903
-0.05268364851035378
-0.031061325091750552
0.10273899447483835
0.08342809733324179
0.020850186633450476
0.032501946477820697
-0.033843866386554934
0.013830009313111461
0.15707404829857002
-0.014074984249364339
-0.0056948087508608995
-0.010642103193466484
-0.029376490912038374
0.005986855886679584
-0.012247234201623809
-0.049044764479647264
-0.016805057474389238
-0.037111067329678483
-0.03752306529524803
-0.01708147668898253
-0.017736949349575724
0.0065900292325226
-0.005765890102018106
-0.010759185865745997
0.23306394873971573
0.07821957027402188
-0.06009624578712151
0.005487085278846526
-0.032301062030460646
-0.010378340770325553
-0.010583617143972428
-0.016194977093206643
-0.0032671564651026897
0.005208526214423698
-0.010549089632937025
0.021018094268666465
0.011511162356873638
-0.018634146038900765
0.034636975201020465
0.06880761852497756
0.006374460760244864
-0.022272657775388272
-0.009685955959904157
0.0032093512723846687
-0.004452043695801551
0.06284375569794097
0.019184099828985744
0.024202360006108068
-0.015028640626892709
-0.02629633589570099
-0.01416933790054135
-0.011944291890254224
-0.0010951136001181153
-0.03725099211321089
-0.07387759811526468
-0.015185554886668819
0.0009151042719542247
0.011395564651333076
-0.033148252111056306
-0.03129099986269453
-0.02771652401147003
-0.011139998114026165
0.0023551101697296783
-0.040126143744783314
-0.07255139743865432
-0.013434469424029021
-0.007217526020467009
-0.015228373473826726
-0.04357512348019006
-0.03295586345126086
-0.010181373896863423
-0.0012902925203830133
-0.031300829891112665
-0.03272848945328744
-0.003639424307733036
-0.0646827576769991
0.08398629489392495
0.12142322095793807
-0.04336175816181944
0.04926723391694827
-0.021026056196883712
0.12052420209543575
0.10434774207701912
-0.058550432875681374
-0.017481499872067336
0.012348770656750954
-0.008069679804875681
-0.00984773411343632
-0.03319119351995395
-0.014052345750061186
0.05103209075458612
0.041060945476596285
0.021147492979546108
0.0916853086108765
0.03313432940781815
0.01285643652847732
-0.04115062327712091
-0.018071101576327808
0.02085864695683508
0.024858834363533432
-0.0025569234891265427
-0.019847235396744045
-0.04332539415710483
0.0665180530792435
-0.015390947604713698
-0.018005606036806843
-0.025348459190018848
-0.01467620670647384
-0.00047667752732587356
0.04585010434984406
0.01696591749240941
0.037466707392968146
0.0401381852555002
-0.07159412239686364
-0.05277645365617014
-0.0018663870229638302
-0.01715497810357878
-0.0771051360836982
0.0005913133556988369
0.013905086264862893
-0.005841150180085807
-0.020856772396076216
0.0034830278278793385
-0.009360195827832006
-0.022859758051504475
-0.035786032536268074
0.004809835924368807
-0.033511511264909206
0.10149755629602485
0.14177725066608637
-0.00939132182540799
0.024590415901155283
0.0014872257809840463
-0.024901507961000775
0.019799844230039835
0.10449279012851809
0.007295798750954357
-0.00376641368676944
-0.009262359977465325
0.014682797072427225
0.038340084700944355
-0.010596039875272547
-0.05467878517109619
-0.012825134791786147
-0.03821125121246532
0.006223232874623452
-0.11234635860163207
-0.12259358628466309
-0.014759560261474462
0.015831656726790395
0.02653414825794005
-0.026009630034661387
-0.10425192348566031
-0.09379726060873537
0.035800826250808125
0.0013346041627249675
-0.019324950140086738
-0.029833136274118217
-0.006534099298654139
-0.028199888954238
-0.010997211738233736
0.014360950862463652
0.06689772310871869
0.05119397810220521
0.020584860394259597
0.13595264546770786
-0.013695364568134355
-0.0035725109055847804
0.0019062198239120302
-0.000683759885756737
0.02893848677388045
0.010481372617395575
-0.06601792540057633
0.010360898332510074
0.006609745816950911
0.025302574545665278
0.21005003777382236
-0.023671209749592675
0.004699257103664563
0.003952896912439409
-0.05151398952690666
-0.011920546353810657
-0.016096261804168285
-0.031499812826406445
-0.0008869090061607638
-0.04003756644773304
-0.0014611374288617518
-0.04955182087014717
-0.00014162870902006925
0.038736697689780955
-0.005846907246359458
-0.04864021008909072
-0.0382788384765627
0.08780442052803769
-0.002836900650028777
0.05803594996871858
0.04684475547730574
-0.009665276833372403
-0.03547446484400869
-0.018445576200877698
-0.02071463979031445
-0.002300145698611939
0.05569121148426528
-0.017123045312264832
-0.021216200825906743
0.016911900748639623
0.014106415417526823
-0.002680508962731931
-0.02048537792835386
0.006321274823765176
0.009197037795272537
-0.01952510174422587
-0.03670839512114701
-0.000607212798359943
-0.03055187447161577
0.004130945165629432
0.010217241158845583
0.0022535796615952963
-0.006830118715024213
-0.024208809983206986
-0.004175541362527934
-0.002159841526557554
-0.04082552865890585
-0.07567322503757684
-0.02906781984159957
0.04012231650524881
0.028230842196081657
0.002989750787620513
0.01587239962240695
0.01672201994772989
0.02339009471874406
0.051660736247045556
-0.014384400020792578
0.08308927023433932
-0.026510007572949704
-0.03824726816178107
-0.0486939522822957
-0.021553469741077167
-0.0008357398468354516
0.14246237869965606
0.02093486487562415
-0.02095262392995916
0.02839517812625748
0.012933795037549557
0.0012664589777297386
-0.016134859948295322
0.0536125472084338
0.06313419535216463
0.03625557812510439
-0.012508118717311402
-0.02429765566985665
-0.019663858171142305
-0.018382230897399373
0.008830403521789843
0.01648648988031419
-0.02139762915992067
-0.003675459421301238
-0.01848630635700279
-0.01776818782524469
0.010938524416721027
-0.04106426064286829
-0.0520272686460022
0.015431327690271685
-0.01486950737960264
0.00023482723492947958
-0.025971090683590565
-0.004627029720492173
0.010261132824740997
-0.06238635256873902
-0.019607253999580136
0.025827475424924053
0.009292339941679984
0.03638512369526286
-0.03753722462624478
-0.030087722116693416
0.005135304116332355
-0.021873173450252918
0.02951029966105983
0.03207862652704468
-0.01051235298608103
-0.05587609452834803
-0.017111152670646498
0.013462580791174199
0.023938831807038482
0.017394696007798395
0.0024331292607992685
-0.051520391760931726
0.05244597186929961
0.03191991456479415
0.017810488689036365
-0.014741202537332283
-0.01912630334606229
-0.00393298397756982
0.02192833443320343
-0.009066208875544915
0.0002765851857229801
0.010165681905726419
0.002767864482333109
0.005406996616666369
0.010459171880248298
0.0073765860508054355
0.04905107982139396
0.06631767987362895
-0.0032897072103271513
0.0025699742997358963
-0.01353050451671413
-0.0207456257200289
0.0015115736930368378
-0.011130221102642729
-0.027728235397433958
-0.03153321812855404
-0.009771785317421714
-0.04383319137464355
-0.05833362239678024
-0.00822875248537746
-0.026605839878181523
0.04006986151227376
0.009662208215349096
-0.005953335071070378
-0.006694383100465835
0.0009897558589610474
-0.020381973188323205
-0.027985341313443695
-0.006010600303370036
-0.014646134959995857
-0.03151484390573367
0.001212192710144882
0.11524284788386262
0.015807853067588515
-0.041338688395816094
0.025553921943155658
0.0012668260454695341
0.021630095608888737
0.0380937523571606
-0.052798724090843296
-0.012445957128381844
0.06096199843351826
0.021115127500231725
0.029563454520339486
-0.036459025735178424
-0.1713687368399245
-0.046001702302314124
0.01499790941886301
0.017990869339684898
0.1601987357670966
0.033970662332690596
0.08479842473830473
0.013184034797777845
-0.012525816474603166
0.010044059849135251
0.03414460481198896
-0.006881039171223696
-0.011201564054883621
-0.01719322244492456
-0.09031340189497022
-0.021071139300012656
-0.024748123317529916
-0.02576699211470324
-0.04998573995981669
0.10672984285676704
0.10556893032657728
-0.053382438520802176
-0.013930904170070776
-0.022578087315841548
0.005609639388610159
0.022192194188031224
0.022137501568855418
0.005852172225926343
-0.0046129916070352895
-0.006187210141182891
0.042307431228204594
0.0030762864723636466
0.05131369672939378
-0.10244022252307605
-0.08279547956700181
-0.015338674414948248
0.017977695482174056
0.012377397823014813
0.03808999665968241
0.02808678044312738
0.007695002704659127
-0.009638807290991827
-0.014798997633023812
-0.03875932141605945
0.04505094826586456
-0.0015650643138275906
-0.13844514939447847
0.0047186920210041715
0.039382531997357535
-0.011297815971497717
0.02444614928320044
0.009705501900084798
-0.005221214131852042
0.0484292603715266
0.030339364549479206
0.003966558878771566
-0.020578073447996833
-4.8007571773559275e-05
-0.010172148707604117
0.018464973501589686
0.008761035288432332
0.004357348314583403
-0.01033127490514515
-0.0074231435859852925
-0.01364946698217723
0.02220205922268251
0.012249012507787567
-0.020345223494765773
-0.0052995476043789
0.017700026037608556
-0.008087275741016255
0.031780076290726295
0.013281965525159638
0.011523528846628937
0.0074463166445657486
-0.0061539959982168674
0.0031163431393896783
0.015539011307510115
-0.008774557632439409
-0.053258645106272734
0.03257709837109003
-0.0949042903786115
-0.04499771871646737
0.02685817207167814
0.004858350406743582
0.01406976097991751
0.041529687963160845
0.032178340044631236
-0.20141151561133103
-0.062293997383350584
0.02162847298576649
0.004199911641112708
-0.012675639145362448
0.0016149112477284507
-0.034350798850851634
-0.012326142694048648
0.006886270479837095
-0.0025338708133373225
-0.009797939084105539
-0.008802951002054683
-0.016541857602715492
0.003213194675530465
-0.016172029946054815
0.014960257321430519
-0.028292179204011003
0.055181017325546595
0.13541384190747985
0.025345337417937867
0.0491439541500204
0.08417077692271492
0.05038940993591257
0.026350992553582465
0.003858191356009745
0.023952271309708135
-0.002077133516267221
-0.04068663678689283
0.09518884014643711
0.054183931621012454
-0.13705839166646652
-0.07867441309069481
0.04631417392921533
-0.014208492423129687
0.006220456320044909
0.03821636131862549
0.002669188747471005
-0.004267320612826968
-0.050835872397916794
-0.014012532476023975
0.01671775594649259
-0.035656511755153164
0.014701289700195576
0.023616529010244733
-0.030507540955006785
-0.016354938909482763
0.07579849768487075
-0.046399354371712165
-0.03364573096521042
-0.016383221521255376
-0.006810327621516665
-0.008999893484602497
0.012189580092331408
-0.004743094547996478
-0.023118799815001312
-0.02143242306314274
-0.039867484305852824
0.04321863803054848
0.009807632436423097
-0.03554943419403028
0.039956620750684145
-0.0008027661984880358
0.04770524891256375
-0.027056417593112884
0.027411919912770925
0.005792776238623482
0.021971230999417623
-0.0009649769489401584
-0.013021083363558983
-0.0005861345279465013
-0.017447733178317285
0.02618284513239849
-0.033514104851532125
-0.0349856784698544
0.020678174399037783
-0.04007630614991321
0.002313025884082605
-0.017063092687332398
0.018398547671025688
0.026034780821382438
0.023636675882606942
0.023967786180117447
-0.15022473555134797
-0.06105968448464628
0.012529708637900375
-0.040045023182579624
0.09649374075613855
0.1258051479274414
-0.027428319030667038
-0.08374906551409268
-0.05442692081310675
0.02823955124851962
-0.01693095147621983
-0.008772999192152945
0.2119312073363398
0.051507671294145276
-0.00982677426497548
-0.009808272803671953
-0.008213105269659871
-0.019540153085872206
-0.0026869524963272326
-0.04098427276366691
-0.0006576240161780964
0.04611514980512969
-0.04311519477308711
-0.015334254087807165
-0.02233731365447794
-0.04242392632388817
0.00886450633917167
0.0067345665829951044
0.003503975933041741
-0.022910794830735624
0.01588101424551122
0.014136753319635249
-0.027651309809074258
-0.02621780382969561
-0.02368267640737373
0.01835017715112043
0.012954636351940605
-0.013183754105897533
-0.007462410007224359
0.004331071009591146
0.03203275885784024
-0.02355280249003868
0.012165190800118887
0.02664459648694596
0.003205777740194866
-0.023511601566846483
-0.02466235390760305
-0.017021683613861922
0.08530714469400483
0.013382478778430016
-0.037641324179990616
-0.008284933078931363
0.004602145573680144
0.019133450984417273
-0.010645625267594218
0.04689513013772086
0.03410857485966515
-0.044701843271564616
-0.004719641664384128
-0.055803330446910354
0.032208578337661546
0.02122553723103674
0.12976848728540624
0.043590256032163426
0.08124842378376321
-0.0717504173811121
-0.14575236449355705
0.035379217886483474
-0.027915260500084835
0.003727589595421974
-0.047465424663957125
0.037350207083593386
-0.01976001348326415
0.04575602755695477
0.009933614967618597
0.013758779604326424
0.008423621227393029
-0.04911783355663645
0.020400281247668933
0.028979812162410384
-0.033017262435151254
-0.028879803602125557
-0.011923831696038521
0.0012383008707190044
-0.015244612969411266
-0.0029500612300653135
-0.018717862597575116
-0.010253715261581484
-0.0318402133734703
0.000274827810145065
-0.04484647995462718
-0.03148527091688509
0.030085302110013392
0.02143313518838369
0.03046241532896252
0.009616273391348261
-0.04131429241424529
-0.014899608800600136
-0.009536883844852845
-0.037399949886395265
0.015634990719798632
0.008857187367655473
-0.022567801071624035
0.00755475911013473
-0.0021314476656334657
-0.005775023245434995
0.0004758482523239565
0.17062057750089896
0.033031605604256276
-0.006824563871208998
0.01372481804834672
-0.03891109218356507
-0.0006984495144734906
-0.006543909491284056
0.009353205379461186
0.004448095100543871
-0.011080686633230355
-0.01865277531781003
-0.022781073490787247
-0.002264375034161673
0.07861451155371794
0.013824656251947192
-0.0264788525339192
0.056816276682628175
0.009058658273975919
-0.0006641583219379127
-0.03705404402287816
0.030421046249326213
0.06341713797713555
-0.05191418358538018
-0.07408131315593049
0.000579286710274606
-0.05992573774988997
-0.0068495644628281845
0.004976233355252316
-0.0010580215069675855
0.04722014470666499
-0.007341776773102154
-0.012014501596993875
-0.04098704428807807
0.0022376645069975944
0.004377747138043218
0.11662866073783626
0.033929611719154595
-0.07089062537241772
-0.03450774800629766
-0.01156812611264098
-0.02169410670295387
-0.01187588881596234
-0.012760457958975952
-0.03674406050621242
-0.02985241610217283
0.021206746436039814
-0.022100224781866507
-0.017495758254919815
0.028916532132471882
0.019777313695370644
-0.017985506158247257
0.010652050762247565
0.15594695366700959
0.016445421913586892
0.033467439753584384
-0.008536355257444408
-0.015825605843424403
-0.0045392199703987715
0.006474824896756778
0.006320156864406545
-0.018663691606560225
-0.06698645738508938
-0.008156864862543927
-0.03921382002562931
-0.050277868898511664
0.0031627353297540434
0.020257857341682298
-0.009111659069049633
-0.03369610073284591
0.002491449179112658
0.004131961827537251
0.014313756442110422
-0.03417182482515548
0.02592509913386169
0.0032303628239661185
-0.03332725506557042
0.06036063051493296
0.021281363885239477
0.06838957842455047
-0.02057457653701296
-0.017283679993984113
0.030656962211639705
-0.02015338665782674
0.01075988879531228
-0.07702351863758054
0.0004329093278586125
0.05432495651545317
-0.03385202678087674
-0.017996270079634655
-0.01903366972147399
0.0024714185965218592
-0.02008809838686984
-0.014734186357997194
0.010163751012066062
-0.026708235252090724
0.03991113966511985
0.06364095029067439
-0.014829277289067315
0.013733688479239814
0.046815661157828335
-0.019521428344024105
0.010760045674438131
0.017969260285984837
0.027217083278981008
0.0037967186603028473
-0.03632760307262
-0.041069447047585694
0.01140755437174522
-0.03767821791840615
0.003886564376134954
0.024700080510129355
0.03969146188635611
-0.012541063556691583
-0.002845306384568882
-0.02408454555487533
-0.02101612913110052
0.010110498045305677
0.04639152782654694
0.03694516030817662
-0.017413181443472602
-0.018282989690693804
0.0331623292422236
0.006325048618029207
-0.03205583201721692
-0.04454048542816515
-0.004615008077472889
-0.04692154747970697
0.002482821165690698
-0.0033532636471392697
-0.013335578819714334
-0.013483429266360206
-0.013036941073502053
-0.026426070696097304
0.02937706880795091
0.035080875759580465
0.030227645697020376
-0.024856658080869554
0.16473715896295008
0.03021370013790592
-0.025478092846475786
-0.029924917194970573
-0.06369066306338489
0.009981266526881125
-0.009135510589001345
0.012805144398007734
-0.016344252969850124
0.03276524126800857
0.12845901293776094
-0.011087812197052387
-0.0012266540425475998
0.02427519923054484
-0.018543925612638176
-0.025670158434896756
-0.0248828962199006
0.02939082840221237
-0.0181303304168809
-0.019587760839435572
0.06115985441566835
-0.02175315471913789
-0.07100825157871006
-0.05056150458297506
-0.08297578265947972
-0.06852432864658382
0.007228822899812882
-0.0019999515872614745
0.029885379027172837
0.00902342504259587
-0.006087612314905921
0.014981786948984607
-0.0373017735619045
-0.018047773771433212
-0.0006123388921598583
0.03235292111451652
-0.003906368959965067
-0.005002160412574297
-0.015368220890356629
0.01171246000992529
0.011812138120372136
0.017945626807579135
0.012431881333994494
0.022665626675837266
0.023671939928077514
-0.007815628064310074
-0.019629069350596665
-0.010187684548821506
0.011676629075935353
0.012773976772322298
0.004209345587232148
0.01870283738403075
0.05991198500142229
0.027637499866075874
0.010041816433919035
-0.02800518130232809
-0.032600726641408236
0.015554298943640976
0.014063390156531417
-0.022818356695163463
-0.017228817595831232
-0.026042433851785278
-0.060104460679963806
-0.0008935964987267311
0.031382881342878866
-0.03319383614576002
0.00044619013296234557
0.0320684178768567
-0.006063756523895234
-0.04321318584764935
-0.010272839496506295
-0.03423611482423454
-0.021838992666331093
0.04813296885613289
-0.0049378472552025895
-0.017143366234513135
0.047157803573832015
-0.002985422729583858
-0.006606495304319872
0.054128222772668856
0.03865741871873102
0.03499884430851759
-0.02680336811309141
0.025768917589083222
-0.01837454702492105
0.03169051352816292
0.010632572047341814
-0.028134062739762322
-0.03718141605007887
0.009962906671933348
-0.039686743655815475
-0.021720855622464997
-0.003644393179988237
0.02068635220077563
0.01568950055162095
0.020982306897607623
0.003496504130989874
-0.08709473496082262
0.05729225123434276
0.008607329086530979
0.004315633923839295
0.03316123250288082
0.02180014131463799
0.00905024790107899
-0.00711241362310568
-0.023278544577689908
-0.0036371955570666642
0.014494685665223737
0.016179518600410215
0.017763530735843344
0.027805853209507653
-0.007455731106216859
-0.07780026980959295
-0.03178260858859306
0.014226675735018124
0.019456513952109154
0.019635233845825665
0.02649828074778243
0.0012433054693261729
0.01895631639894608
0.015168923204067875
0.01582030147693875
0.004250483383637123
-0.004286363899171819
0.019767282169056637
0.03350531839565409
-0.024484648482040936
-0.022050385324429614
-0.02477055801605997
0.03942419631552381
0.024985657731789818
0.04634303198958157
-0.06912407858925372
-0.15414128070106434
0.033955832768517505
-0.01145183666849794
0.011836248991385787
-0.02213684129772832
-0.011490880756471882
-0.0038121424983909484
0.03403544961675304
-0.011049829102737881
-0.1811668688594228
-0.03678389937114046
0.06541099473052726
0.0023753943372307558
0.010815375664093437
-0.004683567745961838
0.008335718959189447
0.01658338028046334
0.01946151268244269
-0.04331319907671983
-0.013706770346757031
-0.006360060703938432
-0.012359208746400218
-0.014169348218997894
-0.0030712876579188277
-0.04353176288628498
0.033207297390292476
-0.002360089458527932
0.040384561235492944
0.06335484939216104
-0.004615438620811117
0.038559174653397206
0.0249406596828644
-0.0013174168726243884
-0.014604445629965605
0.08188910287962234
0.008705451979625188
0.0041650559020614515
0.03935573835133863
0.06751500862793033
-0.02056607013001504
-0.021118372011341858
-0.007824498939644342
0.005698311674628735
0.027491278198596293
0.003174149927606407
-0.017399827720201436
-0.00582691375971947
0.0025833524942217197
-0.009639108022533156
0.02128374749242019
0.00311742444409178
-0.008954819878995726
0.01383330902202256
-0.005734589179811445
-0.014158090111422265
-0.03689848762486368
0.03234345610165555
0.005461429298428235
0.014159935668308317
0.01720499026775207
-0.005890385221880877
0.017567472554834915
0.02375208730745795
0.0039829575098191215
0.014796577085454826
