0
-0.011613016098004402
-0.010580786592904285
-0.02352146325707206
-0.00011677201940702597
-0.016752659345244086
0.015668520944201212
0.011409338310493244
0.02997462629646811
-0.0026364978657223838
0.020632350581860533
0.10757332590750811
-0.08493896088094385
-0.054615793225030566
0.010484105839358025
-0.047160426257673985
0.011796984763673983
-0.037361207632221824
-0.01254078690903732
-0.0016832818921990985
0.019425821496673216
0.004028269880998393
-0.01415843013206583
0.013898168396059276
0.04883718587229878
0.009108172625171237
-0.004791006750360046
-0.033655942455646876
-0.012974427737443454
0.009827955795315804
-0.0004304448085822633
0.06701310937425695
0.05948713718573805
0.004906094976079993
-0.027613504027293744
-0.05277436919777293
0.002356881438107983
0.14833244526311012
0.01613345581480643
-0.02035622241527706
-0.0003934548744044966
-0.05145666905553584
-0.012572099127985608
-0.007321298197836481
0.018642070019481465
0.0072946935604244955
0.019098713455725086
-0.023293105035019225
0.03660516250674478
0.05273515892001962
-0.0171502547132395
-0.06121222590528017
-0.05776689441101538
0.017552101453387092
-0.008356360312289462
-0.03718613565130339
-0.031759262739358904
-0.002805433380977062
-0.004704747127774442
-0.01715794685000649
0.0837582738819509
0.09823263456141051
-0.0018130532104310086
-0.00587521092172458
0.019406268027119745
-0.05470245946573412
-0.03726211646894892
-0.006232518946632731
0.009713345990823952
0.017377328208797494
-0.014990067110518868
-0.003645200671622379
-0.005956815530404597
0.018958609325646535
0.009282178451518937
0.010225325297530148
0.024053034157062655
-0.07442058320933842
-0.04409285791724736
-0.007883469545869841
-0.0020696786138871357
0.014489568266534924
0.016000485461718537
0.012082785488929357
0.00548969617916757
0.049727742684975915
0.024459949976462326
0.008417377535519003
0.007871826807086663
-0.004363217588362991
0.008982563624684296
0.008794356180405949
-0.027287215420648114
-0.03886704286615738
0.00520042380686987
-0.11091139258171771
-0.07952191531525246
0.04341413563616487
0.040504690183696034
-0.00478073349879267
-0.040229491440010624
0.0036756822563319465
0.016032291999325238
0.038260299867258325
-0.019344197600519586
0.0067478946202859155
-0.005461530939787622
0.006259989107735248
-0.026239234317722307
0.046593155124210514
-0.014723301141526887
0.002545509454219094
-0.09591916047456307
-0.125626932597202
0.03917592143122646
0.007187666350679928
0.001835105419553986
-0.01678996948765334
0.049850783272132
0.01592208752746415
-0.012620354314059092
0.029103942515389773
0.06957799449105596
0.022722455763969713
-0.028995072204156064
0.004771284370298295
0.0016515809430019273
0.03276316508033431
0.07254813124375661
0.026121117704452156
-0.014520154444893952
0.012458287946626139
-0.03162552259710243
-0.03217823709344527
0.01434058638347107
0.053154158429202146
0.05777036687124605
-0.012301436810824224
-0.011242439658571381
-0.011404707987555452
0.03620215917004596
0.008601184339793073
-0.022566368730796423
0.02113351046660151
-0.00727632076123095
-0.0008802521641705977
0.009026033395438185
0.03730093539014755
0.03716704070211824
-0.0538320732893407
-0.0009489691505024626
-0.008587978347627487
-0.05714948722527776
-0.01449305781312838
0.008438179095701282
0.007482504231395266
-0.01565812310718872
0.02198986728216147
0.008827201665801988
-0.012855052154291714
0.012204839629076357
-0.005524352099691689
-0.015139212614859628
-0.014012902253978046
-0.033810091502090585
-0.08124852747975865
-0.06637151915157435
0.039297510483295356
0.01462510482069569
0.018747619013536776
-0.056990493125863094
0.004658196055799218
0.02177794899552751
-0.014302947726198065
0.03414711215844058
0.0015628705674452844
-0.00705967948725407
0.011551372230154825
-0.008245131902415976
0.010516062242478147
0.010091517894857177
-0.01836710412424412
-0.039446528469667126
-0.02329502466390804
0.017696451889762852
0.020052854081011984
0.02037562648424429
-0.052092541979572526
0.11036407808449535
0.0806508549806615
-0.02705563608420575
-0.012773897420131823
-0.14103938599948984
-0.010473902216052352
-0.02066451996182503
-0.029625908090466606
-0.058180142023851675
0.10771956723132438
0.052773074631028274
0.0055077053690475355
0.04050434565800838
0.019421625571746204
0.0027866093701675036
0.05623463428943206
0.025627638914866253
0.011540262536190643
-0.03240638804453548
-0.05268825343118585
-0.0076026112139421
0.004950141979211624
0.03851338226474001
0.008799089844232786
-0.023990156367832617
0.005647220117273273
0.009139592634857516
0.0070569837620177425
0.004244072368835217
-0.010096535374439788
0.04201182070650054
-0.0014743350926279789
0.05738647869096433
0.0693741926183043
-0.023869425089970715
-0.046444252771422924
0.02037009709189103
-0.0747167035126584
-0.06905627403399947
0.03125669144633136
-0.09115557774736434
-0.005718609919047106
0.0037729976482802356
0.007531026088561181
-0.05712846488564444
-0.013539538202967698
-0.015755805387698874
0.023061386815060824
0.004405536714470553
-0.0034005309103562497
0.00859932850754066
0.04191313732088322
-0.016300345116804792
-0.02336079191693276
0.029853520009049003
0.034180013392194855
-0.017250648607045428
-0.018203226584897484
0.014932541341135077
-0.0004480924772506762
-0.0143785923660527
-0.01177808696616679
-0.031410281284033274
0.07942238451099677
0.05430956462585942
-0.022202877140076887
0.006784344592380273
-0.015345322552044337
0.006700844298995307
0.03571648373160593
0.019635930551831993
0.062156881934921825
0.08795881077104489
0.0008769457135471301
-0.039606782149008535
-0.01523941807558616
-0.005560266583136728
-0.01793701227638131
-0.01426827291830906
-0.02112824582124953
-0.03348059879055013
0.011690357332636497
-0.005513057109750409
-0.01319883151848335
-0.02759279196239684
-0.028569314560262515
-0.040994257811680146
-0.020368213963216808
-0.02233342139824703
0.004166982106936505
-0.007163551493246935
0.023395190549328974
0.015285837313684828
0.027955832260850844
-0.010024868881328832
-0.008584995311687608
-0.026810894136129505
0.018336691882983324
0.027210207520384812
0.007341490072323352
0.0013007933265735828
-0.01489136856495449
-0.012262761080043013
-0.02143770368408399
-0.009049233668838573
0.013566772470027114
0.005916531434407276
-0.0049228611983939225
-0.014406855658214339
-0.05293301322006833
-0.04289548889062261
-0.015674436784525663
-0.0264035129560933
0.022072866530385947
-0.04317789409425582
0.041256471042170076
0.020252119708038665
0.03434119527871253
0.04811602673451172
-0.009549398007244237
0.0029462735790000034
0.05039081235192223
-0.005623874521703741
-0.011141925544217413
0.045819626716958564
-0.006592620474142593
0.03495312243627035
0.045702017880349846
0.011470831434473682
-0.008046047862833866
-0.040797825664562505
-0.024849936189091777
0.02903848492424727
-0.029271953904460628
0.004619074820185935
0.02910812367393125
0.01441620629347498
0.06811321652163943
-0.001276922506274539
-0.02149960220355221
-0.041317054933400744
-0.03013276478862647
-0.008373837985599084
0.005853602385427947
0.0181696652251839
-0.0008943255449956656
0.006821204807648977
-0.00752936818959933
0.045930301911181436
0.012745339390512438
-0.03717478911508214
-0.013123824616761915
0.01541795745383245
-0.005704269354912077
-0.018205644522839577
-0.030330117148182144
-0.031612321394928
-0.010001075889833016
0.05694639894078637
0.0032611861729468557
-0.008652097205012893
-0.02170983458443085
-0.0004035900101205906
0.04750737242481546
0.006616134695234371
-0.0330982014119697
-0.02559103769262576
-0.030682476361007977
0.05563376717155648
0.06452391497648505
-0.026583459222208134
-0.032264793403374
-0.016657951078549355
-0.05640059418857823
0.07735467907744537
0.056032570264240335
-0.04656364708882579
-0.0044689841550317674
-0.031352390208015585
-0.026290240486018142
-0.002443973280485215
0.037290565680201164
-0.017279442037834058
0.0026564112424781517
-0.02694003264269758
-0.0027697344108621185
0.01909871726799936
-0.015206675447783449
0.005367206015123356
0.03044102813168002
-0.04178699098613611
0.055866850306938894
0.010641169677446272
-0.021913413430199584
-0.010795510392445421
-0.06002487047903124
-0.03888233794895882
0.005679367294060331
-0.05879270763756306
0.017590178540767075
0.07685354949733812
0.03421281840833555
-0.03810099144686349
0.006086437208712277
0.023875024794475785
-0.005876465901111491
0.041552228705815424
0.09404631480134476
-0.014329295079320929
-0.025195347876060318
-0.03011061353782134
-0.05070892310457095
-0.023117917990956388
0.04623464948817636
0.008036436015180205
-0.031540570409846376
-0.0353370539846002
-0.003820986368451004
0.000857671240964763
-0.02783457358831206
0.0038303198757139133
0.01498005755776537
-0.05227929574213099
-0.03866907627336878
0.01708585099771573
-0.0019152419476557308
0.04742913404732839
0.06625473114243195
0.09146965422836
-0.01716410793585829
-0.012569487234858404
-0.032580744025041665
-0.014834044417698674
-0.03763528133873418
0.1128520212313269
0.10509549204098309
0.012939994893512236
0.007043438887865289
-0.040457550108335585
-0.0081513100275518
0.04665450199706646
-0.011952336617564547
0.0006477131793421963
0.008206676678633916
0.0010742585925108095
-0.0032245628678065036
-0.0616738751406483
-0.07598843039980854
-0.028828862810670337
0.028779084676972846
0.0009573759873919591
-0.0009185043029552648
-0.033439387026853284
-0.015514487193328123
-0.04601652125015311
-0.0014967106260537994
-0.006824330212496924
0.03463962455635113
-0.01684593548414366
-0.02674104862188022
-0.01128622918644612
0.01481608964054234
-0.013345469081411555
-0.031744571614397706
-0.04892951557077162
0.036636358526827374
-0.006582699364022604
0.021966024395137618
0.10792204177618045
-0.007599905851154739
0.023012683326437192
-0.09008976113894722
-0.030101989062039047
0.13182116689357795
0.08666999716411748
-0.030457674488227095
0.0009718412534255392
-0.024933663010698836
-0.025611220963285473
0.005109022269639696
-0.0007855869313964737
-0.0027302719551224896
-0.0400685768804247
-0.018757518048308754
-0.037739631307880904
-0.00034185749709810247
-0.03612692210046156
0.03950348010073927
0.060429217102545195
0.003512022952924934
-0.0029609342001700044
2.590462142608768e-06
0.002957061908871241
0.0017364913704116054
-0.03113019299195088
0.009044774210510295
-0.0359025045840779
-0.05245401492350604
-0.014299357013076762
0.011043019966854327
-0.015575745759028151
-0.0873717705121208
-0.05286438416331733
0.16291065239172492
0.03314012532692567
0.03353233861496839
0.09285785569021407
-0.024953688744584025
0.014690423100416747
-0.002866100317032095
-0.009315264427699324
0.04089505057896922
0.0944846245901079
-0.02531021452415961
0.015450206606972786
0.016902692391363883
0.015055622425080992
0.018036341639945278
-0.03978025221906616
-0.02242364765783534
-0.010700903282438931
-0.03369677908249003
0.01318900417413301
0.063084401638665
0.030012553318851144
-0.04574086355207432
-0.00674556632434716
0.007334342569946136
0.03470789259603553
-0.11190602754400718
-0.14236086860441444
0.02396058752928349
0.10953036442259131
-0.03295149403239908
-0.0036987197698697925
-0.02231340829685426
0.03683474505154929
-0.07758076246014238
-0.09639027338656234
-0.027550102790548096
-0.012546803611273784
0.041355816957191545
0.0063029373174209105
0.0027302510801047995
0.0020925073860857237
-0.03136610625148025
-0.02168377114213637
-0.002668924916965135
-0.05748440427322676
0.10577915796581654
0.11826221769468429
-0.06304969489446856
0.03340400103683013
0.04362436840710921
0.025452870402431202
-0.0007029719501373326
-0.011119623751105997
-0.0026313668165199957
-0.004673146395734745
-0.010261153700416314
-0.03565447079564925
-0.01413618055853266
-0.015451234879254941
-0.02134223212982486
0.006971224380532572
-0.030493273814310797
0.00810458428541631
-0.019931099973466898
-0.002883839975720985
-0.015262624096269887
-0.07100858304593448
-0.10337517933785598
0.1677525284200881
0.17342651281171634
-0.064191251138175
0.03170157846225035
0.021492273343964644
-0.01921300649587951
0.03135823512508171
0.007126496594563925
0.002425152895532202
-0.011466742976920522
-0.0332384516334998
0.005743131897433987
0.004163416553058437
-0.00829318951821003
0.026211533981543526
-0.01451830040904029
-0.012795829134146241
0.017845487111173206
-0.0006252653860031717
0.003775886570988693
-0.05480296213982557
0.003856290082642003
0.007024934313557836
0.010298820949661593
0.0500216710848628
0.049657801305482266
0.041078893029793014
0.002795822123717835
-0.01476750252157991
-0.02755319419197139
-0.0066053957799407075
-0.06199160598812156
-0.05510325262166263
-0.006033130966793072
-0.01188388241550895
0.027864686303314696
-0.0041151392875955085
-0.003980516577520893
0.0019041536315359418
-0.019487698481929414
0.02866263335551449
0.008865400103166705
-0.030633750994860234
-0.0219062827492951
-0.009166982794058115
-0.029502754385673836
0.06652708498256393
0.10231653291162365
-0.019162662182215053
0.019884493371045517
-0.027755493823153888
-0.0037242226133950653
-0.06654521648907724
-0.057565881515102876
-0.0014325856761211295
-0.01876089004036812
-0.07185412556367911
-0.011657503125731826
0.06334869492735468
0.08101934406723517
-0.018706802518763093
0.0013227372465137532
-0.021722701068768228
-0.015973363160768833
0.017507712233330544
-0.029043604877155973
-0.01719099719328082
0.07015235368808481
0.02702760213523079
-0.0072977801905843185
-0.05145106534562473
0.07927305746455457
0.05038662751747347
-0.01807252848862694
0.03891058267376485
0.0022377491486724388
0.0023778100203920506
0.06990137858426414
0.044588155123442046
0.008471954469378712
-0.0031742906875004756
-0.013684479372634723
-0.018000376607870943
-0.00865072336710787
-0.03824306078054568
-0.05766089529776787
-0.03325415548610344
-0.04010657601451639
0.009837663702467102
-0.04895016889520388
-0.008014522688513914
-0.013826515362641803
-0.02234923521105736
-0.025148663630827038
0.15695869121312567
0.07705301508731183
-0.010539272739409517
0.0052207522251448415
-0.009365053783952216
-0.016648561978198414
-0.04687468523969341
0.02785815305780622
-0.04356147862286425
-0.015195199223222914
0.036683313395854046
-0.01401552607081582
0.001511363029871362
0.02501881544512741
0.024182810447864977
0.01617687434563785
-0.05218251585063099
-0.04139958637534117
0.01759384746051571
0.022873429589606906
-0.003667945325986249
-0.006790483694999184
-0.013507677166247773
-0.0003879453095795211
0.01797413752568776
0.04180143799723019
0.012631089456625121
-0.004342822846419088
0.006021156998377681
0.0023057498451453983
-0.001604251115218084
0.037925812414595333
-0.03792860887502845
0.015056248900672843
-0.012096048341614552
-0.017029787906752986
0.049874517634739705
0.08839050575035667
-0.10418972134185409
-0.14922208311131593
0.011320776090030965
0.06121528442827334
-0.00526062376395947
-0.14933490924389559
0.012700954346472304
0.03699075747924543
-0.012621342874337827
-0.028748675112631124
0.03668298612551733
0.008143297029271404
0.03267649570834931
0.03147899479980577
0.02541115949635552
0.039579757596323734
0.030658458408469393
-0.1286132244799458
-0.09266755275049042
0.0420845338214141
-0.012976579788726125
0.004731084513456255
0.07080675934604715
0.049997519555943386
-0.0008096117274978468
-0.013704461186396096
-0.0282156994162998
0.008123627607601923
0.004180069748554246
0.01750492795213362
-0.011631282584044476
-0.18334216929984748
-0.014116379019575442
0.045497897202695516
0.0052070693522105
0.030843407820281075
-0.0002750197973536812
-0.004365583013531267
0.033655526827307075
0.04837151904821672
-0.05313257478297658
0.06666035644813102
0.06792239323252718
-0.020657188538253386
-0.015751616003630387
0.03616358818492338
0.007389416575250999
0.026942060307542048
-0.018435157490456676
-0.027603836255243125
0.0009696915406957919
-0.028200539749207332
0.01281318088482259
-0.013714879610558655
0.0006802803332101136
0.0074520977819788215
0.04417225970987683
0.004607468922473008
0.00574021775326439
-0.014405238294734387
-0.047200613264776196
0.027732228504293615
0.020340708328882715
0.04269171025296267
-0.0024655800214563113
0.017014411499675437
0.0232290130558184
-0.02015177329595484
-0.02122712327250888
-0.033177238546642215
0.006472272243013797
0.015700622658426616
-0.006245119986723145
-0.0020989826067869715
0.031667859000576226
0.014518107877294188
-0.10383659173836539
-0.0676061695470084
-0.0005659176649312746
-0.03984712376497209
0.07675835095213993
0.07048249736205696
-0.10626070933554124
-0.01726757560115531
0.016194433950262512
0.012850182192449384
0.019018153904496394
-0.024919812063055654
0.01246947294122879
-0.015887562356156307
-0.008562175556355042
0.03179260693299325
-0.01762524511010274
-0.009479311969714313
-0.0013147661861020227
-0.03437165834376217
-0.012468956762849653
-0.023314232485621766
0.03546520527175625
0.05018744552553858
-0.034669357071216315
-0.0002892720480740292
-0.01639558659290217
-0.02069034499125419
0.05124972512063086
0.014505824462342646
-0.007124791550951463
-0.015726304887850075
-0.0070676664673978646
0.03254885148673838
0.06244293801299203
0.022640956754904597
0.023284627276684903
0.017819734222761067
-0.019060225410169027
-0.028699027265106286
-0.01946430958404797
0.019825516550392774
-0.02170917496599258
-0.025823557812911263
-0.016955295598873467
0.009896433658590002
0.04815645351332923
0.018427066190343618
-0.028997723914473257
-0.02576820415241871
-0.03352372329029056
0.14129137392357993
0.03042016346730644
0.02022597566822673
0.009696689650764242
-0.027505912610297886
-0.06588345466063837
-0.05402765613671269
-0.020156793192397507
-0.02354247821893917
-0.017504592153414093
0.07678859436295125
0.0645252504513383
-0.053850722209503134
-0.001523111535212428
-0.01648500298984603
0.0369255491416288
0.03622771436628322
-0.0043184911073884695
-0.0463394871463725
-0.07651988009763158
-0.023901405916838127
-0.010746561017071379
0.007397584770509505
0.04545125621971988
0.003269482139861173
-0.004272237505340147
-0.02743335522590613
0.07789143073483616
0.013645919597111407
-0.05328370368175634
-0.005342998362798918
-0.008748740699891875
-0.0012568974339926223
-0.030925268514300653
-0.014781991250736563
0.006948151415133795
0.026472613191174693
-0.022113181286308573
-0.039397815999589386
-0.048272834720963415
0.11300464081309612
0.05540336759773487
-0.022155395213893224
0.026349344812991213
-0.005790761116327459
-0.09219921795661881
-0.028152192050821454
0.050142396986258074
0.04248012608745978
0.10492692860551939
-0.03382780410068898
0.021400302916643608
0.05193297691009161
-0.02317718505912552
0.02296818208060672
0.0304863109574132
0.018670416217067238
-0.046387821077428566
-0.005002190843945362
0.003974179974727891
0.006137229140816264
0.0029006586192588395
-0.051078095836759305
-0.033463419911229954
-0.0033282773018874366
0.007020799370098314
-0.05495704954144467
-0.05565466031413161
0.05785558781017719
0.03169403037114632
0.014713693996840709
0.022136868213358685
-0.05388126939933814
-0.039110825079918025
0.02656643151388816
-0.039775361131826635
-0.03043829044676656
0.01568078428472086
0.0324615620624265
-0.03550250266798483
0.041717344452961755
0.055437898495661164
0.02018902258756691
-0.02736537083896275
-0.013431284260680191
-0.02480478406729775
-0.0392592225989648
0.028723963789579463
-0.026936950451478904
-0.023304250209124515
-0.002261519921642984
-0.020663504522460664
0.013072838326350403
0.0229431181077061
-0.006739959626290144
0.021136531691927436
-0.014559654430379878
-0.0018513501828249942
0.019053418627156732
0.060580887842365455
0.004854080521943089
0.014945023392497862
-0.029900769962275257
-0.015212524609734605
-0.01937579711330886
0.04320744800583302
0.01058876057858006
-0.03732825504705725
-0.04476213088334024
0.0009558904656120896
0.02895458680369603
-0.08776369538838015
-0.05643664955885732
0.0071444474709540726
-0.00577258357469177
0.017204396270119902
0.01685647615846822
0.05716340693596994
0.011175706088852743
0.048645809789196345
0.030631564664074004
-0.0016170496770088348
-0.0010960313206194372
0.008991317197982913
-0.034025224901839755
-0.05029134728631358
0.015457359197716996
0.046659837949110564
-0.002617995065376084
-0.014121054810366102
0.02948529904983474
0.0030604172477282907
0.003297913030144885
-0.057146821244901225
-0.026814731804170388
0.059877759539115526
-0.017138960076574027
-0.04192377184466002
-0.010927838515694418
0.011236211356253974
0.05772413171470995
0.09415649810073426
-0.053137955233949125
0.010147965557453308
-0.05365253192662596
-0.06286900513205217
-0.027813524041543296
-0.009325000011052733
0.013645541304933492
0.007922592204359232
-0.00720767389947708
0.008858781968736042
0.026190295780017046
-0.024048385542513248
-0.03281618216118658
-0.008234159877642817
7.626933080984764e-05
0.008782880258567643
0.0023628159418895792
0.03164792739273345
-0.015933015016613417
0.008628467279888152
0.009031375146529607
0.04646294913207573
-0.025086688475652364
0.04823714304750843
0.13509207615162674
0.019533886470272505
0.02426857712256541
0.004970405508930937
-0.01332132887673145
-0.03103565985810921
0.0032232238362261273
0.0017343303018150177
-0.03467730263867652
-0.0073595306517970915
-0.006282905175432078
0.032471812433312645
0.01337853764560555
-0.05873888994228544
-0.031504711406254673
0.02796092753356888
-0.030807219957220723
-0.07364627083595177
0.01099733927766841
0.033419126091955326
-0.018398037169568164
-0.02377922890345059
-0.028256578627217487
0.009104750880303868
-0.017695908488272686
-0.009027607883768366
-0.02154525708884002
-0.17350630980062856
-0.08715966005655199
0.032208090693870824
0.07138353319342701
0.14463623832952402
0.20396774960135794
-0.008326083043708351
-0.03133645176056488
-0.02245044062932503
0.05613845977581925
-0.03640825296522344
0.011142878293242127
-0.03610422189380514
-0.015565758921810492
0.00028712070116814246
0.028634179895048472
0.02571368314896416
-0.013564721908182668
-0.020142617492359717
0.03435586984202383
-0.03373523458494199
-0.027137098783012563
0.006305241736211174
0.03902663292000066
-0.04737392560878331
-0.032487614491411215
0.010508501566593862
0.0017665183845537754
-0.026782675290662306
0.009182397116365268
-0.03831778810811214
-0.043990448709891584
-0.05120709030713421
-0.016306566900180296
-0.006757084086690474
0.013337944167886995
-0.02935463810340611
0.021727424137971078
-0.024867764164064148
0.1547478265074133
0.06122807843727083
0.04072617552807605
0.09396345809014951
-0.023978329418222283
-0.024965248843563607
-0.0030686800599829286
-0.018050805585735224
-0.01051869329195831
0.050963634552230755
-0.016776618099995637
0.01819345555795805
0.02950893322790828
-0.011414468097536006
-0.012630931355590307
-0.03403183476366019
-0.049014060281187766
-0.008653031191747425
0.020594809698667366
0.03524866817182524
-0.025463633988164404
-0.07598118984366832
-0.024512266961345473
0.009447941976573577
0.004495588272339562
-0.018804737671952183
-0.021546558721291444
-0.01046274542709379
-0.026332655417828418
-0.03961251870575902
-0.04801197474298438
-0.01639335197150183
0.059499601591571714
0.18834126496263964
-0.024562986839886822
-0.05234102076729502
0.0004567230582398738
-0.003438933900251016
0.014630081463006962
-0.038262236116822085
-0.02982490040118738
-0.0030996599620344606
-0.006881200842556076
-0.017191830354460508
-0.01187656615289234
0.03309967695489139
0.043763721505892104
-0.019861651083212747
-0.008417204143193783
0.053232046955174
0.01871551570227976
-0.005895738036058065
0.02631301010080276
0.04382745165006276
-0.02094154706920005
0.028759506995028643
0.07467331887258406
0.04709993563486744
-0.039579091416573606
-0.015499230340273201
-0.022945936762612848
-0.0041291591719008775
-0.03574396991625204
0.006088960142479793
0.0008786693766405503
-0.00800611869396011
-0.003718192139765519
0.005849792253669227
0.004345010962482533
0.014204605285360406
0.0035836378145806154
0.0018056810052055222
-0.031608863460409385
-0.022540584436434866
0.0036362798391001584
0.03142471091268964
-0.08963545443687189
-0.04177082041737401
-0.05902171344187441
-0.009310053009529274
0.012702069620231531
-0.011511455295747283
-0.03418974056673092
-0.025915426251771772
0.037899380772438256
0.03308880757363387
0.01887892035310951
0.014839828587088613
-0.0005656540704937545
0.0247920378849261
-0.005258946631319036
0.0017391011407563123
0.042480590748386574
-0.028740765579747293
-0.025559144268677336
0.041017591591672335
-0.014083405802495147
-0.02138195388695889
-0.010361129102279843
-0.005108909164267837
-0.02555397563418654
0.006281192323260697
0.05946549750933233
0.004287032772973101
0.03838362488327558
0.07950985473797846
0.06067450070226189
0.026551175859334232
-0.017277372888736812
-0.026607905043077737
-0.016347193590502837
0.029113039660135204
0.019369153809199333
0.02322163875051556
-0.09380265637351068
-0.08763858641251238
-0.003326179691765658
-0.0382370688071474
0.010679214117583992
-0.008468820281765209
0.009546265748362273
0.05689422534029985
-0.011835806301802254
0.04543232941168287
-0.009136619360668596
-0.01286706516651401
0.023385921382169314
-0.0040522667382452155
-0.056938515193124845
-0.0782111143986343
0.040015123504604656
0.07360380624301457
0.008023723397271193
-0.010411388807539713
0.01742265274489441
0.05094614777364217
-0.007793741925594671
-0.01669790625245633
-0.0442008921384546
0.0011628868101245034
-0.0772980945495552
-0.05629178427825898
-0.010076779317843303
-0.024370499733966638
0.0013863270256913507
0.014120511523767908
-0.014590417784263086
0.0025940411909038358
0.015527958654403682
-0.010878536847629891
0.013359843157700887
-0.010588966546215625
-0.01038661453145465
-0.001976604427917736
0.012464771084722121
-0.005839829432619754
-0.02022126200099476
0.011170795326387851
0.023243136154242026
0.0074011188636876075
-0.01833751696758073
0.0940905945658783
0.17863041670121352
0.0839340824191407
-0.05899852653743768
-0.04758988521259557
-0.031120921628934182
-0.022900350388595885
-0.01723052272337356
0.028742542763069895
0.02791804854761092
-0.023870135432561147
-0.019108409024564014
0.0053638807778353
0.006444923214720039
-0.011414337011990247
-0.021195734037978108
-0.04902698120697239
-0.03783772881231326
0.009578140798281056
-0.034148697501554304
0.043945192934843946
-0.08519003066532596
-0.03799654776893285
0.010153130637575152
-0.03433653246104432
-0.04341695035244608
0.01856858047277158
0.007093409011658977
0.07018770139051668
0.07728984737229597
-0.02800016679650926
-8.462313700138553e-05
-0.006547346280136328
-0.03735766036095858
0.006588939920962057
0.02112740458502887
0.022429544427404493
-0.026456267821127373
0.1367076940784362
0.051612341126778205
-0.020369149742921703
0.07224585966353538
0.006438081182424806
-0.01848883226571058
-0.0257776096850662
-0.00703006980317623
-0.021177210063700946
0.020298781213855855
-0.014454398080166794
0.0504606196899872
0.05953337291707478
-0.006240866096285395
-0.06970119233135338
-0.011890132343448526
-0.018356838972027945
-0.054583881737336595
-0.01498474037899507
-0.005680193398027838
0.022772926670667073
0.02335962754066282
-0.16733647048523023
-0.09551294405192169
0.030076546121577
0.017209670742789326
0.028330465776747672
0.032056564640248975
0.004340395587510461
0.055957251179091484
-0.010812322963932397
0.06780927429583808
0.011709434302496307
5.156323571231453e-05
0.04219060294037734
0.0005775996615973604
0.03981513368128748
0.0023951381519137917
-0.020739524059630834
-0.022312188736731322
-0.01131042908555265
0.0017484975986539425
0.04569282564944211
0.00012610381213927943
0.012347119607929245
-0.04380604294387743
-0.15456262199304413
-0.017156111223983132
0.04194947165493249
-0.017198200171922244
-0.04435475359250561
-0.031210062619987686
-0.02227830495214779
-0.02593775165360433
0.0017088985039949926
0.024147044627611837
0.050718030466156416
-0.009390189753087507
-0.013075684931237393
0.019312219877176923
0.020412809837233366
-0.05475885972084736
0.013319731176631287
0.038259457554337725
0.03155433918940432
0.02018160468681916
-0.055187660993117886
-0.06892040891924332
0.016222903152268483
0.003805812526500525
0.0017389717101502244
0.02136342836977448
0.014079425651483513
0.011213398856336437
0.03448150269702478
0.01694861704170623
-0.01256847113356426
-0.05216505259534316
0.06214136281562671
0.04051637912975867
-0.0070099590256514875
0.08503196835192109
0.00852412687797906
0.0999314047657028
0.027422293169874382
-0.03222353268137599
0.015749809295078347
-0.13035812849541908
-0.053758437263016635
0.043504304935498554
0.03150811737843741
0.00861271751118453
0.0010333009812987324
-0.03330548581911398
-0.006649698923212722
0.002250432412365361
-0.043829235912764886
-0.022983583972729888
0.06742800921476318
0.06581396362223205
0.03835622073144043
0.037151688440698875
-0.017157956077742842
-0.011271779638178119
-0.020382600557642135
0.013251801168547139
0.02755540637953111
-0.007808435742704654
0.05066508221790456
0.023736104872947514
-0.1189606715213158
-0.04989721864398094
-0.005772107426797133
-0.027967104873114802
0.028802051379617416
-0.05204169303957333
-0.12327845759044342
-0.00025865793623872427
-0.1188340839130665
-0.03362491906188758
0.03469833822031293
0.006634001926757502
-0.012917280072441438
0.020268317655631144
0.017188296679429598
0.0012318315344147393
0.04019454370177379
0.005150285024580378
-0.008736024260396415
-0.009229465397223992
0.04025947089454786
0.06548609419879584
0.007233678748647007
0.026502683781268584
-0.007026311471943014
-0.00499318468037256
-0.0028386427659130215
0.034527648411883834
0.05640093690106538
-0.05360819320660456
-0.05329410276198859
-0.04521603511386704
0.012692185164892195
-0.025826353442922657
0.10471578379596601
-0.0036698819110378496
-0.0861446802836449
0.0537939842931559
-0.004000929279739345
-0.019188437663770076
-0.0207044092368129
-0.011503051172450726
0.0066278413060737095
0.07568060362877081
-0.0006348913440575753
0.05174992766529716
0.004300440920960927
0.002101982567481244
-0.0033349127588441926
-0.006110789973472205
0.012485385564095937
0.04163776378104421
-0.03793121295140444
-0.026305848173231283
-0.022040121829753335
0.011983450129807015
-0.01580169900503602
-0.0015750141863183939
0.0480997163673732
0.01637740198833274
0.00528200355908562
0.0006157910274544726
-0.03665609424896966
-0.01884372022450329
0.03194815590453513
0.011331098320548296
-0.04878907308295659
0.03204202312490109
0.017699748279694793
0.010808168740719475
0.01856374307747913
-0.011291939432337866
0.010681351769709973
-0.01379256462066011
-0.035385332487612456
-0.023664990442039922
-0.01613940582069545
-0.07768577261435683
-0.011683995126511257
-0.03445359098529976
0.013414460222375878
0.006492229707692889
0.0240018846847955
0.0018089236044746722
0.005026031722476908
-0.010222002522166967
-0.0030649766065076753
0.06586422301993103
0.049526417036030966
-0.17633168138743602
-0.08642984285488796
0.0602481663815666
0.08142952607967846
0.08293529667406317
0.02869127002748763
-0.008607691179447326
0.07881081472334132
0.07017289066457554
0.011993377620906768
0.045143569190596235
-0.014921887040911717
-0.0800688891803097
-0.024493121145752212
0.008433225786407404
-0.07140066206968965
-0.015289980589783547
0.02612102237779654
-0.006340970084869785
-0.00793482130452498
-0.02437162858175338
-0.030831390972908164
-0.03508236702682142
-0.007977692897327098
-1.8728787971406837e-05
0.00471055233576779
-0.01750699712997231
-0.003939510045449703
0.03562207483431359
0.007238404093188188
-0.017420397149498248
-0.03526630400380543
0.018713283418398036
-0.01066752252860628
0.03311417602741299
0.06326572900263439
0.033404712698160095
0.005432009583175549
0.00820589877072984
0.042161381460818444
-0.013327261417283746
0.01790200312850684
-0.11292103039768098
-0.1122107184598699
-0.024658420106448226
-0.027850591922470285
-0.050297167065861514
0.03703570426488213
0.0032196738597897634
0.05524883515052712
0.0341486966150952
-0.02286371983519431
