0
-0.011832189991518442
-0.019392000572263306
0.011480920240162923
0.02629126765340033
-0.04713952716227586
0.004921868897492641
-0.0278465482510015
-0.014082834568908813
-0.03561302430631198
-0.04406194332696198
0.008622777646729448
-0.02921334270885305
-0.028453093564738092
0.0033706207990461257
-0.002528951801797821
0.02548969415215077
0.03831537777338882
0.03185698647140145
0.029903286133439098
0.02248535870607875
-0.01040332107104855
-0.005545433657397684
3.241845851678483e-05
-0.007978892729775243
-0.1492191958397007
-0.014389404061154758
0.03956351662856421
0.01163745273499759
-0.008031738405162572
-0.008183548026143548
0.011742877082903364
-0.015235670770308251
-0.007719556812109158
-0.0080084789261569
0.001492801313231046
0.014622303628298161
0.03498622561748674
-0.02760204102222772
-0.016813127549343842
-0.011274079216573295
0.006207733921234885
-0.01427401648643154
0.08501150083901154
0.08515682188370399
0.004130339229168112
0.022144309622945727
-0.017270052960254852
0.03537476870853427
-0.01961391050366476
-0.00836112674660456
0.017312375371227488
-0.024116332762743598
-0.021304929163396435
-0.033687336518702794
-0.022029274564040132
-0.006718815332401316
0.033520450959040916
0.05745854523883381
-0.03422360502747317
-0.007366149766213114
0.02877960641273196
0.01539449618562989
0.010647994608438089
0.010062517460719272
-0.1625113319631108
-0.060087267811192474
-0.016752916066852315
-0.025925573696370278
0.0963143487066691
0.06143387570245978
0.04223832842634344
-0.05822178407496777
-0.042785120177705395
0.005947333836057025
0.01286248297845637
0.039194060291975676
-0.020515196913314063
-0.01535552524408508
-0.007998250192032007
0.014809672606540935
0.016707024983968807
-0.01577796519795567
-0.03244957979947372
-0.039033527093058414
0.016784283364460282
0.019730472448212886
0.005239056493559662
0.017241568593646603
0.1380458523440036
-0.022126789005217518
-0.0349954807667798
0.008848288725481334
0.0060380926065286625
-0.035537645023484436
-0.011572809076916407
0.032111576852183916
0.01557249707465772
0.006924182214919185
0.1246868564805428
-0.025649598131190995
-0.0526528253086104
-0.024370923944346968
-0.027303311459714576
0.00012406983710883498
-0.00014784064999577714
-0.041898772444697044
-0.02830200871872081
-0.01224593362495512
0.033036169390550395
-0.007273160938550036
-0.017100515329264408
-0.004714212489073067
-0.020825026796726095
-0.007148460251820428
-0.002383306715593911
-0.0008374722149097185
0.006298577887901836
-0.004291190128638919
0.023733384353619883
-0.06691031690724851
0.0704446245393807
0.15841028027908213
0.010794892256394444
0.03450238662962793
0.00046233668306370465
0.039744669018940075
-0.016236158995340595
-0.0870639130198752
-0.19536943138060694
-0.021576501280270298
0.017698980820307922
0.03795523002188905
-0.020792416072649332
-0.015887234366177626
-0.011236038029595309
-0.01853311186061477
0.01122313908980505
0.04381586977954236
-0.00210111186796753
0.013323660617782902
-0.04007370984747437
0.02001509403620819
0.006985647861191099
0.0560007708999197
0.018993466415197186
-0.019251348033831585
-0.024723694628355265
0.009591251148630263
0.029939220895395594
0.04850814441777564
0.04813597164897542
-0.014047423663752046
0.033441774824948554
-0.020070973053569814
-0.03205429330717071
-0.015452823506295111
-0.03216946812453509
-0.016542036960420788
0.01465913041092709
0.0005367510109673504
-0.0067633126091826935
0.037575637493007685
0.0510418346374568
-0.0015544497315401653
-0.017442028639523693
-0.03783795834037795
-0.013404977830688242
-0.03409042364124476
-0.018002499132439235
0.04709910414551459
-0.07709425971869273
-0.01572471999811076
0.0725238768326643
0.022894581558765885
-0.09662228702562414
0.0005631764263110304
0.018386414471568455
0.01203227351089174
0.08552710224310198
-0.015606235384321852
-0.164016923638068
-0.025651664136117865
0.017408569318512736
0.010414448745247218
0.009564719543626973
0.04125195956699451
0.12798149386658494
0.025286590923009385
-0.013951280906379019
-0.028086673043553466
-0.03655108283325593
0.006316937567951101
0.006938880987778556
0.03449873401981526
0.025442790670237556
-0.004264155295646993
-0.007692799379050526
0.02129937304190515
0.00024926509315030044
0.005585346553677605
-0.020163519117314278
-0.0323734196118787
0.008222514898354426
-0.04552833142859991
0.04340608616052872
0.07058956475193251
0.028475612703367605
0.017255280025167314
-0.001474445477338931
-0.0557473830655848
-0.13536947471618715
-0.06423161105077752
0.0240963753660327
-0.02498852441553069
-0.0003011063465524155
-0.021990228930646012
0.02806346441958988
0.0331761670779593
0.00899819624929867
-0.000882889473672763
-0.026740050679670006
-0.013533179815499676
0.04170833876229411
0.052299753505035275
-0.035269875745430446
-0.03157066108205512
0.0005888398183572919
0.02726703435112361
-0.0035592889686128417
0.049235169600769665
0.018182884630074354
0.09745403824933895
-0.014323295686321945
-0.045598483369551794
-0.008206532139553144
-0.013463769141894691
-0.02059025952017742
0.005186239239057226
0.030151441182802944
-0.01761836382387245
-0.0022999766548494863
-0.00391426020028742
-0.006959642944668183
0.01077300543953607
-0.0043111018156989115
0.04622451034673487
0.030470763921670158
-0.0371104341353443
0.015937420726194418
-0.020260168647740846
-0.015712800472812916
-0.04710149337348975
-0.0008083477320961247
0.008375049111978287
0.02650827789308354
-0.002116502239298755
-0.06305034303152048
0.021726510676766855
-0.029975970494917722
-0.032137534593976766
-0.025998296285659434
-0.06612621092221833
-0.005776574605887097
-0.012835710878047113
0.020463939861746216
-0.03854582073415728
-0.008130984066925853
0.007680641581284276
0.02094561111202599
0.12426379556903405
-0.009951102499154239
-0.04112964281738332
0.026264773486984236
0.0004022659235414996
-0.00711414514372936
-0.0050397567619752505
0.048307485694205385
0.028114981941765406
-0.034714647073380546
0.020713185545344053
0.025052053809879706
0.028831452357705144
0.05637688183269211
0.012612616087871913
0.02566056400332692
-0.03403999719717173
-0.014993161794769616
0.10940445458062369
0.01881490389640564
-0.023307562717979294
-0.05385644480782542
0.012686931602267271
-0.007316279829990257
-0.003253681952124339
0.008236079177659478
0.001564184655709988
-0.029639666994518903
-0.11272677788605426
-0.05446962376480398
0.020606468277210382
0.032155804438640585
-0.05764412471489824
0.026115269920009586
0.023464111094820647
0.048225688276537976
0.028113788989839683
-0.01848200070317452
-0.0010422853066034193
0.010812246451060119
0.00344761594188307
0.02605731969494943
0.04354998388606932
-0.049620252447917436
0.018327011826980957
-0.01355269269468262
-0.07539677423559986
0.04657932109539666
0.06964646597161384
-0.02815691305904176
-0.12329641782744581
-0.0182369001423785
-0.007318146275549267
-0.007074207143426724
-0.018249123682556795
-0.05815193407241358
0.0093981629854219
0.023445103235975626
-0.02105278338936091
-0.0074528596926214784
-0.012952572645140785
-0.01082081943575235
0.03954685214159225
-0.012391515711180518
-0.03165808499269113
0.027378331126994965
0.039439680917501475
-0.015473365539225412
0.059623773620761135
0.03848354446407851
-0.007020283549166198
-0.0033144656681668625
-0.012869379485719123
-0.014653290397288549
0.004702976627431199
0.008150577344166254
-0.0032663403121007146
0.044297558777115484
0.03247405665662125
0.019311842398031485
0.012867227921595337
0.0029180686313147776
0.005570249994749967
0.008383091275004877
0.006787504138592758
-0.019890842632377618
-0.003049029690556458
0.016399414999828527
-0.018990785747096055
0.011112629228328574
0.04729485445333368
-0.031105285057164454
0.0031359890972710823
0.010015686842452333
-0.05706879578637529
0.06252578600770411
0.06202743114969908
-0.02247975759443684
0.010425460864424075
-0.05068429629348596
0.010664117874526537
0.029246329969909602
-0.16850119436734998
0.002891102258082474
-0.0066887594351071195
0.0077688267350586575
0.018230778737183248
-0.00838077475787774
0.0003525158380245755
-0.040201625091462474
-0.02717065712354294
-0.0012839852309178637
0.00847791335999653
0.0447411147428921
0.02002485722898093
0.016429742030933364
0.011619326251988374
0.013417858838252682
0.027057575238199367
-0.0062670762169349074
-0.06893262863151041
-0.061205586359807274
-0.03714879146536163
0.014134269404623681
-0.04030865038808372
-0.0011281639334470653
0.02707790575800913
0.048384621528624154
0.1700233003446247
0.01760798787832012
-0.028121051637290822
0.030720055394858496
-0.11238442370054585
-0.017136549777058786
0.039774114808730485
-0.05162563506355018
-0.0497890398745063
-0.059767365467346976
0.01199899299355286
0.03868969915153672
-0.010908715341812241
-0.015227068607558287
0.007491061746700967
0.0009352828003877265
-0.03534464841425916
0.012921479596025227
0.05390794075801651
-0.019610731380177295
0.04367636009177433
-0.02697297180055906
-0.046442081132349815
-0.01271758224530214
0.04582145463621071
0.037882103168415976
0.006555314868540069
-0.00594894295445149
-0.018418319611197213
0.011374151590073166
-0.03938060888702745
0.00031593513159721543
0.030410117623936264
0.08077816455061318
0.05736844472750648
0.003012430470817097
0.003548555902079841
0.02755586913231232
-0.004802645245113867
-0.0036242072775078005
-0.01433561603869884
-0.01670348085191443
-0.027371274437322336
-0.011491910857133218
0.03466183010529158
0.0727434945860498
-0.009813064653276042
0.003039507243135124
-0.02226426131966592
0.0011926571080056463
0.008670786759564848
-0.0022958449448667985
-0.1671210648773176
0.003649916946959172
0.0315999320827487
-0.0849784366769558
0.001417566645401421
0.018637539282164186
-0.004587145952756647
-0.041531380654694514
0.00803509685209708
0.13939348807436303
0.01670485658017764
-0.033174902082736324
0.009069917236343806
-0.019572750443747886
-0.0053180927025125195
-0.01909997105641982
-0.027999405286357238
-0.012053464446441326
0.0004192802303788681
0.012438175836307212
0.0010585844654962733
-0.00583276815939228
0.013711410331209142
0.00611390042496952
0.00853043196512523
-0.007549358478136714
-0.006426932255963391
-0.0193500358666121
-0.03028598202281413
0.012019848532181958
0.06015659913365437
-0.011171044216927762
0.010609590294979727
-0.027441212542558335
0.013887556986618659
0.04599813619866445
-0.017926774204975515
-0.027621923478928848
0.003069529216716974
0.09708094293116372
0.00600692976832967
-0.014189079289344502
-0.03317498590869761
0.02478240241499728
-0.00037532268964599443
0.0036971288368898
-0.010714463759005947
-0.006013044338859225
-0.0209239802801216
0.007429416951461432
0.006538054511264793
-0.012662104239145135
0.02164837893831893
0.007822749992928405
-0.025091626805262213
0.09155295341522532
0.00033072521114230376
0.03748975069958177
-0.014446649198320928
0.02702460446532819
0.00040048217831703444
0.02032877108163613
-0.01108933007901672
0.0592391733269039
-0.07569998937678837
-0.09888327180662779
-0.05720284871742832
-0.024777383700111885
-0.02883005964584212
-0.13547230795164933
-0.04256428693652089
-0.03364811445730983
-0.014697658512706492
0.017518002029127906
0.03563390806734028
0.004599861707686224
-0.006149467349452725
0.032594910805475996
0.03806105624679055
-0.012942037811859331
-1.8862590087237347e-05
0.02749834663830106
0.03592448426041741
-0.02243800938279616
0.010081194106546173
0.0006221598525677417
0.015306584044834376
0.04865846978059965
0.009674069716471676
0.014679051502477647
-0.00829880323403494
0.0113210803705545
0.007678739835391787
-0.03081603895787725
0.02134371047764314
0.10468118169206753
0.03706911235275738
0.008204195790249221
0.006045480268749035
-0.03372112870335982
0.0024148861035195213
0.013839356692143688
0.027560285488357195
0.0016119465069665228
-0.018413729316758012
-0.03055882191704692
-0.01297194854809808
-0.029859236035915216
-0.023120778194805517
0.030905699573879737
-0.002012519534351356
-0.0015845780627341043
-0.014238939076452403
-0.02375822617685399
0.020973205856791934
-0.045103504750016184
-0.028455021382071073
-0.025993218216349083
0.023572752089509583
-0.03383482878092051
-0.011186543579598012
0.0697825980287179
-0.013512469591350192
-0.036703068811055485
0.06824081085426761
0.0747488198261694
-0.1510430613006523
-0.10545907843114231
0.07786700964952639
-0.036818658543723515
0.005226517135376298
0.01265566146934984
0.03139042881795768
0.00011980273434317691
0.04876752675933335
0.0022884741377209895
0.014051825940017564
0.03540028613507054
-0.0015789570016774954
-0.03322035032863128
-0.020063083358388623
0.015975347886651826
-0.004386379942920815
-0.00031659432872252366
0.07907922798261816
0.04129578142376055
0.021621355878126376
-0.03345252598814939
-0.004636107084361335
-0.0026986356502477827
0.003147724348420193
-0.00758977440244796
-0.004380117123312426
0.018464958185324353
0.005898429960141097
-0.015466194081219648
-0.0123514340393602
0.011122994122794272
0.04961507298036041
0.0026529100546859464
0.03598792033068614
0.017457313553984298
-0.01580204921100768
-0.01699735174380967
-0.0040267973786291995
-0.06850813239005779
-0.04908952384773816
-0.012634496421483688
-0.026266617185091788
0.014210757214470064
0.014977658611520948
-0.011849255638510343
-0.021905495124363017
0.012911746007245558
-0.17189632239295363
-0.01931981353456789
0.059677103426887
-0.035053662396179734
0.0346370590947818
0.04526350651520176
0.000183286357831187
-0.00530458397206959
0.007822808177826395
-0.04747239112152754
0.04475148386754191
-0.013007669285696927
0.04071250280349386
0.08708771269319075
0.047959657544697006
-0.1265407817267609
-0.1303006415412152
0.029270092595257455
-0.023297110899955946
0.0030742765282056237
0.13871320120250663
0.07831303429238252
0.01708417189637923
0.08528044979219816
0.053586814656449835
-0.027050626012304388
0.013443998671439746
0.03731424397817364
-0.02323621689417937
-0.010881146648597864
-0.00041474044201941367
-0.008961445319680197
-0.06250707756767539
-0.10266935928497467
-0.022640620743742755
-0.008419274308593528
0.027292456780061064
-0.005545065005828333
0.007448153272831193
-0.0247904083199451
-0.022057192737074825
-0.03874801974772525
-0.006090025750481848
-0.00035412535281536265
0.02066294234587664
-0.008839165491005668
0.016243636149659384
0.0044729167995970955
-0.04985832098487423
-0.013215556261294586
-0.030784806762332747
0.017348678724380825
-0.0009110534775857617
0.001752934970753962
-0.009293517221808541
-0.02280302411877558
-0.009523888083269138
0.020623343324547586
0.00010065766064095509
-0.01359241376190003
0.04231450154242915
0.13367874346383235
-0.006381667844135535
-0.010509589806146824
-0.004666869134588736
0.04773617630014018
-0.01596502311957764
-0.03610287332337977
-0.014740760535996484
0.005535207901012404
-0.005845985539024762
-0.0008719859393225172
-0.003789252057942325
-0.002153210850325615
0.021994222750769933
0.04457569000034873
-0.03242351356450575
-0.012553993574909442
-0.03649554094249874
0.08244753309830828
0.08351090979830407
-0.017582400690580854
0.00979776484187436
-0.009243569990652439
0.046328664761635226
0.017729995026928215
-0.023623770092516257
0.005826324034407534
-0.03379418388568529
-0.005803689072463641
-0.040928515951783935
-0.027305357241436252
0.028711157070797674
-0.0035193639697391555
-0.05690330449843818
-0.0003167443648608024
-0.022126112320163274
-0.07128244106877059
-0.024828866840387653
0.03584261051373354
0.03612272274589779
-0.0005481433298611988
0.04277939028602924
0.044335512195228875
-0.013989964450586532
-0.006692178852650382
-0.0002514818616463376
0.015219892120677847
-0.005278444268130576
-0.04131455897285679
-0.005810184766296203
-0.0021559574060979678
-0.0012977207958247536
0.0012346676119961793
-0.015040375631324043
0.002753394802563561
0.0601835148925717
0.023034522392190854
-0.0352064989036297
0.05837081625415957
0.0626528784646535
-0.06643063068323966
-0.015060796620582682
0.021014901234378956
0.016340794146909293
-0.008985803259042566
-0.0006552854332018759
-0.010558885320540076
-0.019009417262238714
-0.07446367363510889
-0.06129581570948286
-0.007987624905806947
-0.016558546308605575
-0.016019205613342934
-0.005270002381218126
0.01636612981842208
0.041425316619846636
-0.00012540493044557494
-0.02879440510419705
0.013448344394829578
-0.031032798796923576
0.03949424095415681
0.04454821563220785
0.014931316711511404
0.03438371113676136
-0.007639569576391289
-0.006690702972392816
0.015147817441979293
-0.01331790242627044
-0.011013506386331168
0.01867641023776014
0.036601792453418526
0.006864315845672949
-0.01717242825973722
-0.026386199352470975
-0.0169060661379034
0.023973797127503506
0.032311198796122195
-0.019324649873514708
0.011519080955926178
-0.023663862585970648
0.07077664241077865
0.0681008908654303
0.0380773074210939
-0.022023297741295043
-0.007379970190673626
-0.1594117090414325
-0.11473509066245924
0.0534333584405083
-0.007106327983309857
-0.05584106965151224
-0.014417174263879088
-0.009455934395705827
0.0174080137878974
0.0046638855099997425
0.0023854489862809823
0.014091183834434418
0.030875533982656012
0.023127836040736132
-0.03453061385211122
0.001813383990454837
0.060783410719229755
-0.008385248107173053
0.010990878665505566
-0.012523119786623222
-0.025846678306059957
-0.009079064535233515
-0.020202436045979648
-0.019456280818343732
0.09084601673008552
-0.012440786749307443
-0.04573713000025088
0.024753629983420178
0.013668510385685721
-0.007988387343677347
0.014918500518624695
0.04535676841765065
0.02823422068967964
0.0037007776317258554
0.03132501884480549
-0.03547788887828621
-0.12289963084001723
0.0290973066241533
0.033544147538157994
0.015703657216901635
0.012791155569073995
0.00018211774445256768
0.0060514897113537166
-0.0009046307177347248
0.01641728233549795
-0.010653097604186501
-0.0002697641780187426
0.02724069760223715
0.04845687164913441
0.04597567809899124
-0.09841081493778846
0.0077330861285443975
-0.007738797189763825
-0.023750478730325132
-0.0326432096948635
0.010049572107505145
-0.014414197353617665
-0.006007031548117603
-0.03255547922319291
0.00496137179319671
-0.05078922217427988
-0.035456143701374676
0.013006296569869128
-0.022731423878549546
-0.02942692953705624
0.05417110825113739
0.002379993342094019
0.008893407663482159
-0.02815382066533865
-0.0007769053459438237
-0.030354052500709588
-0.03039553543599736
0.007552950367721555
0.16703965885723088
0.05917426174495374
-0.006233028657464977
-0.005577461987682077
-0.042621887242636054
-0.0019585552205683217
0.02943865594096008
-0.008210412091218693
-0.027800055335939978
-0.017038959795720676
0.000657221934829984
0.09854228168852622
0.01633945786889501
-0.013905996828601082
0.008932747371578351
-0.010089272600325522
-0.028426241323511566
-0.042126692373230634
-0.023121426174066404
0.004464442938906362
0.035943570276553975
0.049924677912762006
0.016002246245397134
-0.012326643981385103
-0.014750831491733691
-0.017091643914249013
-0.01758873458888501
0.0029017653423164314
0.0396741560725249
0.0067061017644222485
-0.035095468321454
0.0020543948996455475
-0.009793709962450011
0.08246403050911914
0.016266169735181128
0.001193865250044998
-0.026335078133549017
-0.017501016011848988
-0.05436065142079918
0.027310923273777755
-0.026364079977118777
-0.08717681477023757
-0.05713838261508275
0.05629819392453385
0.06530637591241698
0.02155936089653222
0.004291179802139349
-0.001906950247027499
-0.03417472568236319
-0.04609640356087411
0.040003949075862626
0.011731515600375261
0.01426933276372704
-0.003061913258920714
0.009618228370179178
-0.013636717975517448
-0.0428424107438533
-0.04111835632103159
-0.03530460113304897
0.020466504272349847
0.04224186962390017
0.0051481996907133416
0.01319749099071253
0.02454363212761796
-0.02035742102524469
-0.026133521768811906
-0.00713739555199969
0.06981235579656964
0.0005319917426201019
0.014693724558222787
0.015940170730414854
0.0027498807226371707
-0.001057879201762245
-0.05168879727437776
-0.019853127781579175
0.013047919687638108
-0.0027176758422335023
-0.031404647954011655
-0.045213442421469685
-0.024724979282534972
0.04305727249323916
-0.009797238527317806
0.07459592696429168
0.026199003043633953
-0.0005076156721813013
-0.005543728521480469
0.0740737156451838
0.007320053567902932
0.02821917924804247
0.014955169818820413
-0.02967161354679395
-0.027555460051554518
0.009991962037453018
0.008622678796186705
-0.031201831071232717
-0.10301056850749676
-0.00878218139655104
-0.005786580981430881
0.02913389319904907
0.01109398693969887
-0.04484639571853075
-0.024344915643453566
0.03069049471476019
0.0002188971307123428
-0.021829252451062698
0.006309697613569838
0.046813929588844824
0.007089046918630408
-0.01585265325249833
-0.00139345260429616
-0.01093284627906767
0.04532498379127834
0.1059559464748123
-0.03000281401158226
-0.02511870778677197
-0.04065331429608989
0.024581582026921622
0.015882724070831078
-0.019464180409443817
-0.06272481947488812
-0.014066639318520051
0.034013992445251266
0.04700448284416282
0.004731841281180562
-0.004557627881123949
0.0022351120304845134
-0.015771113003827626
0.008151913451970489
-0.019634651789607962
0.024065320080657468
-0.06280957525623297
-0.02156986631079493
0.03309011135963075
0.01686585972384585
0.024667952669210264
0.006797461516619401
-0.02075703171325082
0.00856938851586178
-0.001186658687363305
0.03527629806488826
0.05494694946035465
-0.06125865955760388
0.012521556345492636
0.00468179798571094
0.03814435730226031
-0.06200514946110164
-0.06230837466674901
-0.00965870634733856
-0.007593101327398995
0.01097359387140946
-0.008527764972209409
-0.005166618770893989
-0.014260320860437645
-6.673697480957833e-05
-0.003961215620052122
-0.011136677196502815
-0.010866561289591205
-0.03349164403576304
0.05238731085688623
-0.007299217525345669
0.0447895978700372
0.06815652666265533
-0.0015026752134015932
0.03354669436812567
0.010810138907000883
-0.01903827380061142
-0.008010307216668228
-0.006262044375136891
-0.008211662110613695
-0.01479993745987707
0.07111303398276238
0.042354020535103426
-0.002201779435778203
-0.007119042889269052
-0.005919653780325374
-0.0015433095989348927
-0.056582800830288486
-0.05328362932356742
-0.02077401637660167
-0.021391190528488972
-0.005889338048120419
-0.04142668491018422
0.010707824797562038
-0.0036641156171969844
-0.01836518959726047
-0.009608125855883736
-0.006368317028883098
0.0013941211645511944
0.0013266010032928046
0.0898241778124119
-0.058700148107334815
-0.07217615867511001
0.007923312129276818
-0.0042545862573949425
0.009434872059595313
-0.002197064036399458
-0.022896504276193316
-0.028939986070735113
-0.018656120930917553
0.01982636562848628
0.018796976933737844
-0.001724252230262389
0.04123614508286239
0.022637099693702117
0.04034601982352057
0.018636866129877545
0.07137379471563005
-0.010070591659487897
-0.019216464567458715
-0.004628539714062147
0.005605702408614671
0.00992151191575232
0.037122361574910084
0.01610084622791885
0.0015460761362005322
-0.008270618078084546
-0.026547021175660414
-0.015013433236824596
-0.0022890110198359086
0.01965457146347291
-0.022302409370082682
0.017227708082336226
0.005122918812947002
-0.030045148097720388
-0.003984607195923059
-0.009825827080613674
-0.019414471850237834
-0.010816335472211398
0.02357875611980646
-0.03959664101466805
0.003481522129948348
-0.04011657097335449
0.029332600073540473
0.12742222072805345
0.021263867067586206
0.05135473955805506
-0.004176752107860074
-0.014565215369152909
-0.053635610355405317
0.022132311276725707
0.006403491267996744
-0.018691099843956113
-0.03726754034672507
0.011712770746641819
-0.010730177838779139
-0.054959797206273274
-0.02305042482637306
0.025355417977217184
-0.0016416123773176448
0.0039932105912554
-0.04403917755421484
-0.0024705535201006218
0.011416461917677083
-0.010618093754311057
-0.007494678458114096
-0.07665538967463732
0.010534549304468163
0.09068495410257757
-0.04637844071201896
-0.004612513826246083
-0.004386483163473001
0.04843805116753357
0.07097095133247916
0.03267910618416355
0.0033420300053069564
0.014655652889480435
-0.054144580278538884
-0.05515895284240452
0.01958923852254512
0.008152360315809883
0.04684358976849327
0.02954826611503431
0.0025987924461498557
0.0457667534026963
-0.011221488279555908
0.022000903979410038
-0.027802278665605043
-0.04919098121865597
-0.012052193823760183
0.016211445152969847
-0.031608161944241375
-0.005832644274130452
-0.005509962545201196
-0.01323880338272592
0.00103027642017034
-0.03381234524954978
-0.018533299806806725
0.028227171156704405
-0.013443029754793391
0.042603911378673545
0.025263727726709394
-0.007806757952293466
-0.05834161344913382
-0.003888737775552049
-0.011428875780336767
0.012089315658930655
-0.0002996578007787332
-0.003909244749146407
0.026460112124998995
0.019218041574488746
0.002173871052645814
0.003253718403379777
0.0073502040955584465
0.056930453763403166
-0.011626080234113005
-0.0002202603213200114
0.029130170965912045
0.02501790601719167
-0.01360381053650026
-0.06493399384007345
0.03453141127220803
-0.09859422553077489
-0.06279170449139318
0.025648533665028186
-0.02600446692492152
0.045140450830394245
-0.0024800135974882643
-0.016475976857106216
-0.0033340399477037666
0.0062154154081005145
-0.003394863162418738
0.04955807558839719
-0.029545710348653356
-0.046402858776634734
0.009688572013125757
0.02870360456593121
-0.011475841256276261
0.051347162758380374
-0.00505330297183992
0.11833063650280094
0.000625366112315905
-0.11326336563518867
0.03580801121342997
0.06968280366905576
-0.00736759238646187
-0.005677046844758158
0.005645354798522448
-0.0169378978799296
0.005833750864841312
-0.015669972595007305
-0.00937599811358324
-0.042900119215245336
-0.006586919714200595
0.013826757103734455
-0.018995280660008988
0.0012819068021425488
-0.02885935873359232
0.019909953932131137
0.04262836883458382
0.007833874514552051
0.0016903587439981759
0.013625719786644244
-0.06736893771550066
-0.0555059574657069
-0.014879848313615253
-0.017208506388798187
0.008010199579146352
-0.019947282214115607
-0.009433801332995893
-0.01847148389895171
-0.003031337558752179
-0.012599196417694055
-0.016675416814158097
-0.016685190808090094
0.004959972040983737
0.0025768907953170822
-0.01658542868206771
-0.009891758057957539
0.021458557967601405
0.11909852648351243
-0.01242897659597119
-0.011017262150604841
0.049249198533707
0.034517796729639644
-0.006106799627226012
0.042607388903886545
0.004354869291911036
-0.037342051017611885
0.053714754352087404
0.030478363761017396
0.014693142123678025
0.015249372671945944
-0.022594308500204448
0.020171361311353966
0.02852991194752937
-0.01922203466573786
-0.015194354256628606
0.03931673184920975
0.028824458119921178
-0.009578408437238358
0.0017047105355672964
-0.049631095710135444
-0.015606235387917382
-0.006114139752803557
0.002605153875765469
0.020446369855551216
-0.06366546896650756
0.0052583821810019546
-0.04949233935459698
0.0071688296998295145
-0.09473998674081867
-0.09095491843650261
-0.03008799591582961
-0.02200901727074695
-0.017968766936385785
0.0692839602999483
0.1819892381685132
-0.022517117217565125
0.020050827990688514
-0.05283325367331951
0.06134194923976223
0.11414636716117664
0.020374534329983214
0.024538078164054247
-0.03256233803280085
-0.006161916250710267
-0.07035869619248555
-0.02297240025974304
-0.04513501878038755
-0.04688158694009378
0.02108016987589468
0.0015697464527522614
-0.01171855044846626
0.03185634389430658
0.043249215011344024
-0.013227695010659358
0.027974412613672877
0.034248946493713364
-0.021774042450645396
0.0022302145514429303
0.042225886100916196
-0.02972048461656152
-0.09509941363967415
0.0226524603919815
0.029630255751964072
-0.046312627022929105
0.012579603950974896
-0.007976150265553357
-0.03891964982688912
-0.033148001420533306
-0.013984393186023002
-9.427352528024347e-05
0.023520843697577627
-0.007260369169762946
0.014872477460470676
-0.001620902962851673
0.03040249185036001
0.0041223145149643725
-0.02886531874525855
-0.001139551804577403
-0.0013202948188471481
0.030834960265809674
0.017361295857341235
0.004577272847490499
-0.0031629002864940288
-0.020303858150940334
-0.022384110597578905
-0.005927421586409256
0.005409158434102388
0.010040729005796232
-0.01102411483648232
0.025289072751465382
-0.02334484834987637
0.016794897807535646
0.02324677150038142
-0.0009112595790086481
0.01035873014436316
0.011662809491308242
-0.0634228288085114
-0.025790839844700778
-0.01820636396777181
0.16089075056324137
0.06849985271240834
-0.0178356810466703
-0.02347652017953371
0.00887357948929859
0.009947014782136719
-0.014550783402814859
-0.022330680812884276
-0.03595689237211251
-0.00862580995813039
-0.0352900486066612
0.005232342415136337
0.008181912125772304
-0.002205182724590955
-0.011578301658982966
-0.015569206616641018
-0.013996645756339236
-0.025637126929340448
-0.027287672720274138
-0.053869594402830186
0.0025141202076812068
0.09041657198385278
0.029243186900464468
0.01153246612109499
0.020602155606914137
0.004560285518369627
-0.02341164230377261
-0.008512329368803011
-0.0034098850240183672
0.022541642215332957
-0.007435655853830255
0.029051535112035853
-0.0005893772478344381
-0.014898881787497214
-0.0782845208538539
-0.034329016454468474
0.04380209595236862
0.012026512359049934
-0.04315758157067093
-0.014611079566245844
0.016542040900187592
0.028399778418877464
0.1162458359810365
0.06062486012199557
-0.033683585433285514
0.0324183578492619
0.004125276973804145
0.0037687142557034283
-0.06086918645084533
0.0035044097804648863
0.01585842588640099
-0.013901589227561639
-0.04251944213838625
-0.0117864739011785
-0.010829708796707114
-0.01103610818450971
0.024806825700790555
-0.0013475552504626492
0.0013830868469362307
0.008307769320508132
-0.0065084175993255075
-0.015508351438001418
0.022517107372259346
0.02948168505041879
0.023755928757407535
0.00699773044737481
-0.014505898257108255
-0.024548028861443232
-0.03720447660773234
0.014591802050386623
0.040739782438145876
0.0622849291815104
0.06374920327644328
-0.07540093786568726
-0.042259953692930015
-0.022769880779055396
-0.0187020865940463
-0.019331812539505538
-0.018094858766263818
-0.040150575623116094
-0.03575161688728571
-0.09799150342554666
-0.04282063101605044
-0.004743574001892042
-0.02228672791664413
-0.03488022199415636
0.013197299326404429
-0.010133725408170459
-0.01424524420334328
0.032406095136254566
-0.017139453181131827
0.13646819690191608
0.026572130068990674
-0.013392470951868593
0.0089240950882046
-0.03463010681344282
-0.05942197735791333
-0.010010210017311488
-0.046456176979273484
0.03397633698591736
0.224761140355231
0.08144082427338728
-0.02254189365255289
-0.007932820946638502
-0.017017879356369982
0.039327138065830075
0.17687804568578896
0.026000412100698134
-0.039857709026475036
0.016514767028646724
-0.041789495372621374
-0.02953331900884914
0.004190813292017526
-0.017406889033978103
0.028777623656671598
0.022785272540825876
-0.019428007673146324
-0.042106640475780784
0.011624020452992557
-0.014253248070574327
-0.034466766745817765
-0.021048158976268404
0.06651630290484827
0.007374933478127092
-0.035914705109565535
-0.009143980702067366
0.0023257141601912383
0.016347632588904263
0.00617410012309901
-0.026585220935541495
0.0012364935861404085
0.01034157547270809
0.03783801528803599
0.025817852296701183
-0.0321707191714205
-0.17788111287403266
-0.0507135861849561
0.012635477310897666
-0.031310278485588136
0.010719169893008468
-0.003671155876094515
-0.012394682336268037
-0.006948281176702672
-0.014409522080819795
0.04909026471470013
0.029595432122839493
-0.010582813134020428
-0.011254037362899988
-0.005060249399207162
0.01703755178224041
-0.008265604705487891
0.06022882070602348
0.0007700384569354487
-0.05125107484399178
-0.02413580217633931
0.07971601833230786
-0.03759377161397914
-0.0731160964514527
0.015293043463190164
-0.021666015225326938
0.04115770629368536
0.01799781658806472
0.015091942424202268
0.022157142361484656
-0.05090373657597165
-0.021406422263151304
-0.006026472935763306
-0.0032116353916856024
