,0
0.0,0.05723914874602704
0.008447729672650475,0.04991478445665011
0.01689545934530095,0.049683727874173175
0.02534318901795142,0.05571047286606748
0.0337909186906019,0.05986232633327187
0.042238648363252376,0.05566673677594526
0.05068637803590284,0.04604901915680211
0.05913410770855332,0.0395270606351011
0.0675818373812038,0.0401379442068919
0.07602956705385427,0.043532876189901364
0.08447729672650475,0.04210971245796607
0.09292502639915522,0.03415858730240286
0.10137275607180568,0.027591553136653863
0.10982048574445616,0.03328180475957309
0.11826821541710664,0.053128056182250374
0.12671594508975711,0.07438637119254703
0.1351636747624076,0.08117682671379021
0.14361140443505807,0.07211927404856384
0.15205913410770855,0.058211505127099945
0.16050686378035903,0.04640287989468771
0.1689545934530095,0.03647191633181702
0.17740232312565998,0.03029977937311687
0.18585005279831043,0.03312964049021857
0.1942977824709609,0.043734756960659336
0.20274551214361136,0.049595533917118066
0.21119324181626184,0.03947056343952302
0.21964097148891232,0.018404850221535707
0.2280887011615628,0.0011836716852462637
0.23653643083421327,-0.005157343180010292
0.24498416050686378,-0.003067108609261843
0.25343189017951423,0.00430231801775468
0.26187961985216474,0.01461308206779855
0.2703273495248152,0.02466539936762542
0.27877507919746564,0.032445831655949775
0.28722280887011614,0.03819317573319343
0.2956705385427666,0.04229006080004612
0.3041182682154171,0.043574346858139976
0.31256599788806755,0.04070880493812515
0.32101372756071805,0.03437769820806467
0.3294614572333685,0.02675738040905083
0.337909186906019,0.020474400762733228
0.34635691657866946,0.01877529460351112
0.35480464625131997,0.0238016999341888
0.3632523759239704,0.033638186752090564
0.37170010559662087,0.04312023577455806
0.3801478352692713,0.04938538256450991
0.3885955649419218,0.055012850995016974
0.3970432946145723,0.0636224696179243
0.4054910242872227,0.07311211605263243
0.41393875395987323,0.07503835994096923
0.4223864836325237,0.0643251794682365
0.4308342133051742,0.048502117843404635
0.43928194297782464,0.04163629070992062
0.44772967265047514,0.05122919164272972
0.4561774023231256,0.07370870322112917
0.4646251319957761,0.09734231210542996
0.47307286166842655,0.10819010761593972
0.48152059134107705,0.09929928548310252
0.48996832101372756,0.07555164898723295
0.49841605068637795,0.047542599810297084
0.5068637803590285,0.023485802875965252
0.515311510031679,0.007448011208028166
0.5237592397043295,0.0005541854663269727
0.5322069693769799,0.0011891864975484903
0.5406546990496304,0.00524988897050204
0.5491024287222809,0.00863016031308748
0.5575501583949313,0.00985739041209852
0.5659978880675818,0.009974062521211973
0.5744456177402323,0.00991483789999886
0.5828933474128828,0.008771277590221066
0.5913410770855332,0.006939291696413504
0.5997888067581837,0.00820397253343557
0.6082365364308342,0.015728359420076728
0.6166842661034847,0.03045868773465627
0.6251319957761351,0.051827313195917615
0.6335797254487856,0.07466646716836456
0.6420274551214361,0.0892708669875096
0.6504751847940866,0.08950148979529836
0.658922914466737,0.07985928096336761
0.6673706441393875,0.06887590497776952
0.675818373812038,0.05770677534685127
0.6842661034846884,0.04339322159732724
0.6927138331573389,0.027203497185502936
0.7011615628299894,0.012172955460738918
0.7096092925026399,-0.0021768869486546846
0.7180570221752903,-0.01603195881786102
0.7265047518479408,-0.023473757330059304
0.7349524815205912,-0.020650104509506294
0.7434002111932417,-0.014900517708631072
0.7518479408658921,-0.014402495761480259
0.7602956705385426,-0.016849388176958607
0.7687434002111931,-0.014784213945073964
0.7771911298838436,-0.004970209527810255
0.785638859556494,0.008930462147492275
0.7940865892291445,0.02050024216958085
0.802534318901795,0.025689343539956763
0.8109820485744454,0.022790064258446138
0.819429778247096,0.0121052468317831
0.8278775079197465,-0.0019238457477722694
0.836325237592397,-0.01192330855389135
0.8447729672650474,-0.012484158434072155
0.8532206969376979,-0.0038672940367129524
0.8616684266103484,0.009698284433178245
0.8701161562829989,0.025612233325140017
0.8785638859556493,0.04326375399152115
0.8870116156282998,0.058965794549141984
0.8954593453009503,0.06607890973047219
0.9039070749736008,0.06025429340535474
0.9123548046462512,0.042548049215407446
0.9208025343189017,0.019446068275596896
0.9292502639915522,-0.0006469496340897607
0.9376979936642027,-0.012313498904189181
0.9461457233368531,-0.014573511254929578
0.9545934530095036,-0.011155082630462478
0.9630411826821541,-0.008349518430945741
0.9714889123548045,-0.007876785010022955
0.9799366420274551,-0.006972807355256571
0.9883843717001055,-0.00692769437140161
0.9968321013727559,-0.012095010132450418
1.0052798310454065,-0.021058678498939387
1.013727560718057,-0.026564105965162614
1.0221752903907073,-0.022853147010735327
1.030623020063358,-0.009722050588087183
1.0390707497360083,0.008101911670557169
1.047518479408659,0.0236573280112604
1.0559662090813093,0.03024928881977108
1.0644139387539597,0.020497364951352567
1.0728616684266103,-0.015033868533515208
1.0813093980992607,-0.08107572314523667
1.0897571277719111,-0.1605819321079794
1.0982048574445618,-0.21221615470244073
1.1066525871172121,-0.20668421867123443
1.1151003167898625,-0.15621544028688197
1.1235480464625132,-0.09376038682812575
1.1319957761351636,-0.042727030152916845
1.1404435058078142,-0.010312906101075117
1.1488912354804646,0.007533697852798289
1.157338965153115,0.01813334759800867
1.1657866948257656,0.02538482263050778
1.174234424498416,0.030127325609734204
1.1826821541710664,0.03623104723358953
1.191129883843717,0.0506523693369105
1.1995776135163674,0.071890428756048
1.208025343189018,0.08464154767250269
1.2164730728616684,0.07682832784527056
1.2249208025343188,0.05460779635481622
1.2333685322069694,0.030928012189722062
1.2418162618796198,0.012035203049844168
1.2502639915522702,9.697018006698659e-05
1.2587117212249208,-0.003541144634619006
1.2671594508975712,0.00024742179196222394
1.2756071805702216,0.008811921059423218
1.2840549102428722,0.01867984274619606
1.2925026399155226,0.02316028559944654
1.3009503695881732,0.009841788870944872
1.3093980992608236,-0.03425139548971701
1.317845828933474,-0.10876044446708862
1.3262935586061246,-0.19246003353215377
1.334741288278775,-0.2528478132451686
1.3431890179514254,-0.26072080727612795
1.351636747624076,-0.21006862849819624
1.3600844772967264,-0.13102474269777317
1.3685322069693768,-0.06315038290758881
1.3769799366420274,-0.021578950231542576
1.3854276663146778,0.0005452322028703352
1.3938753959873285,0.01404596990422633
1.4023231256599789,0.024346830960708304
1.4107708553326292,0.031420305715123144
1.4192185850052799,0.03405223376243384
1.4276663146779303,0.03300148105128519
1.4361140443505807,0.03117010318799914
1.4445617740232313,0.032392025335001594
1.4530095036958817,0.03873118512582374
1.4614572333685323,0.045783131177677
1.4699049630411825,0.0442063162323791
1.478352692713833,0.031284545110885506
1.4868004223864835,0.014925542942688823
1.4952481520591339,0.0027155400014529834
1.5036958817317843,-0.004362448437118383
1.5121436114044349,-0.007605917276463579
1.5205913410770853,-0.008607185605180616
1.5290390707497357,-0.009970541245310861
1.5374868004223863,-0.012372579272674336
1.5459345300950367,-0.013150796827393207
1.5543822597676873,-0.009258528119938825
1.5628299894403377,0.000972171443470205
1.571277719112988,0.015264629537836498
1.5797254487856387,0.026358153282628503
1.588173178458289,0.02922301460018416
1.5966209081309395,0.025882382943123936
1.60506863780359,0.020425029410924573
1.6135163674762405,0.014494817085073237
1.621964097148891,0.009803773261438338
1.6304118268215415,0.012792044495189033
1.638859556494192,0.03400697454647599
1.6473072861668425,0.07928468724190518
1.655755015839493,0.13455334212168082
1.6642027455121433,0.16503930041440135
1.672650475184794,0.14911503951617097
1.6810982048574443,0.10214959467465837
1.6895459345300947,0.04912525781253062
1.6979936642027453,-0.004499608909553389
1.7064413938753957,-0.0640522696198149
1.7148891235480463,-0.12757450491201539
1.7233368532206967,-0.18015408539366418
1.7317845828933471,-0.1974273125028965
1.7402323125659978,-0.16710365300699978
1.7486800422386481,-0.10869876966608041
1.7571277719112985,-0.05134924975161882
1.7655755015839492,-0.007458779272264595
1.7740232312565996,0.019857221638000695
1.78247096092925,0.030173597741171947
1.7909186906019006,0.028910414099117095
1.799366420274551,0.02267646293261108
1.8078141499472016,0.014799204355273118
1.816261879619852,0.007708394718406263
1.8247096092925024,0.005054094161001423
1.833157338965153,0.009244234129034815
1.8416050686378034,0.019421500271780804
1.8500527983104538,0.03412241821818559
1.8585005279831044,0.052778100595032136
1.8669482576557548,0.07037414646809284
1.8753959873284054,0.07279034157151618
1.8838437170010558,0.048315710549560395
1.8922914466737062,0.00328987403421847
1.9007391763463568,-0.046418748092201964
1.9091869060190072,-0.09161180284858807
1.9176346356916576,-0.12417995359075146
1.9260823653643082,-0.13036744945488943
1.9345300950369586,-0.10807594549499364
1.942977824709609,-0.07522321216227335
1.9514255543822596,-0.048583903533288356
1.9598732840549102,-0.035592879550018566
1.9683210137275606,-0.04329263324658469
1.976768743400211,-0.06555707421754244
1.9852164730728614,-0.0737563818529671
1.9936642027455118,-0.0520411461500404
2.0021119324181624,-0.021015988674274417
2.010559662090813,-0.0042365580343054
2.019007391763463,-0.003335366333699463
2.027455121436114,-0.010270912127570538
2.035902851108764,-0.017035316067043837
2.0443505807814146,-0.01933388227630493
2.0527983104540652,-0.018984636599106625
2.061246040126716,-0.01872835365822331
2.069693769799366,-0.01869200603924954
2.0781414994720167,-0.018607061376991214
2.086589229144667,-0.01885858202012189
2.095036958817318,-0.0202060645877509
2.103484688489968,-0.02366222986530256
2.1119324181626187,-0.028670049651375724
2.120380147835269,-0.033169596957788455
2.1288278775079195,-0.03576951185297698
2.1372756071805696,-0.03402228288739411
2.1457233368532207,-0.02455213337018093
2.154171066525871,-0.009958632277275607
2.1626187961985215,0.00047683132600280444
2.1710665258711717,0.00030271578996209254
2.1795142555438223,-0.007920605678451988
2.187961985216473,-0.014975187296161976
2.1964097148891235,-0.012398621281357271
2.2048574445617737,0.000990734361675193
2.2133051742344243,0.018701267979430947
2.2217529039070745,0.030342819637820338
2.230200633579725,0.027755656071894348
2.2386483632523757,0.009941629780049588
2.2470960929250263,-0.016980852547023695
2.2555438225976765,-0.04279594203597902
2.263991552270327,-0.05780383988662147
2.2724392819429773,-0.05579525326479967
2.2808870116156283,-0.03590444955132345
2.2893347412882785,-0.00702392474312227
2.297782470960929,0.015446093518629626
2.3062302006335793,0.022591549932316275
2.31467793030623,0.017706848669163732
2.32312565997888,0.010683398264942832
2.331573389651531,0.00822647021095088
2.3400211193241813,0.007753046140608552
2.348468848996832,0.004381133635614124
2.356916578669482,0.0008343863611749497
2.3653643083421327,0.002024393237825974
2.3738120380147834,0.005990585009639093
2.382259767687434,0.00802409215759693
2.390707497360084,0.007492778202276261
2.3991552270327348,0.0069385012101458275
2.407602956705385,0.007092247693396746
2.416050686378036,0.00472734891401617
2.424498416050686,-0.002856582922860553
2.432946145723337,-0.013224472726933846
2.441393875395987,-0.01964751782184665
2.4498416050686376,-0.01583114040087603
2.4582893347412877,-0.001387954338274073
2.466737064413939,0.01782059621829703
2.475184794086589,0.034007092298571996
2.4836325237592396,0.040685669066564935
2.4920802534318898,0.03524703489520065
2.5005279831045404,0.020162756179633548
2.508975712777191,0.0004458161534543056
2.5174234424498416,-0.01749550205439286
2.525871172122492,-0.02622206995760958
2.5343189017951424,-0.023358885699640265
2.5427666314677926,-0.01431762081030491
2.551214361140443,-0.004847582720517457
2.559662090813094,0.0035321632289565265
2.5681098204857444,0.011317927911081766
2.5765575501583946,0.01913327119583128
2.585005279831045,0.025267480827706905
2.5934530095036954,0.025378352007084312
2.6019007391763465,0.017116960473378778
2.6103484688489966,0.003203691802943067
2.6187961985216472,-0.011190221790901728
2.6272439281942974,-0.024850964184324798
2.635691657866948,-0.04098507015481707
2.644139387539598,-0.05818669928512567
2.6525871172122493,-0.06865149979501026
2.6610348468848994,-0.06783308890380664
2.66948257655755,-0.05740514480465723
2.6779303062302002,-0.04029647176686005
2.686378035902851,-0.019405846495106814
2.6948257655755015,0.0008916930665875443
2.703273495248152,0.015586576919320172
2.7117212249208023,0.022648897247899546
2.720168954593453,0.024664201086249535
2.728616684266103,0.02615861786273716
2.7370644139387537,0.029375924363621568
2.7455121436114043,0.03204135404518809
2.753959873284055,0.032659380668154644
2.762407602956705,0.03505225255891077
2.7708553326293557,0.04174926908413382
2.779303062302006,0.048544366255800754
2.787750791974657,0.04844651832431033
2.796198521647307,0.03788237960066298
2.8046462513199577,0.020557497127841554
2.813093980992608,0.00710592897013632
2.8215417106652585,0.007106701066523566
2.829989440337909,0.019364750464420176
2.8384371700105597,0.03393365379623268
2.84688489968321,0.04113201287033709
2.8553326293558605,0.037166256332387584
2.8637803590285107,0.0289414363203367
2.8722280887011613,0.030918991718787737
2.880675818373812,0.049987778545419616
2.8891235480464625,0.07551852947063267
2.8975712777191127,0.08571553679400282
2.9060190073917633,0.06714920096377025
2.9144667370644135,0.028281366662270314
2.9229144667370646,-0.01217069052767199
2.9313621964097147,-0.042870052959815434
2.939809926082365,-0.060759265140979506
2.9482576557550155,-0.06601210274990425
2.956705385427666,-0.060700971286759636
2.9651531151003163,-0.04712151419571463
2.973600844772967,-0.025737231567088802
2.9820485744456176,0.0029578457887257563
2.9904963041182677,0.033332500600933915
2.9989440337909183,0.054484099743434086
3.0073917634635685,0.05785117233235562
3.0158394931362196,0.04530820384505672
3.0242872228088697,0.02898447912793983
3.0327349524815204,0.02089178775237466
3.0411826821541705,0.024157107555267402
3.049630411826821,0.03296082515653685
3.0580781414994713,0.03792542424667463
3.0665258711721224,0.03523223372396874
3.0749736008447726,0.027635131269869606
3.083421330517423,0.016338609416792358
3.0918690601900733,0.0016168925322946706
3.100316789862724,-0.012423995036740854
3.1087645195353746,-0.021700801063123953
3.117212249208025,-0.027466676112646485
3.1256599788806754,-0.035146334583427315
3.134107708553326,-0.04725865241876439
3.142555438225976,-0.057473385423958946
3.1510031678986268,-0.056128359519932836
3.1594508975712774,-0.04369603634732287
3.167898627243928,-0.031097118570502277
3.176346356916578,-0.023827883687179446
3.184794086589229,-0.017792508098991685
3.193241816261879,-0.012712273845810047
3.20168954593453,-0.015768598194545735
3.21013727560718,-0.02993152564966412
3.218585005279831,-0.04903965278103779
3.227032734952481,-0.06360103322981943
3.2354804646251316,-0.06539389100198786
3.243928194297782,-0.05363370521522676
3.252375923970433,-0.03784762587496664
3.260823653643083,-0.02759337221635886
3.2692713833157336,-0.024241211077091783
3.277719112988384,-0.024374774037400664
3.2861668426610344,-0.025095110706988624
3.294614572333685,-0.02498338199250692
3.3030623020063357,-0.022862350391255382
3.311510031678986,-0.01959772241927994
3.3199577613516364,-0.019028222714617866
3.3284054910242866,-0.021912539678214518
3.3368532206969377,-0.02309162383823347
3.345300950369588,-0.018974961761693387
3.3537486800422385,-0.012183180469831877
3.3621964097148886,-0.006952092734678399
3.3706441393875393,-0.004053328229261196
3.3790918690601894,0.0012850919450983944
3.3875395987328405,0.01745539680538411
3.3959873284054907,0.04787143334732934
3.4044350580781413,0.08111061046131793
3.4128827877507915,0.09351633616652648
3.421330517423442,0.07189070301706851
3.4297782470960927,0.030356629754036826
3.4382259767687433,-0.005808509406699589
3.4466737064413935,-0.024703003593004473
3.455121436114044,-0.03143180299849427
3.4635691657866943,-0.03525295011569644
3.472016895459345,-0.03757108563796995
3.4804646251319955,-0.03379872992039495
3.488912354804646,-0.021327462967832722
3.4973600844772963,-0.0016525383904853592
3.505807814149947,0.023598212962315356
3.514255543822597,0.05996667914467959
3.522703273495248,0.11620639591224069
3.5311510031678983,0.17872334309521937
3.539598732840549,0.2043712113960508
3.548046462513199,0.1682548353867933
3.5564941921858497,0.10013671759939119
3.5649419218585,0.047434451095453495
3.573389651531151,0.030458179258513168
3.581837381203801,0.04506811124374317
3.5902851108764517,0.07368712731279389
3.598732840549102,0.08819738824356071
3.6071805702217525,0.0725529627840989
3.615628299894403,0.04106719994968418
3.6240760295670538,0.01615442265089944
3.632523759239704,0.0038874402216114577
3.6409714889123546,-0.0006215143805218102
3.6494192185850047,-0.001618220453155475
3.6578669482576553,-1.3208872019797313e-05
3.666314677930306,0.0046248055629477544
3.6747624076029566,0.011432119880446344
3.6832101372756068,0.017045685606788926
3.6916578669482574,0.01689569410757296
3.7001055966209075,0.009668811128055756
3.7085533262935586,-0.0006048719972837383
3.7170010559662088,-0.008769355642527578
3.7254487856388594,-0.012175477500619996
3.7338965153115096,-0.010215245979950459
3.74234424498416,-0.004918179419613217
3.750791974656811,-0.0023153182711089333
3.7592397043294614,-0.007862096997419582
3.7676874340021116,-0.019706662768383894
3.776135163674762,-0.030291075617657832
3.7845828933474124,-0.033887950946112855
3.793030623020063,-0.0314341327059499
3.8014783526927136,-0.029469307743157383
3.8099260823653642,-0.033456962177604965
3.8183738120380144,-0.04078607714615023
3.826821541710665,-0.042038297743420855
3.835269271383315,-0.0312812049472306
3.8437170010559663,-0.013663418970697276
3.8521647307286164,-0.0017680932262811389
3.860612460401267,-0.009756059396738148
3.869060190073917,-0.05022855312071843
3.877507919746568,-0.11572950402024348
3.885955649419218,-0.163702529725731
3.894403379091869,-0.15676894351766954
3.9028511087645192,-0.10857773191435718
3.91129883843717,-0.057476566089645104
3.9197465681098205,-0.022651719040881958
3.9281942977824706,-0.004218238483900502
3.9366420274551213,0.0020132019934270867
3.9450897571277714,0.0006043552932642111
3.953537486800422,-0.004029708293462484
3.9619852164730722,-0.007674477519491792
3.970432946145723,-0.005762107088532513
3.978880675818373,0.0015611788230381184
3.9873284054910236,0.00602469876189425
3.995776135163674,0.0010499065864379073
4.004223864836325,-0.009647235007249094
4.0126715945089755,-0.017926175475536543
4.021119324181626,-0.01939342552913964
4.029567053854277,-0.014528977592331153
4.038014783526926,-0.006275302470178898
4.046462513199577,0.002732937041255613
4.054910242872228,0.011053492747176197
4.063357972544878,0.017123778555171644
4.071805702217528,0.020627053369443888
4.080253431890179,0.02526115197131523
4.088701161562829,0.0344538393110739
4.097148891235481,0.04510154613289185
4.1055966209081305,0.050148565818215494
4.114044350580781,0.04512271154452919
4.122492080253432,0.030825553376978114
4.130939809926082,0.012558512535245054
4.139387539598732,-0.003855613458208085
4.147835269271383,-0.016106937592203895
4.156282998944033,-0.023787140269540926
4.164730728616684,-0.025266429880939714
4.173178458289334,-0.020333638068513526
4.181626187961984,-0.01347929908944319
4.190073917634636,-0.009976270489910016
4.198521647307286,-0.010591009545163519
4.206969376979936,-0.012754522483822469
4.215417106652587,-0.013634850113439165
4.223864836325237,-0.011057933418487511
4.232312565997888,-0.004793536808103882
4.240760295670538,0.00279460149555531
4.249208025343188,0.007593634084688968
4.257655755015839,0.005273558668624096
4.2661034846884895,-0.005175781178478096
4.274551214361139,-0.018948416476579768
4.282998944033791,-0.02812687349632818
4.291446673706441,-0.02852972041541221
4.299894403379092,-0.023965917835886842
4.308342133051742,-0.02066659524216385
4.316789862724392,-0.020405341589321762
4.325237592397043,-0.02290310070453091
4.333685322069694,-0.028284816301228213
4.342133051742343,-0.033558675458773966
4.350580781414994,-0.032241578805824685
4.3590285110876446,-0.019261364987754468
4.367476240760295,0.006482784349443874
4.375923970432946,0.04320512130921779
4.384371700105596,0.08156429646170686
4.392819429778247,0.10130752228600022
4.401267159450898,0.09170029067616206
4.409714889123547,0.06780609633947478
4.418162618796198,0.04745663515120995
4.426610348468849,0.03070339437342349
4.435058078141499,0.01151278409172707
4.443505807814149,-0.008498035623506567
4.4519535374868,-0.02066994939395071
4.46040126715945,-0.017686212165998517
4.468848996832102,-0.00015277784721796613
4.477296726504751,0.023180923825620963
4.485744456177402,0.04068931551505777
4.494192185850053,0.049730224880407334
4.502639915522703,0.056408240235439354
4.511087645195353,0.057318222524690696
4.519535374868004,0.04204882828092478
4.527983104540654,0.015250005550839127
4.536430834213305,-0.005216224200724072
4.544878563885955,-0.008022295249324636
4.553326293558605,0.004704409978440242
4.561774023231257,0.02153574700203996
4.570221752903907,0.02655058285093291
4.578669482576557,0.009103312265560952
4.587117212249208,-0.02638987839525948
4.595564941921858,-0.06212262392241266
4.604012671594509,-0.07710603550986184
4.612460401267159,-0.06282227088292791
4.620908130939809,-0.031706088674600216
4.62935586061246,-0.003673621450319407
4.6378035902851105,0.011321476875782664
4.64625131995776,0.014879031459555192
4.654699049630412,0.012382140566613095
4.663146779303062,0.006653169862787935
4.671594508975713,-0.003632185873940492
4.680042238648363,-0.02232641315743159
4.688489968321013,-0.05360890486483356
4.696937697993664,-0.09777150565971462
4.7053854276663145,-0.14040138386302262
4.713833157338964,-0.1494422404520693
4.722280887011615,-0.10421788330123874
4.7307286166842655,-0.024489278677102336
4.739176346356916,0.04421934114792395
4.747624076029567,0.06552043055153113
4.756071805702217,0.038272948323777686
4.764519535374868,-0.004054322482853038
4.772967265047519,-0.029179964430712114
4.781414994720168,-0.03167517526811926
4.789862724392819,-0.02264663409413022
4.7983104540654695,-0.013162578796211813
4.80675818373812,-0.00800129878395269
4.81520591341077,-0.004756746512634989
4.8236536430834205,0.004245884336458712
4.832101372756072,0.026716801591779887
4.840549102428723,0.06315337352057937
4.848996832101372,0.10096003292346191
4.857444561774023,0.1195139672802836
4.865892291446674,0.10972246034738961
4.874340021119324,0.08366493570469888
4.882787750791974,0.060659638370899494
4.8912354804646245,0.0515452223819541
4.899683210137275,0.05253974590612682
4.908130939809926,0.048109057345975474
4.9165786694825755,0.02840330429433241
4.925026399155227,0.001974267611212761
4.933474128827878,-0.017844281790708724
4.941921858500527,-0.028533121536009395
4.950369588173178,-0.0330827834597377
4.958817317845829,-0.031165273062439824
4.967265047518479,-0.02198723731500604
4.975712777191129,-0.009170632080666215
4.9841605068637795,0.00153546342389334
4.99260823653643,0.007119023264180116
5.001055966209081,0.008405155360752082
5.0095036958817305,0.007181956953333004
5.017951425554382,0.004474267105976002
5.026399155227033,0.002027934935030648
5.034846884899683,0.003438786475374084
5.043294614572333,0.011545469397511776
5.051742344244984,0.022835842764684408
5.060190073917634,0.027395201523210472
5.068637803590285,0.01862848498517143
5.0770855332629345,0.0005991599396554508
5.085533262935585,-0.01639735937921913
5.093980992608236,-0.023521841361477277
5.102428722280886,-0.01680391729168891
5.110876451953537,0.0013128691488766653
5.119324181626188,0.02221934542675478
5.127771911298838,0.03571082969519036
5.136219640971489,0.03656206569549494
5.144667370644139,0.02660690920948004
5.153115100316789,0.011207224403330447
5.16156282998944,-0.003442930582201552
5.17001055966209,-0.011747405736821806
5.17845828933474,-0.012658268457895909
5.186906019007391,-0.011159450580521122
5.195353748680041,-0.0137943771969229
5.203801478352693,-0.02282697431268006
5.212249208025343,-0.033328642029655665
5.220696937697993,-0.03575569778654029
5.229144667370644,-0.024224199104460265
5.2375923970432945,-0.004055026398771811
5.246040126715944,0.013110627839961555
5.254487856388595,0.021282538378373673
5.2629355860612455,0.020862385837297097
5.271383315733896,0.012820581234323277
5.279831045406546,-0.0009389956876972201
5.288278775079196,-0.015461273037747154
5.296726504751848,-0.02453945932260937
5.3051742344244985,-0.024488696950417804
5.313621964097148,-0.017175277453618198
5.322069693769799,-0.009117952775601387
5.3305174234424495,-0.0045412789459235445
5.3389651531151,0.0010618272875477512
5.34741288278775,0.01829582227475248
5.3558606124604005,0.05410804141271066
5.364308342133051,0.09970657076349002
5.372756071805702,0.12739794395845963
5.381203801478351,0.11460170553416808
5.389651531151003,0.07085517804994766
5.3980992608236535,0.025367319732792215
5.406546990496304,-0.0024129395470162737
5.414994720168954,-0.010088639146712937
5.4234424498416045,-0.005261569303348658
5.431890179514255,0.0016304552251859778
5.440337909186906,0.003935170864608508
5.4487856388595555,0.0012069178787180264
5.457233368532206,-0.003575549658675851
5.465681098204857,-0.0071539067000623855
5.474128827877507,-0.007564840515693138
5.482576557550158,-0.005095311574005073
5.4910242872228086,-0.002796167080042259
5.499472016895459,-0.005120988985149036
5.50791974656811,-0.01455785995322378
5.5163674762407595,-0.029204737979854664
5.52481520591341,-0.04205886306195119
5.533262935586061,-0.042996163825632025
5.541710665258711,-0.028208964765152195
5.550158394931361,-0.007073601720643393
5.558606124604012,0.008303858777681913
5.567053854276662,0.014356669000207309
5.575501583949314,0.010199150503904625
5.583949313621964,-0.010550703331468595
5.592397043294614,-0.0575522441140845
5.600844772967265,-0.13415804132644893
5.609292502639915,-0.2173404576023248
5.617740232312565,-0.2545342910208966
5.626187961985216,-0.21614706178052254
5.634635691657866,-0.13492325815150827
5.643083421330517,-0.061502581059114214
5.651531151003167,-0.015490244647711102
5.659978880675818,0.005961329973220355
5.668426610348469,0.009446026473868815
5.6768743400211195,0.004129143638196797
5.685322069693769,0.0003080177158473899
5.69376979936642,0.001899217359562158
5.70221752903907,0.004279539685902844
5.710665258711721,0.0011302390591835403
5.719112988384371,-0.0082168903453689
5.727560718057021,-0.017675189080596312
5.736008447729672,-0.019153675481167882
5.744456177402323,-0.010141507475772275
5.752903907074973,0.0027277600959496927
5.761351636747624,0.010304733966309165
5.7697993664202745,0.009350175039743364
5.778247096092925,0.003372492654909996
5.786694825765575,-0.0010217373676237405
5.795142555438225,-0.0008152942307460035
5.803590285110876,-0.0002458500171164399
5.812038014783527,-0.003887161990994573
5.820485744456176,-0.010976297974667546
5.828933474128827,-0.018812680856520676
5.837381203801478,-0.02522158878499396
5.845828933474129,-0.0266346313282178
5.854276663146779,-0.01830630088641652
5.8627243928194295,0.0015089480380017072
5.87117212249208,0.028425235408783486
5.87961985216473,0.05188900044638734
5.88806758183738,0.059287321467940496
5.896515311510031,0.046749554754612434
5.904963041182682,0.024936730136947728
5.913410770855332,0.008127026114736821
5.921858500527982,0.0003261810094649623
5.930306230200633,-0.004670604581019441
5.938753959873284,-0.012131062716800145
5.947201689545934,-0.019010865827174667
5.9556494192185845,-0.019114739524906554
5.964097148891235,-0.012462695125086607
5.972544878563886,-0.00485265282775462
5.9809926082365354,0.0014886597239231354
5.989440337909186,0.010422140076785515
5.997888067581837,0.02274059922049888
6.006335797254487,0.03184235770767921
6.014783526927137,0.032106625215111394
6.023231256599788,0.025599875988817574
6.031678986272439,0.020243953932439284
6.04012671594509,0.02299440644878645
6.0485744456177395,0.0308202179574426
6.05702217529039,0.03269388997230011
6.065469904963041,0.02412807466969463
6.073917634635691,0.013842609108160365
6.082365364308341,0.01404972039972024
6.090813093980992,0.025436075778389588
6.099260823653642,0.036494907412695336
6.107708553326293,0.0418182716354993
6.116156282998943,0.05068385316065821
6.124604012671594,0.06786442635132492
6.133051742344245,0.07687984422364037
6.141499472016895,0.056763959653238605
6.149947201689545,0.007327915025166673
6.158394931362196,-0.05265849344327259
6.166842661034846,-0.09807325230477111
6.175290390707497,-0.10611247703816055
6.183738120380147,-0.07397597255120499
6.192185850052797,-0.025702286803987902
6.200633579725448,0.012127304287116003
6.2090813093980985,0.031373722060663405
6.217529039070749,0.035752652897747914
6.2259767687434,0.03026804875817836
6.23442449841605,0.020837282013085857
6.242872228088701,0.012672432405440274
6.251319957761351,0.005763910726204914
6.259767687434001,-0.002910485087817779
6.268215417106652,-0.013379372332349962
6.276663146779303,-0.022613684269639875
6.285110876451952,-0.02765374784136369
6.293558606124603,-0.02726461517901988
6.3020063357972536,-0.023318874441501658
6.310454065469905,-0.019308840718013708
6.318901795142555,-0.01677305648963342
6.327349524815205,-0.01500951605965686
6.335797254487856,-0.013902292406344647
6.344244984160507,-0.01588130496256193
6.352692713833156,-0.023014643021203894
6.361140443505807,-0.03212105849298687
6.369588173178458,-0.035388691913066136
6.378035902851108,-0.02687839345923362
6.386483632523758,-0.009795004532224087
6.394931362196409,0.0051113651269231895
6.40337909186906,0.013298281049449854
6.411826821541711,0.022796020089568197
6.42027455121436,0.03965599819815071
6.428722280887011,0.0553322355182921
6.437170010559662,0.05877713273158425
6.445617740232312,0.05321904348397457
6.454065469904962,0.04836861443050451
6.462513199577613,0.04446714864492131
6.470960929250263,0.03659278131827644
6.479408658922914,0.02423445810904172
6.487856388595564,0.009179025404889936
6.496304118268215,-0.006507967151275459
6.504751847940866,-0.020268831005697954
6.513199577613516,-0.030672415313324448
6.521647307286166,-0.03600145443741236
6.530095036958817,-0.031163253911524497
6.538542766631467,-0.009554319682577554
6.546990496304118,0.027299836267084796
6.555438225976768,0.061121587089512396
6.563885955649418,0.06748921147716468
6.572333685322069,0.041497938196976975
6.58078141499472,0.003445315381467305
6.58922914466737,-0.023937555265331572
6.597676874340021,-0.03307070720150631
6.606124604012671,-0.028779659566289792
6.614572333685322,-0.01932121322792587
6.623020063357972,-0.011328716749250706
6.631467793030622,-0.009297481539904343
6.639915522703273,-0.015011262545249263
6.6483632523759235,-0.025184964353170428
6.656810982048573,-0.03270012320051893
6.665258711721224,-0.0313018877775433
6.673706441393875,-0.017637547630607882
6.682154171066526,0.007677420260231207
6.690601900739176,0.036088680297492425
6.699049630411826,0.05298871423693314
6.707497360084477,0.050110455776077645
6.715945089757128,0.032419509529017725
6.724392819429777,0.012115661038998915
6.732840549102428,0.0014267503437281575
6.7412882787750785,0.0076648367963643846
6.749736008447729,0.026726773747540317
6.758183738120379,0.0423312705881101
6.76663146779303,0.040378204158273825
6.775079197465681,0.02261060962265929
6.783526927138332,0.0002756181739601302
6.791974656810981,-0.01752736052921251
6.800422386483632,-0.025955199372247852
6.808870116156283,-0.024169375844283372
6.817317845828933,-0.01520049411389834
6.825765575501583,-0.003164193404670883
6.8342133051742335,0.00720429216316163
6.842661034846884,0.008323272181789583
6.851108764519535,-0.00512740351522193
6.859556494192185,-0.028222025459337125
6.868004223864836,-0.04894477977381126
6.876451953537487,-0.05899912629276608
6.884899683210136,-0.05952715278824826
6.893347412882787,-0.055452044796464116
6.901795142555438,-0.04690801354854723
6.910242872228088,-0.03090982379348932
6.918690601900738,-0.008838455549826825
6.9271383315733885,0.01236203018181111
6.935586061246039,0.025767165828386437
6.94403379091869,0.02923192217576274
6.95248152059134,0.02468518200659059
6.960929250263991,0.015396538847533146
6.969376979936642,0.0050539921035341225
6.977824709609292,-0.0032588110759579608
6.986272439281942,-0.008670930308801382
6.994720168954593,-0.012044691981269841
7.003167898627243,-0.014288729268979103
7.011615628299894,-0.017082590342832688
7.0200633579725435,-0.023085310179045398
7.028511087645194,-0.03211877470513507
7.036958817317845,-0.03792730647677946
7.045406546990496,-0.028786351544663615
7.053854276663146,0.005984155069800724
7.062302006335797,0.06354791927499165
7.070749736008447,0.11891482488285209
7.079197465681098,0.1373275074147215
7.087645195353748,0.10858666558958702
7.096092925026398,0.06012039798792366
7.104540654699049,0.02408515785167898
7.1129883843716994,0.007527409303120293
7.121436114044349,-0.00032818789537682365
7.129883843717,-0.010919488878594162
7.138331573389651,-0.03169575615497693
7.146779303062302,-0.066080140159256
7.155227032734952,-0.1066851013045031
7.163674762407602,-0.1315538728676466
7.172122492080253,-0.12046658428977854
7.1805702217529035,-0.07223594297586053
7.189017951425553,0.00021087980349182057
7.197465681098204,0.07354902666681574
7.2059134107708545,0.11233727677474127
7.214361140443505,0.09564413120861048
7.222808870116155,0.04526819820535265
7.231256599788806,0.0026633343432363177
7.239704329461457,-0.014701537469838384
7.2481520591341075,-0.01741758355132294
7.256599788806757,-0.01723382781416858
7.265047518479408,-0.015799976944420827
7.2734952481520585,-0.012970836865998984
7.281942977824709,-0.00979640047871715
7.290390707497359,-0.006273154533284405
7.2988384371700095,-0.0022663205492765327
7.30728616684266,0.002176420503168252
7.315733896515311,0.008719118536633073
7.324181626187961,0.02122117770911792
7.332629355860612,0.04084301489721315
7.3410770855332625,0.05936606860956868
7.349524815205913,0.06377794758908238
7.357972544878563,0.0500327001525412
7.3664202745512135,0.026203850613784833
7.374868004223864,0.001965246120219626
7.383315733896515,-0.018927235210370534
7.3917634635691645,-0.037369137710784296
7.400211193241815,-0.05547155125927125
7.408658922914467,-0.07304451796230103
7.417106652587117,-0.0859963704409389
7.425554382259767,-0.08871595220924088
7.4340021119324176,-0.07916533277185807
7.442449841605068,-0.061800998746366305
7.450897571277719,-0.043694506798599486
7.4593453009503685,-0.030083234064223564
7.467793030623019,-0.02267131460448214
7.47624076029567,-0.01893749792909996
7.48468848996832,-0.015855134878288827
7.49313621964097,-0.013390433787262285
7.501583949313622,-0.009870189653268474
7.510031678986272,0.0036659747872312613
7.518479408658923,0.037344803616150404
7.526927138331573,0.0891092359810389
7.535374868004223,0.14068736034199444
7.543822597676874,0.1675338799921416
7.552270327349524,0.15598015878603375
7.560718057022174,0.11449555979363771
7.569165786694825,0.0645265110475978
7.577613516367475,0.02313422878562372
7.586061246040126,-0.001040189236665403
7.594508975712777,-0.006911402840533259
7.602956705385427,-0.002945903656879494
7.611404435058078,-0.0017204071399464973
7.6198521647307285,-0.008069349363236973
7.628299894403378,-0.015175236038595484
7.636747624076029,-0.01350185372931508
7.645195353748679,0.0006736310915933332
7.65364308342133,0.02638181006727981
7.66209081309398,0.0582346071326139
7.67053854276663,0.08146075193046022
7.678986272439281,0.07861384080460596
7.6874340021119325,0.04804484303061653
7.695881731784582,0.0059334193478174065
7.704329461457233,-0.029534022246139737
7.7127771911298835,-0.046939719450468015
7.721224920802534,-0.043950586960577284
7.729672650475184,-0.02969563365506937
7.738120380147834,-0.018115390465934397
7.746568109820485,-0.016889157783775283
7.755015839493136,-0.026311556245329853
7.763463569165785,-0.04481532457198301
7.771911298838436,-0.06699481892033321
7.7803590285110875,-0.0792300171565594
7.788806758183738,-0.0708580319623492
7.797254487856388,-0.04754246753710439
7.8057022175290385,-0.022637578444247037
7.814149947201688,-0.004131607183135615
7.82259767687434,0.003372461078249005
7.83104540654699,-0.0027123446720198853
7.839493136219641,-0.015538760450983952
7.847940865892292,-0.016054102987815965
7.856388595564941,0.014076085844039552
7.864836325237592,0.07223897684943302
7.8732840549102425,0.12893717837296695
7.881731784582893,0.1450632860401091
7.890179514255543,0.10565013263982834
7.8986272439281935,0.03752308644101524
7.907074973600844,-0.017385064471800334
7.915522703273495,-0.03797764657311199
7.9239704329461444,-0.029753949830751147
7.932418162618795,-0.010836666429330167
7.940865892291446,0.003095824667908577
7.949313621964096,0.006428992446983926
7.957761351636746,0.001262551656775669
7.966209081309397,-0.008025826302448509
7.974656810982047,-0.01726344088186865
7.983104540654698,-0.024375766998201476
7.991552270327348,-0.03036496684847239
7.999999999999998,-0.035655267414989734
8.00844772967265,-0.037842403927207766
8.016895459345301,-0.03597524134068239
8.025343189017951,-0.032605441122294056
8.033790918690602,-0.02914207190542478
8.042238648363252,-0.02370145424760443
8.050686378035902,-0.014569593032593506
8.059134107708553,-0.0012950737999406427
8.067581837381203,0.018123825838408457
8.076029567053853,0.04674494107117314
8.084477296726504,0.07905710751103451
8.092925026399154,0.09563853762045854
8.101372756071806,0.08388170295386253
8.109820485744455,0.05682037339864181
8.118268215417105,0.03344727018960668
8.126715945089757,0.016389840529884795
8.135163674762406,0.0014048654968416923
8.143611404435056,-0.00926044166900745
8.152059134107708,-0.011399047001478953
8.160506863780357,-0.006467875182011104
8.168954593453009,-0.0006730902770292167
8.177402323125659,-0.0006570192445256424
8.185850052798308,-0.01021940945746793
8.194297782470962,-0.02654590226180805
8.202745512143611,-0.03966461346231825
8.211193241816261,-0.04156104728405801
8.219640971488912,-0.035336513863282
8.228088701161562,-0.029638408911121236
8.236536430834214,-0.026381406322241473
8.244984160506863,-0.019435188316741733
8.253431890179513,-0.0038199120536998935
8.261879619852165,0.01740125287510752
8.270327349524814,0.035716792118643044
8.278775079197464,0.04473746251501153
8.287222808870116,0.04409924266619629
8.295670538542765,0.03780985957722857
8.304118268215417,0.027223877263364185
8.312565997888067,0.005088998759857586
8.321013727560716,-0.034979397518033986
8.329461457233368,-0.08089338622904875
8.337909186906018,-0.10383017509980702
8.346356916578667,-0.08665528240022416
8.354804646251319,-0.04433553398819099
8.363252375923969,-0.005143302398575474
8.37170010559662,0.017238521969563894
8.380147835269272,0.025134949934018998
8.388595564941921,0.025027968528237885
8.397043294614573,0.022241794138225354
8.405491024287223,0.021229692019170767
8.413938753959872,0.02247801600290409
8.422386483632524,0.020876151403067505
8.430834213305173,0.01324985494955937
8.439281942977825,0.0026453128799009172
8.447729672650475,-0.005930864568944478
8.456177402323124,-0.00903732729402993
8.464625131995776,-0.006402930863666942
8.473072861668426,-5.569843238027706e-05
8.481520591341075,0.007505367411708138
8.489968321013727,0.012532042540090896
8.498416050686377,0.011820775029628156
8.506863780359028,0.00502797123400798
8.515311510031678,-0.006873846853236669
8.523759239704328,-0.021339818516563754
8.532206969376979,-0.03306143150776378
8.540654699049629,-0.03635716335733653
8.549102428722279,-0.02919664291566613
8.55755015839493,-0.01585617917635746
8.565997888067582,-0.004823027999926531
8.574445617740233,-0.0018888603371607655
8.582893347412883,-0.006520934831800289
8.591341077085533,-0.015546054431044336
8.599788806758184,-0.025545081978415395
8.608236536430834,-0.03151259399952895
8.616684266103483,-0.030244258728345172
8.625131995776135,-0.02257707513324174
8.633579725448785,-0.008547102429144696
8.642027455121436,0.011037002376177257
8.650475184794086,0.02860054628706991
8.658922914466736,0.033870638176569
8.667370644139387,0.021844215735223552
8.675818373812037,-0.004930610903348779
8.684266103484687,-0.038264550524586424
8.692713833157338,-0.06666674002861257
8.701161562829988,-0.07855983764501742
8.70960929250264,-0.0703277791846002
8.718057022175289,-0.050132158037177334
8.726504751847939,-0.028177180840648054
8.73495248152059,-0.007888801251728325
8.743400211193242,0.011762561644627483
8.751847940865892,0.03151475327157949
8.760295670538543,0.04819444240653171
8.768743400211193,0.05363997400103545
8.777191129883843,0.043277703740876784
8.785638859556494,0.025302735809074207
8.794086589229144,0.013072125454411054
8.802534318901795,0.0110698031145447
8.810982048574445,0.014546577375179365
8.819429778247095,0.01791089786499536
8.827877507919746,0.017904780869901944
8.836325237592396,0.012680784053220154
8.844772967265047,0.004280456323745843
8.853220696937697,-0.0016543061754766611
8.861668426610347,-0.002862158404734779
8.870116156282998,-0.0016931284536477167
8.878563885955648,-0.0004263731721289363
8.887011615628298,4.134136917580038e-05
8.89545934530095,-0.00046537985065791095
8.9039070749736,-0.002702485670311793
8.912354804646249,-0.007965433326238874
8.9208025343189,-0.01482623743536933
8.929250263991552,-0.018856125918893796
8.937697993664203,-0.01678765373298854
8.946145723336853,-0.009194718444333835
8.954593453009503,2.1278432214490335e-06
8.963041182682154,0.005741856037924156
8.971488912354804,0.004442493030059418
8.979936642027454,-0.0038956992892742086
8.988384371700105,-0.014335071104175192
8.996832101372755,-0.018711741338486857
9.005279831045407,-0.01084747304959383
9.013727560718056,0.009767798631464559
9.022175290390706,0.036561493854926
9.030623020063357,0.05688469102590977
9.039070749736007,0.06224771726537431
9.047518479408657,0.05781516692258103
9.055966209081308,0.05177601856909616
9.064413938753958,0.040927821442065596
9.07286166842661,0.01955353475380727
9.08130939809926,-0.006293668117905903
9.08975712777191,-0.025597662962831873
9.09820485744456,-0.03450972442563862
9.10665258711721,-0.035183292443453994
9.115100316789862,-0.030303065243697424
9.123548046462513,-0.021303188152163283
9.131995776135163,-0.009222467246908141
9.140443505807815,0.002621772800089403
9.148891235480464,0.008019979278407198
9.157338965153114,0.003612884215449974
9.165786694825766,-0.004203901736849201
9.174234424498415,-0.002225064998095974
9.182682154171065,0.01486532932514424
9.191129883843717,0.03601699499692133
9.199577613516366,0.04806598316792226
9.208025343189018,0.05120234043572883
9.216473072861668,0.05194991942403707
9.224920802534317,0.04916950155471715
9.233368532206969,0.03366383804020089
9.241816261879618,0.0019612692556082246
9.250263991552268,-0.03552536004287475
9.25871172122492,-0.06718968305585518
9.26715945089757,-0.09357690148160062
9.275607180570221,-0.11639819624665682
9.28405491024287,-0.12196344952108137
9.29250263991552,-0.09763173971721625
9.300950369588174,-0.05675477999971746
9.309398099260823,-0.02409513212352179
9.317845828933473,-0.009838812675072731
9.326293558606125,-0.00874787794275286
9.334741288278774,-0.009799727146440923
9.343189017951426,-0.003803370139393152
9.351636747624076,0.011530773082236455
9.360084477296725,0.03245196489467171
9.368532206969377,0.053603800943921406
9.376979936642027,0.06897062122561007
9.385427666314676,0.07014197812938172
9.393875395987328,0.05036066488443947
9.402323125659978,0.012089354333880618
9.410770855332629,-0.030490235101046426
9.419218585005279,-0.057685226566716555
9.427666314677928,-0.0607564272530117
9.43611404435058,-0.05054893567700239
9.44456177402323,-0.0435613719157557
9.45300950369588,-0.04697024484202398
9.461457233368531,-0.05613573499796491
9.46990496304118,-0.05909382485995322
9.478352692713832,-0.04959509483133036
9.486800422386484,-0.03495564536636613
9.495248152059133,-0.02433808936505701
9.503695881731785,-0.017516567699842594
9.512143611404435,-0.010136289796714843
9.520591341077084,-0.002394244687581185
9.529039070749736,0.002276424570622304
9.537486800422386,0.002749680090189794
9.545934530095037,-0.0002583659671560666
9.554382259767687,-0.0041687972825693136
9.562829989440337,-0.003156413498372637
9.571277719112988,0.005685624762361279
9.579725448785638,0.018426310940200488
9.588173178458288,0.02990271892460774
9.596620908130939,0.03841310039584703
9.605068637803589,0.04492523769801557
9.61351636747624,0.049288034895897094
9.62196409714889,0.04795785849362081
9.63041182682154,0.03821978078902134
9.638859556494191,0.02338540414117262
9.647307286166841,0.01048964751533667
9.65575501583949,0.0032443607929582303
9.664202745512144,-0.0010214623896077379
9.672650475184794,-0.005680157014468387
9.681098204857445,-0.006247865102506819
9.689545934530095,0.008828490088456487
9.697993664202745,0.0455874948637941
9.706441393875396,0.08963092391141222
9.714889123548046,0.10830796851940173
9.723336853220696,0.08134538224720486
9.731784582893347,0.024284683137980087
9.740232312565997,-0.026732659343718324
9.748680042238648,-0.0422486117984695
9.757127771911298,-0.018904083891648216
9.765575501583948,0.017893398839334208
9.7740232312566,0.04111672385049704
9.782470960929249,0.04565383063530032
9.790918690601899,0.03955964677561839
9.79936642027455,0.029064612695655558
9.8078141499472,0.016750042438181057
9.816261879619852,0.004073751823829046
9.824709609292501,-0.007811814595656877
9.833157338965151,-0.017012095554418186
9.841605068637802,-0.02193873151271706
9.850052798310454,-0.02497224344160455
9.858500527983104,-0.030975718614782474
9.866948257655755,-0.04123237746759457
9.875395987328405,-0.05100652173533357
9.883843717001055,-0.0504294330624532
9.892291446673706,-0.028879971002210608
9.900739176346356,0.01061689230342389
9.909186906019007,0.04437422476615749
9.917634635691657,0.05155774208204073
9.926082365364307,0.03620578697881311
9.934530095036958,0.01453342635449761
9.942977824709608,-0.0037219891033431927
9.951425554382258,-0.015084602001474316
9.95987328405491,-0.01720699374455845
9.968321013727559,-0.009073245376592223
9.97676874340021,0.00844093195861664
9.98521647307286,0.03294693638431236
9.99366420274551,0.05858511890769158
10.002111932418162,0.07480510231143525
10.010559662090811,0.07257725397578373
10.019007391763461,0.05492223379180837
10.027455121436113,0.03548122814483938
10.035902851108764,0.022269349626295773
10.044350580781416,0.011104713092015583
10.052798310454065,-0.0011200276237404798
10.061246040126715,-0.009020732127197607
10.069693769799366,-0.009195703924003247
10.078141499472016,-0.006872194295477006
10.086589229144666,-0.008978875567174754
10.095036958817317,-0.016639177652640662
10.103484688489967,-0.02519102330911137
10.111932418162619,-0.029685211522598186
10.120380147835268,-0.02969299444853915
10.128827877507918,-0.02873234854826812
10.13727560718057,-0.030607926887752095
10.14572333685322,-0.03726147131012138
10.154171066525869,-0.048283529918176124
10.16261879619852,-0.05904169275289788
10.17106652587117,-0.061228427275725396
10.179514255543822,-0.053128040307045016
10.187961985216472,-0.045454215506000886
10.196409714889121,-0.04700704510736806
10.204857444561773,-0.05222101898096812
10.213305174234423,-0.05101618389902569
10.221752903907074,-0.041438851891029735
10.230200633579726,-0.0279196748360472
10.238648363252375,-0.015073064762417222
10.247096092925027,-0.006240692424915716
10.255543822597676,-0.00405176815663985
10.263991552270326,-0.009101321917627105
10.272439281942978,-0.01835424870399582
10.280887011615627,-0.0269821384035236
10.289334741288277,-0.032061226903668257
10.297782470960929,-0.03407083257347298
10.306230200633578,-0.03426794846288456
10.31467793030623,-0.03156539200098825
10.32312565997888,-0.02510060097605935
10.33157338965153,-0.01677366843927731
10.34002111932418,-0.008341225825886292
10.34846884899683,-0.0008978567644261306
10.35691657866948,0.004246529375481519
10.365364308342132,0.007518727746798537
10.373812038014782,0.009607040782317765
10.382259767687433,0.00912382349002273
10.390707497360083,0.005627242483974712
10.399155227032734,0.002289056353470428
10.407602956705386,0.0037671405452007053
10.416050686378036,0.012053455861446455
10.424498416050685,0.024152741093714607
10.432946145723337,0.03451058449391393
10.441393875395987,0.03966262637220162
10.449841605068638,0.03952651749334253
10.458289334741288,0.03565907768039586
10.466737064413937,0.03129308269913782
10.475184794086589,0.03210188250048902
10.483632523759239,0.04103013107110549
10.492080253431888,0.052460077354406276
10.50052798310454,0.05740867948583136
10.50897571277719,0.051700235565678015
10.517423442449841,0.03654380243066724
10.525871172122491,0.01743612602444143
10.53431890179514,0.001956979469921568
10.542766631467792,-0.006051138368933362
10.551214361140442,-0.00812645852198191
10.559662090813092,-0.007469161240265977
10.568109820485743,-0.007265311488361905
10.576557550158393,-0.010546609507551657
10.585005279831046,-0.019901032547599323
10.593453009503696,-0.03781410353238361
10.601900739176346,-0.06214427647665122
10.610348468848997,-0.07843984643087028
10.618796198521647,-0.0645702704011817
10.627243928194297,-0.01210341875956664
10.635691657866948,0.05667071492167941
10.644139387539598,0.10175230385767328
10.65258711721225,0.10299076784392934
10.661034846884899,0.07562130808533561
10.669482576557549,0.044149950960524646
10.6779303062302,0.02025228439192931
10.68637803590285,0.006950859953975477
10.6948257655755,0.004233182245394675
10.703273495248151,0.008676496111851163
10.711721224920801,0.014660739192643399
10.720168954593452,0.017888908004893827
10.728616684266102,0.017923601231424828
10.737064413938752,0.016544949176683973
10.745512143611403,0.015291712143092636
10.753959873284053,0.015227994439497976
10.762407602956703,0.015599211614729765
10.770855332629356,0.014036536750515935
10.779303062302006,0.010539622134155803
10.787750791974656,0.006929560330197917
10.796198521647307,0.003094435081395532
10.804646251319957,-0.0007079457939362753
10.813093980992608,-0.0011555098168234107
10.821541710665258,0.003729257975919921
10.829989440337908,0.011088046294571007
10.83843717001056,0.01702894700527202
10.846884899683209,0.019271032427645912
10.855332629355859,0.015239784453993023
10.86378035902851,0.004141086471654355
10.87222808870116,-0.010385580015273406
10.880675818373811,-0.024474568917016413
10.889123548046461,-0.036478142546530215
10.897571277719111,-0.0442964863627311
10.906019007391762,-0.04605517957327983
10.914466737064412,-0.04207449935422485
10.922914466737062,-0.03289194608995408
10.931362196409713,-0.01804528078008312
10.939809926082363,0.001144427903466349
10.948257655755015,0.018858587178045103
10.956705385427666,0.024567911621848043
10.965153115100316,0.005831381747627843
10.973600844772967,-0.04104762599674646
10.982048574445617,-0.09794928803170934
10.990496304118267,-0.1313606329037718
10.998944033790918,-0.12300380666860161
11.007391763463568,-0.08663457469202651
11.01583949313622,-0.04633959665953629
11.02428722280887,-0.01438912193820285
11.032734952481519,0.006147751989385225
11.04118268215417,0.017526675898116198
11.04963041182682,0.027619273372992113
11.05807814149947,0.0391857566459399
11.066525871172121,0.04100329373263518
11.074973600844771,0.023247738579316644
11.083421330517423,-0.004998890861812913
11.091869060190072,-0.025279097682564557
11.100316789862722,-0.027182034934395038
11.108764519535374,-0.012835834501169374
11.117212249208023,0.007958811755379894
11.125659978880673,0.02725369188697188
11.134107708553325,0.04255738745196628
11.142555438225976,0.04942039366671726
11.151003167898628,0.04012499591654542
11.159450897571277,0.016183031153478144
11.167898627243927,-0.008988942248599953
11.176346356916579,-0.024442402759828615
11.184794086589228,-0.027834412276702587
11.193241816261878,-0.021189139752109835
11.20168954593453,-0.010950553336309133
11.21013727560718,-0.0055646551157899375
11.21858500527983,-0.007743499749265479
11.22703273495248,-0.012486346866491011
11.23548046462513,-0.012207241839385832
11.243928194297782,-0.0038237512179030582
11.252375923970432,0.006767780940966289
11.260823653643081,0.009787440103427636
11.269271383315733,0.0034418199933196453
11.277719112988382,-0.004922873232344145
11.286166842661034,-0.0091161910974639
11.294614572333684,-0.007354483408585564
11.303062302006333,-0.00020722525540018755
11.311510031678985,0.008795969991241324
11.319957761351636,0.01737720103400326
11.328405491024286,0.02841286770693597
11.336853220696938,0.042446238186231715
11.345300950369587,0.05135436900010905
11.353748680042239,0.046781368382786376
11.362196409714889,0.03076701275441782
11.370644139387538,0.013168008565638132
11.37909186906019,0.00198627259650783
11.38753959873284,-0.0012272978767800527
11.39598732840549,-0.00028498704658474724
11.40443505807814,-0.0008792471894932374
11.41288278775079,-0.00598378776432324
11.421330517423442,-0.014071997976971411
11.429778247096092,-0.02094834319074754
11.438225976768742,-0.02260031026170565
11.446673706441393,-0.017720557424174017
11.455121436114043,-0.006983293533712784
11.463569165786692,0.0070444079086317574
11.472016895459344,0.018039776164361233
11.480464625131994,0.020352480714613534
11.488912354804645,0.011767101573731547
11.497360084477295,-0.012025756989151008
11.505807814149946,-0.05551498606906992
11.514255543822598,-0.10916717972526654
11.522703273495248,-0.14481041966601807
11.531151003167897,-0.14033234237148237
11.539598732840549,-0.10519855551598811
11.548046462513199,-0.06532634203708301
11.55649419218585,-0.032075601679456806
11.5649419218585,0.0009834177734602332
11.57338965153115,0.04057284949979916
11.581837381203801,0.07857656960816324
11.59028511087645,0.09297925759678853
11.5987328405491,0.07155674821314152
11.607180570221752,0.030274408061252107
11.615628299894402,-0.002394203206555182
11.624076029567053,-0.011456567598415755
11.632523759239703,-0.0018158024295120492
11.640971488912353,0.013842283771419078
11.649419218585004,0.029252411480793748
11.657866948257654,0.045160616101485335
11.666314677930304,0.06033496046406225
11.674762407602955,0.06760329324016265
11.683210137275605,0.05842273803683707
11.691657866948258,0.030703506777974517
11.700105596620908,-0.006053294291118054
11.708553326293558,-0.03466455676310225
11.71700105596621,-0.044595183054537926
11.725448785638859,-0.040485538647060684
11.733896515311509,-0.032498670436237324
11.74234424498416,-0.025185934307104436
11.75079197465681,-0.018076787248228247
11.75923970432946,-0.009645875253915139
11.767687434002111,0.00010742700196463223
11.77613516367476,0.008891261252983538
11.784582893347412,0.015331473563025675
11.793030623020062,0.019987290880291234
11.801478352692712,0.021727188666190958
11.809926082365363,0.019615228197997332
11.818373812038013,0.017143004619421552
11.826821541710665,0.017475939411013476
11.835269271383314,0.01814691176068651
11.843717001055964,0.015089781431654743
11.852164730728616,0.008126254405708515
11.860612460401265,-0.00047683724452680953
11.869060190073915,-0.009209245001084351
11.877507919746568,-0.01491640348347621
11.885955649419218,-0.011162487966065745
11.894403379091868,0.0057881829272456425
11.90285110876452,0.030894744590675184
11.911298838437169,0.050479396008977766
11.91974656810982,0.05222172159994637
11.92819429778247,0.03946528331187686
11.93664202745512,0.025688312505690855
11.945089757127771,0.016258892941216643
11.953537486800421,0.008849312474462344
11.961985216473071,0.0038677809482198944
11.970432946145722,0.005075898449562499
11.978880675818372,0.013211494074002994
11.987328405491024,0.020569348814184565
11.995776135163673,0.016292044571884313
12.004223864836323,0.00027850360384778974
12.012671594508975,-0.013433676012848462
12.021119324181624,-0.008973513647123597
12.029567053854274,0.018019795858166196
12.038014783526926,0.05505133957353922
12.046462513199575,0.07971017945071521
12.054910242872227,0.07758425040221394
12.063357972544878,0.049487296529204375
12.071805702217528,0.0034760587555338895
12.08025343189018,-0.04496948036641927
12.08870116156283,-0.07233608784588844
12.097148891235479,-0.0656346926996942
12.10559662090813,-0.03599983834570815
12.11404435058078,-0.004431455077764155
12.122492080253432,0.017659554620370006
12.130939809926081,0.02887873614530716
12.139387539598731,0.029403290772279624
12.147835269271383,0.020597913803671986
12.156282998944032,0.007205595785376385
12.164730728616682,-0.006106556350068311
12.173178458289334,-0.015876833076924085
12.181626187961983,-0.017551080569235142
12.190073917634635,-0.008878722466226905
12.198521647307285,0.005094275216794844
12.206969376979934,0.014447351421187252
12.215417106652586,0.012156333525581042
12.223864836325236,-0.0001074673742536066
12.232312565997885,-0.014593921632963717
12.240760295670539,-0.024984316148654657
12.249208025343188,-0.02866907001148534
12.25765575501584,-0.0254436873800391
12.26610348468849,-0.017589723581598948
12.27455121436114,-0.008255918443339482
12.28299894403379,0.0008184541538988365
12.29144667370644,0.007844618896190866
12.29989440337909,0.009646597956650712
12.308342133051742,0.00507824790316065
12.316789862724391,-0.0018751722889581135
12.325237592397043,-0.005932623978617141
12.333685322069693,-0.0064490128289981415
12.342133051742342,-0.006664062267149356
12.350580781414994,-0.009486557538539709
12.359028511087644,-0.015851103950546924
12.367476240760293,-0.024072534337930575
12.375923970432945,-0.0299752646207594
12.384371700105595,-0.02885992280632764
12.392819429778246,-0.017783603494831143
12.401267159450896,0.002445358574768571
12.409714889123546,0.027602545695944673
12.418162618796197,0.05099449767334651
12.426610348468849,0.06259663834684215
12.435058078141498,0.056478939261911
12.44350580781415,0.039724484281456224
12.4519535374868,0.023719966377120098
12.460401267159451,0.01246821268556195
12.4688489968321,0.003517076140141499
12.47729672650475,-0.006701133707113083
12.485744456177402,-0.018200539405295504
12.494192185850052,-0.02631129986993437
12.502639915522701,-0.025554827088524718
12.511087645195353,-0.013564845057648912
12.519535374868003,0.008005759057499826
12.527983104540654,0.03129779640036434
12.536430834213304,0.042393638465637214
12.544878563885954,0.034909117941456264
12.553326293558605,0.021210483361279883
12.561774023231255,0.020550148241893572
12.570221752903905,0.041714840392659075
12.578669482576556,0.07987061762378658
12.587117212249206,0.11688568807245951
12.595564941921857,0.12469975822085036
12.604012671594507,0.08983976013405442
12.612460401267159,0.032163295806724154
12.62090813093981,-0.018005813878405538
12.62935586061246,-0.0477481115292701
12.63780359028511,-0.058923030420796864
12.646251319957761,-0.056853655974989016
12.65469904963041,-0.0466400907157532
12.663146779303062,-0.03189915873097742
12.671594508975712,-0.015311875823897054
12.680042238648362,-0.0005113208326716651
12.688489968321013,0.008655437347099297
12.696937697993663,0.010452512935190842
12.705385427666313,0.004265161985037229
12.713833157338964,-0.011939315368853067
12.722280887011614,-0.036521430710689126
12.730728616684265,-0.05742869549283543
12.739176346356915,-0.0627609053622341
12.747624076029565,-0.055976197429976955
12.756071805702216,-0.04803320682511409
12.764519535374866,-0.041228842970696525
12.772967265047516,-0.030320050334514924
12.781414994720167,-0.011810095687867176
12.789862724392817,0.012198037339766312
12.798310454065469,0.033544733532457335
12.80675818373812,0.04194738779626423
12.81520591341077,0.03452735441045849
12.823653643083421,0.018582888707899682
12.832101372756071,0.0025803193623139763
12.84054910242872,-0.009998794780613973
12.848996832101372,-0.01920105853424641
12.857444561774022,-0.028053752854626645
12.865892291446672,-0.04068651190693184
12.874340021119323,-0.055590373971431115
12.882787750791973,-0.06387541756092553
12.891235480464625,-0.058722915345364876
12.899683210137274,-0.042730157237342865
12.908130939809924,-0.023070165663109685
12.916578669482575,-0.0056561389734436085
12.925026399155225,0.0052980554607113175
12.933474128827875,0.00860786094482771
12.941921858500526,0.008176049881586068
12.950369588173176,0.010229781878716303
12.958817317845828,0.016792305991061088
12.967265047518477,0.02392806865245951
12.975712777191127,0.02633962331312234
12.98416050686378,0.021289709836627993
12.99260823653643,0.010680912535113014
13.00105596620908,0.0007153646298370423
13.009503695881731,-0.003538505713025246
13.017951425554381,-0.0015866458707045805
13.026399155227033,0.004543072280046945
13.034846884899682,0.010812297101952346
13.043294614572332,0.012430021675947494
13.051742344244984,0.008789065200722665
13.060190073917633,0.004536035667974241
13.068637803590283,0.005176853459291214
13.077085533262935,0.011140411626274856
13.085533262935584,0.015050399703981388
13.093980992608236,0.00824212265321592
13.102428722280886,-0.007989972195603745
13.110876451953535,-0.02184791174217588
13.119324181626187,-0.025017962612457582
13.127771911298836,-0.020449819020023918
13.136219640971486,-0.013572841193440986
13.144667370644138,-0.0060962507024547325
13.153115100316787,0.00039489940286447744
13.16156282998944,0.0021361456196390253
13.17001055966209,-0.00421043734911368
13.17845828933474,-0.015507172226713743
13.186906019007392,-0.01911832517660904
13.195353748680041,-0.0001194703703746874
13.203801478352691,0.04691222466981607
13.212249208025343,0.11055622439427583
13.220696937697992,0.16244095311299048
13.229144667370644,0.17309253141249084
13.237592397043294,0.13926473521761024
13.246040126715943,0.08585258017384848
13.254487856388595,0.0369495662620961
13.262935586061245,-0.0007932323437838795
13.271383315733894,-0.027777626063793272
13.279831045406546,-0.04035532329147603
13.288278775079196,-0.03706323776727448
13.296726504751847,-0.025967410431423466
13.305174234424497,-0.016082817327764787
13.313621964097146,-0.009831677908007012
13.322069693769798,-0.0069347585320982015
13.330517423442448,-0.00709327441461082
13.338965153115097,-0.010885164412875728
13.34741288278775,-0.02191791161480165
13.3558606124604,-0.04314289224023452
13.364308342133052,-0.06835457200269213
13.372756071805702,-0.08204303335171785
13.381203801478351,-0.076127959490687
13.389651531151003,-0.06445793425765266
13.398099260823653,-0.0706850464121843
13.406546990496302,-0.10459002459023387
13.414994720168954,-0.14909768470813942
13.423442449841604,-0.16710183432750625
13.431890179514255,-0.13541949335194212
13.440337909186905,-0.06769070620430087
13.448785638859555,0.006245794205480149
13.457233368532206,0.05998265427975511
13.465681098204856,0.06780635953237245
13.474128827877506,0.016100706620164593
13.482576557550157,-0.07042594304558827
13.491024287222807,-0.13445209280204776
13.499472016895458,-0.13802370077406365
13.507919746568108,-0.09568332967374552
13.516367476240758,-0.044832079223946344
13.52481520591341,-0.00806073124537343
13.53326293558606,0.009593319869101441
13.54171066525871,0.011731877477710716
13.550158394931362,0.007021782534731699
13.558606124604012,0.004478411935955715
13.567053854276663,0.006788361343952557
13.575501583949313,0.011055069292983052
13.583949313621963,0.01801728812214916
13.592397043294614,0.034789097335180263
13.600844772967264,0.06341411226523483
13.609292502639914,0.09057767048300953
13.617740232312565,0.09720885657869213
13.626187961985215,0.07844352333305048
13.634635691657866,0.04642822997883384
13.643083421330516,0.01648032076374157
13.651531151003166,-0.0024448782663202967
13.659978880675817,-0.008239560241843257
13.668426610348467,-0.0030491684631392684
13.676874340021117,0.007704440696847592
13.685322069693768,0.01650501813723014
13.693769799366418,0.017870174090048145
13.70221752903907,0.010012180681142959
13.71066525871172,-0.004900645583252107
13.71911298838437,-0.019236417472736234
13.727560718057022,-0.023949682834133335
13.736008447729672,-0.015992738482414125
13.744456177402322,0.0004726069501071557
13.752903907074973,0.018893240526428774
13.761351636747623,0.0341834053275699
13.769799366420273,0.042633883885328426
13.778247096092924,0.041588610704300366
13.786694825765574,0.031304880401640645
13.795142555438225,0.015686946447810483
13.803590285110875,-0.00037184083224101354
13.812038014783525,-0.013254914086848342
13.820485744456176,-0.020013532838669388
13.828933474128826,-0.01890884832736153
13.837381203801476,-0.011799870250477316
13.845828933474127,-0.0029741071799511466
13.854276663146777,0.0048707686881550045
13.862724392819429,0.010370033459228727
13.871172122492078,0.01054373211659944
13.879619852164728,0.003966335485843178
13.88806758183738,-0.004640099602863925
13.896515311510031,-0.009216179214519542
13.90496304118268,-0.009824803406666246
13.913410770855332,-0.011549076015558508
13.921858500527982,-0.017448710983502258
13.930306230200634,-0.024723452426955853
13.938753959873283,-0.027735873386229744
13.947201689545933,-0.022768623444413827
13.955649419218584,-0.010519015628282322
13.964097148891234,0.0027644656442956913
13.972544878563884,0.006087764764484939
13.980992608236535,-0.011145685755536523
13.989440337909185,-0.050338415068342704
13.997888067581837,-0.09579742188338573
14.006335797254486,-0.1190248749379787
14.014783526927136,-0.10496123818605534
14.023231256599788,-0.07024279328477272
14.031678986272437,-0.04157345366992785
14.040126715945087,-0.028686265327413817
14.048574445617739,-0.026328134323595567
14.057022175290388,-0.026922648859825368
14.06546990496304,-0.026296624588445776
14.07391763463569,-0.026116401981371364
14.082365364308341,-0.0306007102843887
14.090813093980993,-0.036090176735647794
14.099260823653642,-0.031729643548857496
14.107708553326292,-0.013792651441462111
14.116156282998944,0.007966014143936953
14.124604012671593,0.019103181795048545
14.133051742344245,0.01401616895871777
14.141499472016895,-0.0013760159160679884
14.149947201689544,-0.01851908429141168
14.158394931362196,-0.029922101666343813
14.166842661034845,-0.027915370049157034
14.175290390707495,-0.009388519939837576
14.183738120380147,0.017030276250972587
14.192185850052796,0.033327692184563655
14.200633579725448,0.030127456244052254
14.209081309398098,0.01803922003687856
14.217529039070747,0.011659526644092175
14.225976768743399,0.012703769466345244
14.234424498416049,0.014555880209898633
14.242872228088698,0.01374959905468498
14.25131995776135,0.014001774013331348
14.259767687434,0.02044481975560783
14.268215417106653,0.0310847638986237
14.276663146779303,0.03657441546917934
14.285110876451952,0.030371938520703034
14.293558606124604,0.01756567511652212
14.302006335797254,0.011002599570084273
14.310454065469903,0.02226031173475576
14.318901795142555,0.0593997707316758
14.327349524815205,0.12489345381764919
14.335797254487856,0.19988335307791844
14.344244984160506,0.2382731929024453
14.352692713833155,0.20798592008220132
14.361140443505807,0.12889112165911668
14.369588173178457,0.04602150436878759
14.378035902851106,-0.01171619125864605
14.386483632523758,-0.039144618255177996
14.394931362196408,-0.04589904507524914
14.40337909186906,-0.04411005963098344
14.411826821541709,-0.040118441671926255
14.420274551214359,-0.03596762707405288
14.42872228088701,-0.03213541922419262
14.43717001055966,-0.026798941345930125
14.44561774023231,-0.017921852642518415
14.454065469904963,-0.007203412170824385
14.462513199577613,0.002942070383194962
14.470960929250264,0.014579561910609756
14.479408658922914,0.029870214252396228
14.487856388595564,0.04446788502820999
14.496304118268215,0.05209661361242233
14.504751847940865,0.052671164190405184
14.513199577613515,0.04873263476721273
14.521647307286166,0.037059729745470255
14.530095036958816,0.015064477720343604
14.538542766631467,-0.008178163822641884
14.546990496304117,-0.020080786985331008
14.555438225976767,-0.01819818423482104
14.563885955649418,-0.008666708393151562
14.572333685322068,0.0012770789829023846
14.580781414994718,0.006301155130729517
14.58922914466737,0.0049261877953383545
14.597676874340019,0.00016731472755022049
14.60612460401267,-0.0050098988795285945
14.61457233368532,-0.01081017464625373
14.62302006335797,-0.016830948638472464
14.631467793030621,-0.0201495799679689
14.639915522703273,-0.02066071174986768
14.648363252375923,-0.022481134862338915
14.656810982048574,-0.025198612440120394
14.665258711721224,-0.021648696998469445
14.673706441393875,-0.009263694512088375
14.682154171066525,0.004240465433014698
14.690601900739175,0.009111069333069356
14.699049630411826,0.003440383525763851
14.707497360084476,-0.005615489722326226
14.715945089757126,-0.009587894936047364
14.724392819429777,-0.007343081391905327
14.732840549102427,-0.004899087348402416
14.741288278775077,-0.007325342822052069
14.749736008447728,-0.01372511992082737
14.758183738120378,-0.019601787093465394
14.76663146779303,-0.02046676934116433
14.77507919746568,-0.013300893328964562
14.783526927138329,0.0018508480155471577
14.79197465681098,0.019305015317212352
14.80042238648363,0.02880585413161469
14.808870116156282,0.023898995289124123
14.817317845828933,0.00791394042512817
14.825765575501583,-0.010354233352115886
14.834213305174234,-0.02248221464682275
14.842661034846884,-0.022452554825547793
14.851108764519534,-0.007868706137422804
14.859556494192185,0.01863657729186824
14.868004223864835,0.04677102531191848
14.876451953537485,0.06162427434362267
14.884899683210136,0.06100091688645741
14.893347412882786,0.06437535072691053
14.901795142555438,0.09002650923286526
14.910242872228087,0.12530465972459695
14.918690601900737,0.13063801486799545
14.927138331573389,0.08348302285687378
14.935586061246038,0.009096616613596635
14.944033790918688,-0.04766073082121305
14.95248152059134,-0.06628262401582423
14.96092925026399,-0.055871963838786565
14.96937697993664,-0.03439125281545614
14.97782470960929,-0.014571456851228886
14.98627243928194,-0.0024754754201665712
14.994720168954592,0.0005471201044024866
15.003167898627243,-0.002486883014207056
15.011615628299893,-0.007005402186906847
15.020063357972544,-0.012687235652610866
15.028511087645194,-0.021646915365678837
15.036958817317846,-0.031569031646610304
15.045406546990495,-0.03609965910041858
15.053854276663145,-0.03139027605519072
15.062302006335797,-0.02109141066218858
15.070749736008446,-0.01263068520444336
15.079197465681096,-0.008151919355096246
15.087645195353748,-0.003925355150972147
15.096092925026397,0.0021182058801998156
15.104540654699049,0.0073238866339433994
15.112988384371699,0.007223396818407877
15.121436114044348,-0.0007366742950821061
15.129883843717,-0.014111946440014315
15.13833157338965,-0.02590414182895716
15.1467793030623,-0.02943556345860705
15.15522703273495,-0.02419374931920308
15.1636747624076,-0.01762085156608922
15.172122492080252,-0.01826907427390629
15.180570221752902,-0.026861861080659962
15.189017951425553,-0.03738984183458732
15.197465681098205,-0.04529522582485451
15.205913410770854,-0.050144604948875224
15.214361140443504,-0.052030651147780986
15.222808870116156,-0.04911077733831126
15.231256599788805,-0.036486150516464956
15.239704329461457,-0.007084651445309378
15.248152059134107,0.04088359956367241
15.256599788806756,0.09241962234567937
15.265047518479408,0.11775554070107606
15.273495248152058,0.10032041552196354
15.281942977824707,0.05528719118384808
15.290390707497359,0.009717474248693238
15.298838437170009,-0.020674960872509935
15.30728616684266,-0.03231841355692298
15.31573389651531,-0.026743503848923034
15.32418162618796,-0.010824675436851531
15.332629355860611,0.0019082096811062514
15.34107708553326,0.0023258133435466576
15.34952481520591,-0.005415461970022276
15.357972544878562,-0.010214648704128727
15.366420274551212,-0.0034850794387761147
15.374868004223865,0.013565813029198431
15.383315733896515,0.029042769209031514
15.391763463569164,0.03249348790251037
15.400211193241816,0.024566979819739383
15.408658922914466,0.011101714125509162
15.417106652587115,-0.0033226903857387488
15.425554382259767,-0.01447739653597573
15.434002111932417,-0.019841621088988303
15.442449841605068,-0.020881118790154873
15.450897571277718,-0.020411423542663783
15.459345300950368,-0.01944610233515252
15.46779303062302,-0.016319997234630443
15.476240760295669,-0.006710670073501374
15.484688489968319,0.012391829649672177
15.49313621964097,0.03674657535583783
15.50158394931362,0.05589428118696382
15.510031678986271,0.06148001151987737
15.518479408658921,0.05326520785158061
15.52692713833157,0.03609728353081132
15.535374868004222,0.015410647646604051
15.543822597676872,-0.002513076464790693
15.552270327349522,-0.013761612294457938
15.560718057022175,-0.02054812317778008
15.569165786694825,-0.02593210301319028
15.577613516367476,-0.028999958844771988
15.586061246040126,-0.027954302940661733
15.594508975712776,-0.022821935250244646
15.602956705385427,-0.01468091107945269
15.611404435058077,-0.005531561967698778
15.619852164730727,0.0008170724902764573
15.628299894403376,0.0006631967563195982
15.636747624076026,-0.005351790161173777
15.64519535374868,-0.012324518877141429
15.653643083421331,-0.014553406736055853
15.66209081309398,-0.008022433086232144
15.670538542766632,0.005573679885231086
15.678986272439282,0.016959166993964228
15.687434002111932,0.017836406850376987
15.695881731784583,0.009719608450023216
15.704329461457233,-0.0007395351283466063
15.712777191129883,-0.010304226610702256
15.721224920802534,-0.01954918089858192
15.729672650475184,-0.02831581323447778
15.738120380147835,-0.03345846350221065
15.746568109820485,-0.03149793280158483
15.755015839493135,-0.023264871838525082
15.763463569165786,-0.014485177655872192
15.771911298838436,-0.008267378802241862
15.780359028511086,0.0003251675007833532
15.788806758183737,0.016095037142734425
15.797254487856387,0.03497000609534939
15.805702217529038,0.049128142426582595
15.814149947201688,0.0541588723270173
15.822597676874338,0.046679402606212825
15.83104540654699,0.019977001081222908
15.83949313621964,-0.02719152444780349
15.847940865892289,-0.07244878892639843
15.85638859556494,-0.08228499757380882
15.86483632523759,-0.04947429201556695
15.873284054910242,0.0028708511920809768
15.881731784582891,0.04352630468773424
15.890179514255541,0.049732297121464195
15.898627243928193,0.01936804506367136
15.907074973600842,-0.03068206727443784
15.915522703273492,-0.07787792963942543
15.923970432946144,-0.10378120990381531
15.932418162618793,-0.10236841332952229
15.940865892291445,-0.08180641769574885
15.949313621964095,-0.05544324186063489
15.957761351636744,-0.0347153849290168
15.966209081309396,-0.02496575789400207
15.974656810982045,-0.02284919198907277
15.983104540654695,-0.022429638860599174
15.991552270327347,-0.022309098459832984
15.999999999999996,-0.023792191997755924
16.008447729672646,-0.02665384803354701
16.0168954593453,-0.028176881093788523
16.025343189017953,-0.022652665721411877
16.033790918690602,-0.004967815146773816
16.042238648363252,0.020270906840072874
16.050686378035902,0.03847051878191131
16.05913410770855,0.03878175595204515
16.067581837381205,0.023889930007583195
16.076029567053855,0.005655585849444384
16.084477296726504,-0.004727969972783951
16.092925026399154,-0.003438099344611147
16.101372756071804,0.007353167913090302
16.109820485744457,0.025018342506961857
16.118268215417107,0.044629403054327416
16.126715945089757,0.054842407888831726
16.135163674762406,0.04683065314303992
16.143611404435056,0.02727014021564085
16.152059134107706,0.01208296431201
16.16050686378036,0.008432993692560209
16.16895459345301,0.011331806251242601
16.17740232312566,0.013533951240737386
16.18585005279831,0.010530678916652363
16.194297782470958,-0.0015650819321142754
16.20274551214361,-0.024944865569460576
16.21119324181626,-0.054893287976775826
16.21964097148891,-0.07835097826276129
16.22808870116156,-0.08016204834461345
16.23653643083421,-0.05689728984598849
16.244984160506863,-0.023677591700507823
16.253431890179513,0.0009005318447540033
16.261879619852163,0.012100393146334836
16.270327349524813,0.01593240505247369
16.278775079197462,0.01742419256507418
16.287222808870112,0.017331426682498784
16.295670538542765,0.014863097878677251
16.304118268215415,0.00871065311100083
16.312565997888065,-0.001980643660527229
16.321013727560715,-0.014435546094480407
16.329461457233364,-0.023630183164495236
16.337909186906018,-0.0282431457657889
16.346356916578667,-0.031104221992975693
16.354804646251317,-0.03418174398817655
16.363252375923967,-0.03649045564020928
16.371700105596616,-0.03542734262053414
16.38014783526927,-0.028058153967946607
16.388595564941923,-0.013500536617378283
16.397043294614573,0.003776390011397029
16.405491024287223,0.014550527067857305
16.413938753959872,0.011838069141711153
16.422386483632522,-0.0035266651246305897
16.430834213305175,-0.02709509683077343
16.439281942977825,-0.056181036438334525
16.447729672650475,-0.08467210607578954
16.456177402323124,-0.09800141261591494
16.464625131995774,-0.08590202854672087
16.473072861668427,-0.05603748386246423
16.481520591341077,-0.022498213617306348
16.489968321013727,0.011769759386470678
16.498416050686377,0.05120088748628971
16.506863780359026,0.08982755138113743
16.51531151003168,0.10584195364707187
16.52375923970433,0.08380864244767068
16.53220696937698,0.035205046967161396
16.54065469904963,-0.012681145447690865
16.54910242872228,-0.03700670939599607
16.55755015839493,-0.030118638584769427
16.56599788806758,-0.0028094934621479793
16.57444561774023,0.025049056476830096
16.58289334741288,0.038731286561999666
16.59134107708553,0.036207568354868075
16.59978880675818,0.026119598461928375
16.608236536430834,0.017549203995440174
16.616684266103483,0.012825280567878607
16.625131995776133,0.007740860434264488
16.633579725448783,-0.0030269445039905456
16.642027455121433,-0.01730280872594457
16.650475184794086,-0.02463360314173599
16.658922914466736,-0.013270044074329445
16.667370644139385,0.02631562753854729
16.675818373812035,0.096208109180395
16.684266103484685,0.17362946128182774
16.692713833157335,0.20778251929105504
16.701161562829988,0.16803013384194662
16.709609292502638,0.08481947605713845
16.718057022175287,0.01154292392121131
16.726504751847937,-0.027794323771870813
16.734952481520587,-0.038645011640486955
16.74340021119324,-0.03536230091488253
16.751847940865893,-0.028243895257095114
16.760295670538543,-0.019873405622000795
16.768743400211193,-0.01056233867155628
16.777191129883843,-0.0025380142098009543
16.785638859556492,0.002663935860487527
16.794086589229146,0.0055905914970799
16.802534318901795,0.006571332004278405
16.810982048574445,0.005603062107648581
16.819429778247095,0.004313452183947463
16.827877507919744,0.005560040881862668
16.836325237592398,0.011271473543818886
16.844772967265047,0.02065326628847791
16.853220696937697,0.029992436166818032
16.861668426610347,0.03601699237607092
16.870116156282997,0.03955323065439014
16.87856388595565,0.04399491900837148
16.8870116156283,0.05020994747557171
16.89545934530095,0.05369037987668211
16.9039070749736,0.04786304452903573
16.91235480464625,0.03143476300154256
16.9208025343189,0.010379326306874392
16.929250263991552,-0.007769928225493751
16.9376979936642,-0.018889488866113822
16.94614572333685,-0.023234951317285733
16.9545934530095,-0.023090570163240447
16.96304118268215,-0.019567738661127505
16.971488912354804,-0.013151125128582611
16.979936642027454,-0.005813797749674993
16.988384371700104,-0.000410417474150224
16.996832101372753,0.002529542816397658
17.005279831045403,0.006246036154526476
17.013727560718056,0.012554022786966653
17.022175290390706,0.017087442824919055
17.030623020063356,0.016081894643091732
17.039070749736005,0.014528771140804437
17.047518479408655,0.020205059823231758
17.055966209081305,0.0332756007664142
17.064413938753958,0.04508382465944006
17.072861668426608,0.0440127032571737
17.081309398099258,0.026572577747171137
17.089757127771907,0.003883341212065813
17.098204857444557,-0.008871966750991646
17.10665258711721,-0.006185911045842091
17.11510031678986,0.004597321025225507
17.123548046462513,0.009194243233796036
17.131995776135163,0.0009475936178817779
17.140443505807813,-0.01187284744105996
17.148891235480466,-0.01813601993643947
17.157338965153116,-0.014748520842297427
17.165786694825766,-0.004038675762217502
17.174234424498415,0.010962438583292797
17.182682154171065,0.026796122240648843
17.191129883843715,0.03778002108894212
17.199577613516368,0.03680123270506034
17.208025343189018,0.019680271051802194
17.216473072861668,-0.01135583425780249
17.224920802534317,-0.046215058890371356
17.233368532206967,-0.06801371369617899
17.24181626187962,-0.06454549312669462
17.25026399155227,-0.04122859916629028
17.25871172122492,-0.013654520034231194
17.26715945089757,0.007604557816328173
17.27560718057022,0.01809651214860671
17.284054910242872,0.01652330644456424
17.292502639915522,0.007414627774562713
17.300950369588172,0.00023766879462216637
17.30939809926082,0.0013174215745204746
17.31784582893347,0.008912457291411692
17.32629355860612,0.01598720188263541
17.334741288278774,0.01557297724025977
17.343189017951424,0.0043600239894017205
17.351636747624074,-0.0170464341860974
17.360084477296724,-0.044318619488074536
17.368532206969373,-0.06828132138357848
17.376979936642027,-0.07692511877409357
17.385427666314676,-0.06504142090320375
17.393875395987326,-0.041004509197658905
17.402323125659976,-0.018129073468181805
17.410770855332625,-0.003910814067129727
17.41921858500528,0.0002666881966305772
17.42766631467793,-0.002876585052833983
17.436114044350578,-0.008944954269120554
17.444561774023228,-0.0167950913308326
17.453009503695878,-0.027469294815396783
17.461457233368527,-0.03827946464669958
17.46990496304118,-0.042976318686325114
17.47835269271383,-0.03632461699533161
17.486800422386484,-0.01860193181693668
17.495248152059133,0.0009278219903390179
17.503695881731783,0.009270654333480524
17.512143611404436,0.0034353475576994184
17.520591341077086,-0.005171868531551369
17.529039070749736,-0.0038459781819638905
17.537486800422386,0.007169032713502068
17.545934530095035,0.016170400387504388
17.554382259767685,0.01418611713828577
17.56282998944034,0.004180421595733906
17.571277719112988,-0.005173178613021794
17.579725448785638,-0.010149945203513578
17.588173178458288,-0.01335958604671242
17.596620908130937,-0.018628134879152835
17.60506863780359,-0.026302330712480282
17.61351636747624,-0.032137779614041545
17.62196409714889,-0.0318817285941319
17.63041182682154,-0.02544342304508607
17.63885955649419,-0.014655029891808094
17.647307286166843,-0.0015374475809363762
17.655755015839492,0.00891442472258715
17.664202745512142,0.010467389088068635
17.672650475184792,0.0027521483973751244
17.68109820485744,-0.008101657743611823
17.689545934530095,-0.01609500543114322
17.697993664202745,-0.020648017561135972
17.706441393875394,-0.025382869419831637
17.714889123548044,-0.03095694484794682
17.723336853220694,-0.033703468885438556
17.731784582893344,-0.03448677685420674
17.740232312565997,-0.04126738848456918
17.748680042238647,-0.05923694068780674
17.757127771911296,-0.08271222273535886
17.765575501583946,-0.09737864911636354
17.774023231256596,-0.0915224613964707
17.78247096092925,-0.06711208369896539
17.7909186906019,-0.037788945617022535
17.79936642027455,-0.016615655645831437
17.8078141499472,-0.005626729598752361
17.816261879619848,0.006901837335728935
17.824709609292498,0.038457411385229706
17.83315733896515,0.09783533709713335
17.8416050686378,0.16854303936472986
17.85005279831045,0.20800496011975064
17.858500527983104,0.18972062238035484
17.866948257655753,0.13775553636717044
17.875395987328407,0.09310989737564204
17.883843717001056,0.06966976389909908
17.892291446673706,0.05701652408330361
17.900739176346356,0.043901675618800866
17.909186906019006,0.03114247213448666
17.91763463569166,0.02820934962272341
17.92608236536431,0.041918854339657884
17.93453009503696,0.06526013250133789
17.942977824709608,0.07584787832600157
17.951425554382258,0.05165235351281688
17.959873284054908,-0.013560229575428429
17.96832101372756,-0.10799323901512954
17.97676874340021,-0.19541864962644365
17.98521647307286,-0.21944381797917417
17.99366420274551,-0.15330099304663697
18.00211193241816,-0.035728788690952945
18.010559662090813,0.06775707810828573
18.019007391763463,0.11624208710947999
18.027455121436113,0.10887926803730236
18.035902851108762,0.07395308165487745
18.044350580781412,0.04022869475309117
18.052798310454065,0.018873211002584572
18.061246040126715,0.007133967916365433
18.069693769799365,-0.001669692719017463
18.078141499472014,-0.010753758019149977
18.086589229144664,-0.020499815607196437
18.095036958817314,-0.030881769296434245
18.103484688489967,-0.040179529004950594
18.111932418162617,-0.045833635606268276
18.120380147835267,-0.04636216024732324
18.128827877507916,-0.041368413464034734
18.137275607180566,-0.03104217419974166
18.14572333685322,-0.01466126181463861
18.15417106652587,0.008843108382497425
18.16261879619852,0.0357403664233824
18.17106652587117,0.05574309589238842
18.17951425554382,0.059582488979081
18.18796198521647,0.047618153052354305
18.19640971488912,0.028523980932116805
18.20485744456177,0.010995083202278481
18.21330517423442,-6.291505939028368e-06
18.221752903907074,-0.003150870470084707
18.230200633579724,-0.004392693933626404
18.238648363252377,-0.019650658849061586
18.247096092925027,-0.06744328775010647
18.255543822597676,-0.1518634180863912
18.263991552270326,-0.24241476239354803
18.272439281942976,-0.28019233416158135
18.28088701161563,-0.23608114226122418
18.28933474128828,-0.1490017949505293
18.29778247096093,-0.07756938989162858
18.30623020063358,-0.04213022411829887
18.314677930306228,-0.0240903136793182
18.32312565997888,0.0066306918257047626
18.33157338965153,0.06409859355425535
18.34002111932418,0.12952501501665292
18.34846884899683,0.1620782897631536
18.35691657866948,0.13962525376809737
18.36536430834213,0.08275290355298667
18.373812038014783,0.028085648356429897
18.382259767687433,-0.0055196949899042145
18.390707497360083,-0.019555115206287325
18.399155227032733,-0.02267506267126181
18.407602956705382,-0.021452670961452033
18.416050686378036,-0.018189817089577447
18.424498416050685,-0.012426876003380065
18.432946145723335,-0.004409506260581815
18.441393875395985,0.0033404757966880015
18.449841605068634,0.008826353486992558
18.458289334741288,0.011778891131134327
18.466737064413937,0.011813012446368367
18.475184794086587,0.008850661763555923
18.483632523759237,0.004286514629959394
18.492080253431887,-0.0013083837191135731
18.500527983104536,-0.009209379800956551
18.50897571277719,-0.017931078734468427
18.51742344244984,-0.021915159542722433
18.52587117212249,-0.018407253795384326
18.53431890179514,-0.00967894397520715
18.54276663146779,0.0035550618187303834
18.551214361140442,0.02299354971463702
18.55966209081309,0.04441295648942497
18.56810982048574,0.05418046614409646
18.57655755015839,0.04036175040869715
18.58500527983104,0.007063698208205599
18.593453009503694,-0.029550671246884458
18.601900739176347,-0.059533286110043125
18.610348468848997,-0.08498785234358726
18.618796198521647,-0.10548138739062361
18.627243928194297,-0.10914608066548204
18.635691657866946,-0.08769531936238886
18.6441393875396,-0.04886568089053628
18.65258711721225,-0.007629533335825482
18.6610348468849,0.02391276400813931
18.66948257655755,0.03938585473512687
18.6779303062302,0.040010376216440276
18.68637803590285,0.032547549500783673
18.6948257655755,0.022945869811826378
18.70327349524815,0.013960956072512805
18.7117212249208,0.008033957048633014
18.72016895459345,0.006845191039501566
18.7286166842661,0.007822177915816087
18.737064413938754,0.006857568079318956
18.745512143611403,0.005638707606067345
18.753959873284053,0.012778989353573664
18.762407602956703,0.039330331754247376
18.770855332629353,0.0921515026270292
18.779303062302006,0.15633547463285002
18.787750791974656,0.18805819536626278
18.796198521647305,0.1562166820460993
18.804646251319955,0.08289069815641929
18.813093980992605,0.015069521513078235
18.821541710665258,-0.023474241733052528
18.829989440337908,-0.0376383211822786
18.838437170010558,-0.03856623176941858
18.846884899683207,-0.028586126372504045
18.855332629355857,-0.008111565170405188
18.863780359028507,0.012812746020483986
18.87222808870116,0.020369035749377894
18.88067581837381,0.008729483989826581
18.88912354804646,-0.018844969250019966
18.89757127771911,-0.051127409943350896
18.90601900739176,-0.07136976797193412
18.914466737064412,-0.07062680118728983
18.922914466737062,-0.05542052326063796
18.93136219640971,-0.03614065207149107
18.93980992608236,-0.017322256273004252
18.94825765575501,-0.00018549085594429717
18.956705385427664,0.01652348165659808
18.965153115100318,0.03850944675561964
18.973600844772967,0.07102976272674479
18.982048574445617,0.1056149977007381
18.990496304118267,0.11736123417157208
18.998944033790917,0.09198026475214495
19.00739176346357,0.04781475702767239
19.01583949313622,0.015690146011485485
19.02428722280887,0.01077279802053569
19.03273495248152,0.026286637857144107
19.04118268215417,0.040062003546379635
19.049630411826822,0.034261475981803666
19.05807814149947,0.011956054086386093
19.06652587117212,-0.012277524473291545
19.07497360084477,-0.029269323158952625
19.08342133051742,-0.040127546939834835
19.091869060190074,-0.05084387257357894
19.100316789862724,-0.0603196193405084
19.108764519535374,-0.05815417379661949
19.117212249208023,-0.04070368395318294
19.125659978880673,-0.01882860350831511
19.134107708553323,-0.003463699689412718
19.142555438225976,0.0046265793524741215
19.151003167898626,0.009040081462000995
19.159450897571276,0.011865688287202993
19.167898627243925,0.012096037659592758
19.176346356916575,0.006289217839763588
19.18479408658923,-0.005122638600719647
19.193241816261878,-0.015126747458468898
19.201689545934528,-0.0189895888026159
19.210137275607178,-0.01957142561307345
19.218585005279827,-0.020247717371563227
19.22703273495248,-0.019457526597029106
19.23548046462513,-0.014359594066294577
19.24392819429778,-0.005035794543567681
19.25237592397043,0.005777096632931554
19.26082365364308,0.01463664826015853
19.26927138331573,0.01969364368065316
19.277719112988382,0.021425623877457986
19.286166842661032,0.020024244153024347
19.294614572333682,0.01502949801011649
19.30306230200633,0.009980882410367434
19.31151003167898,0.012809521843314771
19.319957761351635,0.02960796876378925
19.328405491024288,0.060710433255187435
19.336853220696938,0.09480174882872028
19.345300950369587,0.1071608030441604
19.353748680042237,0.0841329227491621
19.36219640971489,0.0435642725789081
19.37064413938754,0.012639742076389817
19.37909186906019,-0.0007982225147314158
19.38753959873284,-0.005643290653981768
19.39598732840549,-0.009774769545892507
19.40443505807814,-0.012053559203299577
19.412882787750792,-0.007965985177309223
19.421330517423442,0.0019084856617344543
19.429778247096092,0.009965601688237107
19.43822597676874,0.008889224882184176
19.44667370644139,4.106435073967065e-05
19.455121436114045,-0.00918135599954203
19.463569165786694,-0.013786213215734712
19.472016895459344,-0.014521255382808886
19.480464625131994,-0.015744281956463733
19.488912354804643,-0.01885590953508408
19.497360084477297,-0.01826049794779567
19.505807814149946,-0.009368512681261463
19.514255543822596,0.002904116811121689
19.522703273495246,0.010774369727136936
19.531151003167896,0.01349915057481404
19.539598732840545,0.01509587090698737
19.5480464625132,0.017860343586294385
19.55649419218585,0.021129503447357312
19.564941921858498,0.02189642394504391
19.573389651531148,0.01582047492171691
19.581837381203798,0.0011991233820605272
19.59028511087645,-0.017252238117813734
19.5987328405491,-0.03098380551428903
19.60718057022175,-0.034706486295175934
19.6156282998944,-0.02949381772119883
19.62407602956705,-0.020144106880080982
19.632523759239703,-0.011366771685588514
19.640971488912353,-0.005321356015372121
19.649419218585003,-0.001544495756051737
19.657866948257652,0.001222379536259386
19.666314677930302,0.0035517126098391734
19.67476240760295,0.004840269472102256
19.683210137275605,0.002518343887495226
19.691657866948255,-0.008586732815147581
19.700105596620908,-0.033923156169461115
19.708553326293558,-0.0727627576875069
19.717001055966207,-0.10977629462759005
19.72544878563886,-0.11853046959096634
19.73389651531151,-0.0886885429358595
19.74234424498416,-0.04232634319888365
19.75079197465681,-0.008752797326201246
19.75923970432946,0.0019532467740932626
19.76768743400211,-0.004541554643453785
19.776135163674763,-0.01862537575476048
19.784582893347412,-0.031999844618557975
19.793030623020062,-0.039043657661218575
19.801478352692712,-0.036599225068849855
19.80992608236536,-0.02379223658269366
19.818373812038015,-0.0012781334991010381
19.826821541710665,0.027557400278629542
19.835269271383314,0.05363333157981445
19.843717001055964,0.06827991089973445
19.852164730728614,0.07156969332240283
19.860612460401267,0.0674069821155851
19.869060190073917,0.05960367317643515
19.877507919746567,0.05698824220667712
19.885955649419216,0.07007550812362658
19.894403379091866,0.09647883415201378
19.902851108764516,0.11570771379758045
19.91129883843717,0.10907239227804215
19.91974656810982,0.0793565601072027
19.92819429778247,0.042260610834653024
19.936642027455118,0.011134809217320378
19.945089757127768,-0.007127006331580992
19.95353748680042,-0.01307767637442525
19.96198521647307,-0.012845498371528149
19.97043294614572,-0.012079759816541325
19.97888067581837,-0.011415093709209992
19.98732840549102,-0.008570461647562823
19.995776135163673,-0.003914428157903652
20.004223864836323,-0.0011370635049903818
20.012671594508973,-0.002307778708581617
20.021119324181623,-0.006111731367499512
20.029567053854272,-0.010826268210442353
20.038014783526922,-0.013943754535186474
20.046462513199575,-0.011617783826728007
20.054910242872225,-0.0038442758846928583
20.06335797254488,0.0034117014883271075
20.071805702217528,0.004808249999930737
20.080253431890178,0.0006989647072440571
20.08870116156283,-0.00784639576122189
20.09714889123548,-0.024274192253988424
20.10559662090813,-0.04853007025783085
20.11404435058078,-0.06863027390170992
20.12249208025343,-0.07291515992309738
20.130939809926083,-0.06355670951624641
20.139387539598733,-0.047890205620174375
20.147835269271383,-0.028192125132721877
20.156282998944032,-0.004446313344088199
20.164730728616682,0.019830776726545193
20.173178458289332,0.03571428801004774
20.181626187961985,0.03683042132507563
20.190073917634635,0.027004759917362817
20.198521647307285,0.01292780424216898
20.206969376979934,-0.0032973768794763267
20.215417106652584,-0.019598195582021388
20.223864836325237,-0.031228536209778897
20.232312565997887,-0.03502223434892065
20.240760295670537,-0.030854649708066513
20.249208025343187,-0.02046670925848535
20.257655755015836,-0.008730708895225392
20.26610348468849,-0.0027628684179081247
20.27455121436114,-0.006294548803308817
20.28299894403379,-0.015270044593019162
20.29144667370644,-0.019764178534057295
20.29989440337909,-0.012627003002391453
20.308342133051738,0.0034762721864365818
20.31678986272439,0.019703843523900127
20.32523759239704,0.030801410244317692
20.33368532206969,0.03955751978065891
20.34213305174234,0.04754128396023381
20.35058078141499,0.04476815866319751
20.359028511087644,0.02392725532718533
20.367476240760293,-0.001994296839411878
20.375923970432943,-0.015623059026219861
20.384371700105593,-0.01681937680501809
20.392819429778243,-0.01505231429628812
20.401267159450896,-0.013451490906408733
20.409714889123546,-0.009114920218896186
20.418162618796195,-0.0019911451582172468
20.426610348468845,0.0029201301442846384
20.4350580781415,0.0013830554060932018
20.443505807814148,-0.005109745592107412
20.4519535374868,-0.011825777704278168
20.46040126715945,-0.017170937639991054
20.4688489968321,-0.022653690995171318
20.47729672650475,-0.02671492673638528
20.4857444561774,-0.024016727850028823
20.494192185850054,-0.011416964441599656
20.502639915522703,0.008136589952917933
20.511087645195353,0.02585093893733224
20.519535374868003,0.031848985656520064
20.527983104540652,0.02491280630180999
20.536430834213306,0.01463696455088071
20.544878563885955,0.010432197551266845
20.553326293558605,0.013541938694972614
20.561774023231255,0.018872585590214524
20.570221752903905,0.01934852702429216
20.578669482576554,0.009459421219255176
20.587117212249208,-0.014298359836859044
20.595564941921857,-0.05587238679114053
20.604012671594507,-0.11699951409637423
20.612460401267157,-0.18061372986164093
20.620908130939807,-0.20474055662163412
20.62935586061246,-0.16351351190751354
20.63780359028511,-0.08198130241949564
20.64625131995776,-0.0031176893202624015
20.65469904963041,0.04993177014810005
20.66314677930306,0.06980472541313648
20.67159450897571,0.060076917773996756
20.68004223864836,0.03551001139763783
20.68848996832101,0.009699120855756216
20.69693769799366,-0.01197739127172379
20.70538542766631,-0.02653383113040213
20.71383315733896,-0.031413796085520924
20.722280887011614,-0.028138409151057055
20.730728616684264,-0.022241631027522628
20.739176346356913,-0.018875510878813357
20.747624076029563,-0.019212843456485083
20.756071805702213,-0.021153349536922234
20.764519535374866,-0.02326871520874972
20.772967265047516,-0.026725401319768485
20.781414994720166,-0.03095368907550137
20.789862724392815,-0.029206397622926924
20.79831045406547,-0.013658067038408715
20.80675818373812,0.01357840539617058
20.81520591341077,0.03806061876078465
20.82365364308342,0.046259763520593807
20.83210137275607,0.03853405984254611
20.84054910242872,0.02483036943858384
20.84899683210137,0.013915780560501788
20.857444561774024,0.010127812478956031
20.865892291446674,0.012861569595063778
20.874340021119323,0.01593820303512236
20.882787750791973,0.012780816858726915
20.891235480464623,0.003911868971437938
20.899683210137276,-0.00383946656025671
20.908130939809926,-0.005251996899666529
20.916578669482575,-0.0011350036452203458
20.925026399155225,0.004431921959903423
20.933474128827875,0.008155115181438287
20.941921858500525,0.008807674039678286
20.950369588173178,0.006776409041012311
20.958817317845828,0.0028967362975783773
20.967265047518477,-0.0017101853027879708
20.975712777191127,-0.004316790625222695
20.984160506863777,-0.0009549376764493023
20.99260823653643,0.010489827782460527
21.00105596620908,0.027537766457682748
21.00950369588173,0.042129503847567994
21.01795142555438,0.04347056434686235
21.02639915522703,0.028116416286291218
21.034846884899682,0.006594482812723835
21.043294614572332,-0.00630837569703736
21.051742344244982,-0.004512443613443323
21.06019007391763,0.010004058340092934
21.06863780359028,0.03286464189566228
21.07708553326293,0.05591168216313729
21.085533262935584,0.06686614906363446
21.093980992608234,0.05942119517834205
21.102428722280884,0.041320494451826256
21.110876451953533,0.02679169322440932
21.119324181626183,0.023084624889818956
21.127771911298836,0.025589529857781734
21.136219640971486,0.024499140654976465
21.144667370644136,0.015735638634231896
21.153115100316786,0.004022979922115991
21.161562829989435,-0.003745282310376158
21.170010559662092,-0.005257054515302404
21.178458289334742,-0.0029074723122996748
21.18690601900739,-0.0001983976733358735
21.19535374868004,0.0005391295918338573
21.20380147835269,-0.0012105750734308386
21.21224920802534,-0.004331554721538102
21.220696937697994,-0.006825868190287338
21.229144667370644,-0.007006906618696913
21.237592397043294,-0.004873341328282003
21.246040126715943,-0.002437030454271635
21.254487856388593,-0.002133473977879426
21.262935586061246,-0.004068016236068147
21.271383315733896,-0.0053370044488264936
21.279831045406546,-0.002736255211525142
21.288278775079196,0.0041756006069565395
21.296726504751845,0.012657751803340212
21.3051742344245,0.0185425618014279
21.31362196409715,0.01809875245524188
21.322069693769798,0.010470363382658684
21.330517423442448,-0.001926537368261045
21.338965153115097,-0.01676339831020963
21.347412882787747,-0.032362084591624
21.3558606124604,-0.04549859529788801
21.36430834213305,-0.05243758853058541
21.3727560718057,-0.051124608024137985
21.38120380147835,-0.042376986818136564
21.389651531151,-0.031015454798417164
21.398099260823653,-0.023154539572505056
21.406546990496302,-0.02031121124358438
21.414994720168952,-0.017965773371338343
21.423442449841602,-0.009889229233105435
21.43189017951425,0.005327313333554747
21.440337909186905,0.021323986429409185
21.448785638859555,0.029502369319052507
21.457233368532204,0.026776940488727627
21.465681098204854,0.01728736260520246
21.474128827877504,0.008127652395028002
21.482576557550153,0.004375020682337997
21.491024287222807,0.007651128131625773
21.499472016895457,0.015291015574378437
21.507919746568106,0.02044597380641951
21.516367476240756,0.017746901038087567
21.524815205913406,0.008833523648106089
21.53326293558606,-0.0004951736431558201
21.541710665258712,-0.007126517411681316
21.550158394931362,-0.011495618280042138
21.55860612460401,-0.013930751242034104
21.56705385427666,-0.014330664260202457
21.57550158394931,-0.014333059520686494
21.583949313621964,-0.016732697562854892
21.592397043294614,-0.02201067452874707
21.600844772967264,-0.026036801660922478
21.609292502639914,-0.022093482293282785
21.617740232312563,-0.007238316417976071
21.626187961985217,0.012530747585969934
21.634635691657866,0.025894826835122446
21.643083421330516,0.027426833989880425
21.651531151003166,0.024046630400213966
21.659978880675816,0.02550343017143808
21.66842661034847,0.030663089828656422
21.67687434002112,0.03230443075755318
21.68532206969377,0.030211068967771603
21.693769799366418,0.02856797020821828
21.702217529039068,0.026691682708716507
21.710665258711717,0.020671102787640686
21.71911298838437,0.010662489439295982
21.72756071805702,0.001381478735330159
21.73600844772967,-0.004006392144799916
21.74445617740232,-0.0063552664976538305
21.75290390707497,-0.006900616883997146
21.761351636747623,-0.0051821995819331815
21.769799366420273,-0.0009117894911164193
21.778247096092922,0.0044413048876951345
21.786694825765572,0.006636320279417161
21.795142555438222,-0.000119983051053082
21.803590285110875,-0.01630115008341103
21.812038014783525,-0.034131334251659026
21.820485744456175,-0.04506194338452269
21.828933474128824,-0.045973335938655754
21.837381203801474,-0.03858246107260429
21.845828933474124,-0.026658289449177742
21.854276663146777,-0.013410634880085672
21.862724392819427,-0.0016991734443917894
21.871172122492077,0.004722270220825057
21.879619852164726,0.002800770890654867
21.888067581837376,-0.006984756496769395
21.89651531151003,-0.019558625596776673
21.904963041182683,-0.028392215668185596
21.913410770855332,-0.030616638320500312
21.921858500527982,-0.026843861755379523
21.93030623020063,-0.01811868707677083
21.938753959873285,-0.008406556702267053
21.947201689545935,-0.004847508528986159
21.955649419218584,-0.008153916703217272
21.964097148891234,-0.008008980354185197
21.972544878563884,0.007375996646751071
21.980992608236534,0.04106720147303219
21.989440337909187,0.08610693164312458
21.997888067581837,0.1294081774347174
22.006335797254486,0.15722711243190088
22.014783526927136,0.15916711313661058
22.023231256599786,0.13304453927544457
22.03167898627244,0.09054213933867919
22.04012671594509,0.04971608211184954
22.04857444561774,0.018509752514186434
22.05702217529039,-0.00919156310933529
22.065469904963038,-0.044106425522950216
22.07391763463569,-0.08961901879617279
22.08236536430834,-0.13187854290811998
22.09081309398099,-0.144104771995146
22.09926082365364,-0.11526948518937032
22.10770855332629,-0.0691149243192361
22.11615628299894,-0.04091398493853868
22.124604012671593,-0.04547768087214557
22.133051742344243,-0.0681589870010789
22.141499472016893,-0.0753991491985248
22.149947201689542,-0.047014614164212806
22.158394931362192,-0.0004408989134325244
22.166842661034845,0.03421863119560393
22.175290390707495,0.049795581994571236
22.183738120380145,0.05772991543540699
22.192185850052795,0.06641887756263752
22.200633579725444,0.07416398276745054
22.209081309398098,0.07385781199351436
22.217529039070747,0.05985410528298181
22.225976768743397,0.034271774130005275
22.234424498416047,0.0071590785108273025
22.242872228088697,-0.011981744429647069
22.251319957761346,-0.02071056043532379
22.259767687434,-0.02182217946539669
22.26821541710665,-0.01860079914560119
22.276663146779303,-0.012728055514494024
22.285110876451952,-0.005197472296917282
22.293558606124602,0.0018824230119018636
22.302006335797255,0.00505046725022624
22.310454065469905,0.0033351201995632795
22.318901795142555,-0.000852784652427896
22.327349524815205,-0.007932622628966896
22.335797254487854,-0.02048815058801321
22.344244984160508,-0.03493318147590639
22.352692713833157,-0.04193655515484667
22.361140443505807,-0.03620349638193723
22.369588173178457,-0.022803975355699536
22.378035902851106,-0.011959681217516642
22.386483632523756,-0.008609046928624624
22.39493136219641,-0.010144738818317177
22.40337909186906,-0.011637650846842533
22.41182682154171,-0.010018202632466108
22.42027455121436,-0.006220615422100907
22.42872228088701,-0.004047139309132651
22.43717001055966,-0.005656319417431764
22.44561774023231,-0.010341811135403537
22.45406546990496,-0.0164114053829429
22.46251319957761,-0.02085795504856729
22.47096092925026,-0.02036770295120269
22.479408658922914,-0.015052143528625798
22.487856388595564,-0.009022052373208344
22.496304118268213,-0.007215336277738044
22.504751847940863,-0.011127950906884038
22.513199577613513,-0.016823083295178176
22.521647307286162,-0.018258575296021092
22.530095036958816,-0.013170756275233416
22.538542766631465,-0.0054270686071788265
22.546990496304115,-0.0006402963292824589
22.555438225976765,-0.0008639399001361173
22.563885955649415,-0.004879310877425754
22.572333685322068,-0.010389141394090981
22.580781414994718,-0.012941634554877696
22.589229144667367,-0.004000897310613718
22.597676874340017,0.023972111984319713
22.606124604012667,0.0667265566644019
22.61457233368532,0.10435288249330958
22.62302006335797,0.11222560055168151
22.63146779303062,0.08356668432197577
22.639915522703273,0.03814583528233776
22.648363252375923,0.000374589205941047
22.656810982048572,-0.020751337156771684
22.665258711721226,-0.027691120222916105
22.673706441393875,-0.0257148094156343
22.682154171066525,-0.020231189700978553
22.690601900739175,-0.0150390083125829
22.699049630411825,-0.010486875448724465
22.707497360084478,-0.004370720437682121
22.715945089757128,0.004808186981977962
22.724392819429777,0.01569044819458647
22.732840549102427,0.023336095188482363
22.741288278775077,0.021079051480231842
22.749736008447726,0.006931395738405059
22.75818373812038,-0.012211923881934726
22.76663146779303,-0.02591105669779442
22.77507919746568,-0.028683242546980285
22.78352692713833,-0.021226328661459192
22.79197465681098,-0.0067258010865586925
22.800422386483632,0.00921890470520854
22.80887011615628,0.018325187634495844
22.81731784582893,0.016141311280012765
22.82576557550158,0.006483979758114671
22.83421330517423,-0.0037582471173519573
22.842661034846884,-0.009469234162894207
22.851108764519534,-0.0075116654171586035
22.859556494192184,0.0016897448066521
22.868004223864833,0.012258157543301312
22.876451953537483,0.016843674503812706
22.884899683210133,0.013956091928335523
22.893347412882786,0.008797977305923861
22.901795142555436,0.00642922882523018
22.910242872228086,0.0059144932451655145
22.918690601900735,0.0027295249430134105
22.927138331573385,-0.0035607243223878164
22.93558606124604,-0.0066848105227671215
22.944033790918688,-0.0009329942370614757
22.952481520591338,0.010400519249193545
22.960929250263987,0.01819272868227125
22.969376979936637,0.01732591196734291
22.97782470960929,0.010270918619223884
22.98627243928194,0.002871055792881076
22.99472016895459,-0.0021031079823402694
23.00316789862724,-0.00534437105817552
23.011615628299893,-0.006398404325251043
23.020063357972543,-0.00322059117407111
23.028511087645196,0.004189707231977435
23.036958817317846,0.010100552601940921
23.045406546990495,0.0022250356057813532
23.053854276663145,-0.032453382469666336
23.062302006335795,-0.09592287473264426
23.070749736008448,-0.1610339220228617
23.079197465681098,-0.17647354306055715
23.087645195353748,-0.12531929527198937
23.096092925026397,-0.052105852340906714
23.104540654699047,-0.0021741689296170923
23.1129883843717,0.020156487582022323
23.12143611404435,0.02875357034001813
23.129883843717,0.03216053313307173
23.13833157338965,0.032535235336977504
23.1467793030623,0.03115539448619431
23.15522703273495,0.02911639853458827
23.163674762407602,0.026445283138916836
23.172122492080252,0.023339713212048786
23.1805702217529,0.019657991349722004
23.18901795142555,0.014677676094936136
23.1974656810982,0.008818783309005011
23.205913410770854,0.004038465648748039
23.214361140443504,0.0014393652759845962
23.222808870116154,-0.0005633399630346064
23.231256599788804,-0.003959435234140829
23.239704329461453,-0.00861123306524566
23.248152059134107,-0.012838906591029103
23.256599788806756,-0.01427427809323325
23.265047518479406,-0.011068792799771448
23.273495248152056,-0.0029494683511915353
23.281942977824706,0.010135168318296816
23.290390707497355,0.025804737593051137
23.29883843717001,0.03559616353011136
23.30728616684266,0.03243519182317051
23.315733896515308,0.01980484980044073
23.324181626187958,0.0074448745341777305
23.332629355860607,0.003082570795909775
23.34107708553326,0.00968820888496947
23.34952481520591,0.024956955043974383
23.35797254487856,0.0438817737342804
23.36642027455121,0.06274489868298137
23.374868004223863,0.07771034331599348
23.383315733896517,0.08347260720939421
23.391763463569166,0.07627056088058064
23.400211193241816,0.05718765052896433
23.408658922914466,0.033697688006084046
23.417106652587115,0.014669234679411818
23.425554382259765,0.0040903854749463325
23.43400211193242,0.001280607959827078
23.442449841605068,0.0027242759303319473
23.450897571277718,0.004942352524800113
23.459345300950368,0.0059762943470444
23.467793030623017,0.002614103677842662
23.47624076029567,-0.006055327318242037
23.48468848996832,-0.011881999339983849
23.49313621964097,-0.004800577813623756
23.50158394931362,0.014802245477830113
23.51003167898627,0.03718103059944134
23.51847940865892,0.051759612671575424
23.526927138331573,0.05274893604463478
23.535374868004222,0.042842098028494965
23.543822597676872,0.030933295449189827
23.55227032734952,0.021359464133564567
23.56071805702217,0.008695618327369448
23.569165786694825,-0.011336972873346325
23.577613516367474,-0.03154574058501251
23.586061246040124,-0.04172876179838898
23.594508975712774,-0.04059576917834243
23.602956705385424,-0.03303170818809834
23.611404435058077,-0.022607170019366907
23.619852164730727,-0.011437469229764885
23.628299894403376,-0.003183632028342848
23.636747624076026,-5.982319122828199e-05
23.645195353748676,0.0017879039723045025
23.65364308342133,0.00723860133520313
23.66209081309398,0.015058555844067463
23.67053854276663,0.021862818668336247
23.67898627243928,0.02721964766063655
23.687434002111928,0.03054252004409712
23.695881731784578,0.030593207807167008
23.70432946145723,0.02796857962058754
23.71277719112988,0.02296560868794827
23.72122492080253,0.015031866070752641
23.72967265047518,0.006181525282812433
23.73812038014783,0.0006393372183641814
23.746568109820487,0.0007526254051387372
23.755015839493137,0.005552366912825353
23.763463569165786,0.010963333440113954
23.771911298838436,0.010831840754771602
23.780359028511086,0.001384528907525738
23.788806758183735,-0.016161300306952918
23.79725448785639,-0.03748050240995286
23.80570221752904,-0.0552387088879879
23.814149947201688,-0.05997054619681374
23.822597676874338,-0.04850282383698092
23.831045406546988,-0.02909453925164808
23.83949313621964,-0.013447350765995097
23.84794086589229,-0.006805295988572234
23.85638859556494,-0.006421654940050164
23.86483632523759,-0.0066040649282496445
23.87328405491024,-0.004274836560759685
23.881731784582893,-7.764602881438643e-05
23.890179514255543,0.003972853067375987
23.898627243928193,0.005629607921852116
23.907074973600842,0.0017043466011125983
23.915522703273492,-0.0098266033320682
23.923970432946142,-0.025298227200463704
23.932418162618795,-0.03700609765398981
23.940865892291445,-0.04016184768519775
23.949313621964095,-0.03475932264387237
23.957761351636744,-0.02386448831474574
23.966209081309394,-0.012709691358935087
23.974656810982047,-0.005580576787160404
23.983104540654697,-0.0034496742999004805
23.991552270327347,-0.005512282608991472
23.999999999999996,-0.011067358152243257
24.008447729672646,-0.020412031569073338
24.0168954593453,-0.034417174312471537
24.02534318901795,-0.050014310161608025
24.0337909186906,-0.05672654548983203
24.04223864836325,-0.04586520626358359
24.0506863780359,-0.022573020015726076
24.059134107708548,-0.00036080167226348533
24.0675818373812,0.012753075465686504
24.07602956705385,0.01689981044667196
24.0844772967265,0.014862068111669239
24.09292502639915,0.010020456911992421
24.1013727560718,0.005540924702071872
24.109820485744454,0.0012425522862008222
24.118268215417107,-0.003704335971904455
24.126715945089757,-0.0056266277126167715
24.135163674762406,-0.0007500810337927904
24.143611404435056,0.008718634194724928
24.15205913410771,0.01824326985059108
24.16050686378036,0.026839942248417268
24.16895459345301,0.034538682572909
24.17740232312566,0.03682009009824858
24.18585005279831,0.027292308636941032
24.194297782470958,0.004682641506130382
24.20274551214361,-0.024839648840319146
24.21119324181626,-0.04929161412414845
24.21964097148891,-0.05703119123505688
24.22808870116156,-0.04769203506448762
24.23653643083421,-0.0329986309631934
24.244984160506863,-0.021105519129592895
24.253431890179513,-0.00999403748285934
24.261879619852163,0.0011373256346055877
24.270327349524813,0.007814230024605684
24.278775079197462,0.007422721717308683
24.287222808870116,0.001422349824902684
24.295670538542765,-0.00802724500955478
24.304118268215415,-0.019284018377829566
24.312565997888065,-0.028902588576994247
24.321013727560715,-0.03178186571218889
24.329461457233364,-0.0259658556876852
24.337909186906018,-0.015503953887921015
24.346356916578667,-0.006329660647109712
24.354804646251317,-4.586948477667149e-05
24.363252375923967,0.005015784903697927
24.371700105596616,0.008764742579392991
24.38014783526927,0.009614497182063622
24.38859556494192,0.00607212305068065
24.39704329461457,-0.003244272049057316
24.40549102428722,-0.016606237479702923
24.41393875395987,-0.028116285859635538
24.422386483632522,-0.03312608791845194
24.43083421330517,-0.03292293608001961
24.43928194297782,-0.032325294272131794
24.44772967265047,-0.03263384106473323
24.45617740232312,-0.029198175983193037
24.46462513199577,-0.017228431484949864
24.473072861668424,0.0019779429799507186
24.481520591341077,0.020698484330388473
24.489968321013727,0.030177552269175525
24.498416050686377,0.02766809001694863
24.506863780359026,0.01829259621002177
24.51531151003168,0.009238094205674542
24.52375923970433,0.003916446570978929
24.53220696937698,0.003263800152725094
24.54065469904963,0.00809201948772306
24.54910242872228,0.016771139531100585
24.55755015839493,0.024014073235803728
24.56599788806758,0.023724752166554397
24.57444561774023,0.01265331546539328
24.58289334741288,-0.005120272073795424
24.59134107708553,-0.017008066015931075
24.59978880675818,-0.012737463635285995
24.608236536430834,0.004545546388007
24.616684266103483,0.024769025783145084
24.625131995776133,0.041667480843123564
24.633579725448783,0.05146488600922678
24.642027455121433,0.047969848048522334
24.650475184794086,0.026370196797921568
24.658922914466736,-0.005035204141832181
24.667370644139385,-0.026661513704775895
24.675818373812035,-0.028367959194620346
24.684266103484685,-0.017258742547052036
24.692713833157335,-0.004530567641890751
24.701161562829988,0.004578087810344639
24.709609292502638,0.009964366343299525
24.718057022175287,0.012477425242245235
24.726504751847937,0.012614409299896694
24.734952481520587,0.01168529551189617
24.74340021119324,0.009821300656951061
24.75184794086589,0.003944511688984975
24.76029567053854,-0.007926957564689691
24.76874340021119,-0.023740475698531157
24.77719112988384,-0.0397065441399112
24.785638859556492,-0.049040629785895136
24.794086589229142,-0.04495751492081287
24.80253431890179,-0.031152463463097864
24.81098204857444,-0.019026451799058305
24.81942977824709,-0.01437519777771572
24.82787750791974,-0.015060591397835653
24.836325237592394,-0.017457515586504376
24.844772967265044,-0.018305505222536354
24.853220696937697,-0.01417837612892528
24.861668426610347,-0.004790954923024439
24.870116156282997,0.005581791029530143
24.87856388595565,0.011576366455904505
24.8870116156283,0.01087034245912802
24.89545934530095,0.006595334362644835
24.9039070749736,0.005228687503649479
24.91235480464625,0.009597206926589682
24.920802534318902,0.013580157452184617
24.929250263991552,0.006968193002182945
24.9376979936642,-0.011375542780831128
24.94614572333685,-0.02969843079899328
24.9545934530095,-0.03727033863220403
24.96304118268215,-0.03410353322452335
24.971488912354804,-0.022301685909879385
24.979936642027454,0.0010191903116308267
24.988384371700104,0.0388387529174401
24.996832101372753,0.08845289037129539
25.005279831045403,0.1342704888242496
25.013727560718056,0.1484713765203645
25.022175290390706,0.11923507771334196
25.030623020063356,0.06950895954979378
25.039070749736005,0.029391535173955104
25.047518479408655,0.008513597938387144
25.05596620908131,0.0007990786245764621
25.064413938753958,-0.0033183582913225013
25.072861668426608,-0.009655447279371282
25.081309398099258,-0.017474559970408126
25.089757127771907,-0.02295753382047272
25.098204857444557,-0.02403818035242877
25.10665258711721,-0.021031633363647436
25.11510031678986,-0.015333415094745381
25.12354804646251,-0.009148371865007093
25.13199577613516,-0.003769855591880307
25.14044350580781,0.0024904890413048786
25.148891235480463,0.012002831837767751
25.157338965153112,0.021826900653144753
25.165786694825762,0.024034685959800652
25.17423442449841,0.01821345353854044
25.18268215417106,0.01850941234986515
25.191129883843715,0.03978747303005129
25.199577613516364,0.07633298794530613
25.208025343189014,0.09995718626764424
25.216473072861668,0.08982384295156413
25.224920802534317,0.05749400253652093
25.233368532206967,0.030825367829540873
25.24181626187962,0.025590566895513978
25.25026399155227,0.035571240417186185
25.25871172122492,0.041051055938067946
25.26715945089757,0.030200589126471857
25.27560718057022,0.008884925008439466
25.284054910242872,-0.012487554613128843
25.292502639915522,-0.029323096093928643
25.300950369588172,-0.04025955031772889
25.30939809926082,-0.04524528909294465
25.31784582893347,-0.04573728239303308
25.326293558606125,-0.04305222266140529
25.334741288278774,-0.03783856871719709
25.343189017951424,-0.031438175072314486
25.351636747624074,-0.026153856514003718
25.360084477296724,-0.023794741740844418
25.368532206969373,-0.02506478585895336
25.376979936642027,-0.028804988415457443
25.385427666314676,-0.029417186913152434
25.393875395987326,-0.020703189586075452
25.402323125659976,-0.005492053283731205
25.410770855332625,0.004200269515222885
25.41921858500528,-0.007024846058074972
25.42766631467793,-0.05566327702294381
25.436114044350578,-0.14723669852413518
25.444561774023228,-0.24871124657358504
25.453009503695878,-0.2907733850688587
25.46145723336853,-0.23715038774767563
25.46990496304118,-0.13196740518472
25.47835269271383,-0.04339106042013639
25.48680042238648,0.0018605036674785008
25.49524815205913,0.01212365089884263
25.50369588173178,0.004264703937869406
25.512143611404433,-0.002990142174248158
25.520591341077083,0.007409050162483004
25.529039070749732,0.04000189130218817
25.537486800422382,0.07933804214489912
25.545934530095032,0.09927596075370979
