0
0.011001558782344337
-0.020498176510462353
0.027635271806789652
-0.01274582692438044
-0.03745504171740699
-0.053300009593331525
0.018275799274597822
-0.032913301789628965
-0.018043684664052165
-0.14127911027374637
-0.11844600095386179
0.03060954935003511
-0.001776814596397925
-0.012317634879064655
-0.03511191771204175
-0.009405081660890087
-0.02844926557185624
-0.035270354991890185
0.03151721779465562
0.14658162181073625
0.014526202331656177
-0.03118691137954121
0.1688533552657271
0.13285681041275738
0.1739438346627294
0.12985323106054306
-0.030139603590996576
0.010369624687861036
-0.053520781617953796
0.02425470473680273
-0.016071050291138013
-0.08313072926055042
0.11682615208851904
0.05472527388487462
-0.014372969379069386
-0.02829752330077544
-0.1153280575056998
-0.0020145514872917775
-0.031238353280956973
0.016160363125003113
-0.036494393085734836
0.006139451125335622
-0.00400915694024042
0.05857011491695079
-0.002370573871832602
-0.04074544701958775
0.011103726500346843
-0.019954538958878713
-0.007154696608309817
0.0055892556875257295
0.018316676785219657
0.018219735450049568
0.008012201609050543
0.026661990445242423
-0.03217067018789535
-0.0009328267193202996
0.0077528071510568975
0.0027574658483198993
-0.004810954155825453
-0.007945849640753882
-0.08713375135154708
-0.02837729021601915
-0.21828611455268318
-0.12643166606797165
-0.06058906186346442
0.009096237728590256
0.010338426531690951
-0.0022250249226131507
0.005031472755427887
0.01892814117846646
0.06304921489440164
0.006897576766041262
0.030028453888047705
0.08087016275780806
0.0020461493725175664
-0.009773694638387545
0.002581812873041596
-0.029987158349610507
0.006764693316712445
0.005791606814674243
0.017618309564121696
-0.014114162473398823
-0.03225629730171872
0.0210666072587784
0.1799159127978332
0.05872422182675001
0.018015151632533397
0.017911828173923866
-0.02634907453994638
0.006386042562391346
-0.009790738293702217
0.032826914053614216
-0.0023693556180144357
0.009040636558024704
0.02003333422410767
-0.004367523870073626
-0.015200827644380124
0.028884388396250946
0.08646819996015612
-0.1301350283193269
-0.12628860077219417
-0.018461385347568617
0.01997394091558619
0.017787992779301372
-0.04752811153565557
0.032013850734907215
0.004900299931003123
-0.0043793658860273536
0.036417420481227
-0.013439893600970997
-0.030802530379202067
0.01918184933248902
0.012934074365288359
0.0031239433144072664
0.018339894217178937
0.019671199131600932
0.013592169703076942
-0.05424833226909172
-0.020064013181654943
-0.036672496081941994
0.02335830396812261
0.05205646141711686
-0.03821541887892679
-0.025065646408294628
-0.023195465443654518
0.01957753530194319
-0.0263189928312038
0.019996033722118303
0.05058499716678842
-0.02468054888471556
-0.03377091429789594
4.6557525182064465e-05
-0.017639629412853526
-0.1325524825122303
-0.025225745975784968
0.0052928072053006125
0.01640722262612333
-0.025966496590837312
0.10936914678286695
0.17486484703185684
0.0031294546201748406
-0.002911454169039424
0.017554155916391447
-0.011471782371718767
-0.024810079986454903
0.0022229570737366663
-0.02800729778964736
-0.017438150406403705
0.018398958906022517
-0.04271624801505835
-0.05912778502126512
0.028774309613282208
-0.06777855780267811
0.11227923253560504
0.1020181688405787
-0.07657371045900901
-0.005638418974766409
-0.013528056758259329
-0.039716757260413224
-0.009781649314444819
-0.009070529868630533
0.02025724746667349
-0.0006612397129029134
-0.0021312581557739203
-0.0006549426915568641
-0.008917501873555054
0.09863249157854985
0.05179538445054722
-0.035311734560605844
0.008281656638547432
0.003432582177578264
-0.024977967203594725
-0.04083094633384177
-0.0430571280903239
0.03231426063692558
-0.01666429101413714
-0.020885347516406985
0.0006979244650730408
0.0819849973444743
0.08526819350305907
-0.03031407694214133
-0.018235736786092287
-0.04383917723479816
0.044549066117871065
0.053998345167225466
-0.018299273591323773
-0.013089065817535547
0.01912933398418735
-0.0009002386133747438
-0.05338873158554626
-0.017692932543333303
-0.01455644387981667
0.013173784628609745
-0.06703744587354618
-0.07189975579835957
0.009272528138158858
-0.018038905316370268
0.11343376540050543
0.0671226703293026
-0.016749229703973977
-0.012392605485099835
-0.018263394196069222
-0.024996704310444155
-0.016953215038799693
-0.02971270976608675
-0.01000509782023068
0.002955761977076058
-0.005617694907110464
0.013990412186236792
0.023330340493881798
0.004702511572628803
-0.007334913416681846
-0.021723836176964776
0.00593829041696555
0.045295106624843776
0.03596627147346642
0.009198062587123905
-0.001819454153792428
-0.015542252413140693
0.003666726169817538
-0.02111650681542933
-0.01886378888011447
-0.0569165908559984
-0.013615205321332332
-0.12634207808067302
0.1022191314545216
0.10000030505116915
-0.050545572249135466
-0.003018549652462488
-0.02343316988936461
-0.0038546943356679115
0.06080899069722447
0.04039206514569808
-0.020318404251541095
0.0029679751124252955
-0.0053234585309783755
0.010990357826374718
0.023439469513386442
0.008705102787898055
-0.009255617585748558
0.01026255570616512
-0.014239424861920652
0.0805255868669652
0.023901795760828393
-0.014487980835534276
-0.023938082959779877
0.005741472519781308
-0.012503560997879902
0.008099720623927114
-0.010696707954463456
-0.005367924464740568
-0.08322494993693323
-0.16268017301093335
0.018833747180077878
-0.013506835002963777
0.01923416322362295
0.010539647605869855
0.026889627888760544
0.004224223242037799
-0.018510097432997197
0.021354822672957043
0.03284985659226175
-0.014557467031127863
-0.02689493007195006
0.03305428170370151
-0.033553960264792154
0.03139303263059925
0.0256446093747456
0.0015951720916974027
0.006180362103863287
0.01002623314145284
0.001063235036976815
-0.0008995540897600807
0.002694476291387153
0.062348675423389247
0.010632897253386255
-0.02582843988230964
0.010264891273027725
-0.0069709494860431655
0.0023818739938301038
0.0074686367925065
0.015359187704945822
-0.01504834230156285
0.008009188199431418
-0.005193302583561585
-0.022344590486545694
-0.020843979987395886
0.023035937618845627
0.013340797949779847
-0.03172871352989286
-0.018761664259821058
-0.010976983116251704
-0.00598001659728536
-0.008082774137651521
0.031035506228078304
0.00848426909087385
-0.02060958085423395
-0.04548709437153173
-0.013956873280637704
0.006467996792839134
-0.010511193222934355
-0.01924942539098764
-0.0018510521229321716
-0.006653001789297133
0.09539576149919105
0.03734707535979512
-0.03236502688394032
0.018374698899994636
0.001687819213740009
0.022070664757800798
0.03609470883537241
0.022772084979638545
0.0013837482448070713
0.025287755014537595
-0.0001796090750183327
0.002620854245883836
0.049580593078900274
-0.018848776134018738
-0.022564448915394886
-0.014798045722622579
-0.006165023580239456
0.0001523491677432408
-0.020592942318401388
-0.07217493184558363
0.029728476929827486
-0.025937412137244636
-0.009353518658135041
-0.060729752961169975
0.010114406718740743
0.020593869425739483
0.03894596741497215
0.05984489312544909
0.014587236711513196
0.04692687856317423
-0.003086601865438644
-0.0005422349174362372
-0.007600608703785057
0.017052514403089605
0.025798398189360864
-0.03698677164882313
0.03647665819215215
-0.03830005242506279
-0.1569509332947117
0.030402502990775567
0.00577796181422126
0.036903530572896054
0.039938701234877444
-0.07530638314224887
-0.07976949132834918
0.035935447968557965
0.023755519299357993
0.020681846434316985
-0.010457663900910505
0.04203327117745258
-0.07359867067641593
-0.0314722818925187
0.03184975763168381
-0.1636351752213622
-0.002756414655690833
0.04430267652870114
-0.012111838564713758
0.02998943692356672
-0.005243930502567029
-0.03567111526296972
-0.010457364414252256
0.013296530636922401
-0.020592532007651723
0.0006381851180373073
0.005886492987975459
0.018049556574804684
0.012239837866852399
-0.01734943972341059
-0.0214221708876653
-0.01502015767498002
-0.01672818422821416
-0.009961790517970333
0.008175783093605364
-0.01176012898892874
0.06004661244954555
0.040267754626158066
0.0022003175373337784
0.046785953169718585
0.061505114146987
0.06033453641281369
0.01776322208793821
0.018851377406575574
0.01692406379904435
0.04934852400952312
-0.004657120536643313
-0.016785959676085992
-0.023205377207970775
-0.0334014729674118
0.01163175169869161
-0.002393437389142085
0.017201580856969354
0.03752649883312244
0.00042032670840886385
-0.058778991955557275
0.02344045608674342
0.030881352240994416
0.007215677307062385
0.0035108209919877667
-0.012174920347832142
-0.09919920078566632
0.025157751038594023
0.030880247240172364
0.0897419862085265
-0.013099366873102711
-0.023891907626094073
0.0003393374582741888
0.05001504192341451
0.03612646037646374
-0.017909974343250725
-0.00607259577384794
-0.059114259266440046
0.023859207662636966
0.006165630058625327
0.03812122859036894
-0.021943803313243356
-0.0009822290175839866
-0.15167538849602477
-0.06537961855750714
0.002940554825235068
-0.0004784142625795033
0.0547139670035198
-0.015076327041310086
0.053268464042399113
-0.03906277295572221
0.09895774261042363
-0.011975205557632153
-0.08989090947181397
-0.03216634763628908
-0.013788305932232736
0.007406464382477941
-0.014510115749868432
-0.01145238129510084
0.015452980422681306
0.018594598750099323
0.0003491708851041513
0.011376815929734265
-0.003973138786832947
-0.006345090053249543
0.0030324853342753237
-0.06925370343635341
-0.040624945614885645
0.04552431811348652
-0.01810842353815721
0.022894001683421344
-0.05056851937334435
0.007796007354711214
0.03967889466125428
0.018584827343799414
-0.034452779295897455
0.012896316666386829
-0.0165849141405965
-0.008299563394550928
0.004489284310524448
-0.01618477683693822
-0.0013866450773436262
-0.015300846978967208
0.005599832748062456
0.020701004566587716
-0.009416014205099407
-0.0012197376587606214
-0.04105794696016843
0.05339541471468917
0.040980878016629536
0.024209700623533024
0.010190184873112353
-0.031297418064934614
-0.00023028199138624796
-0.027227839597679323
0.038264663257500164
0.09130900969097369
-0.00562510289571466
-0.02322798143598644
-0.07733635154558333
-0.002635147859866074
0.021285155041811672
0.0012607523788216953
-0.00796776144512374
0.01185290293221867
0.01520191918796947
0.003251280772904309
0.01649338713735965
0.0016860728077072009
0.010400397570263344
0.01617385233248162
-0.04254437206445802
0.04703352381216211
-0.0204364358992001
0.06031131334239802
0.027698522017285697
0.07693141847474047
0.05117596241023909
-0.013584241069444782
0.038907117762493434
-0.004041108568505135
0.010615479764199333
-0.022903889718302223
0.0006837791106097603
-0.020994363868938982
-0.024275526027493045
0.03775617162798689
-0.00529283159798345
-0.018941697253844824
0.05379137340886023
-0.04458737771113967
-0.11949126526802395
-0.019669829568462992
-0.03842655841764677
0.02430654847619575
-0.038916232516418396
-0.2517048377293148
-0.00950119068123271
0.0584426855601081
0.04894506085864702
0.014577615460822979
-0.03188211773584671
0.011136747573517364
0.01898843578717538
0.04541955013830314
0.010582508790545415
-0.02044028213269607
0.004247635446302889
6.173315187679093e-05
-0.023932807286874094
0.00019821778706427678
-0.014780964396011897
-0.07944341416227534
-0.023076089344568135
0.004065446746553047
-0.0099574453778524
0.006437591880385601
0.08815885743979364
0.25219859626650326
0.008473945384259033
-0.050439797180248616
-0.018141006451458736
-0.03221317036249814
-0.002414962846727635
-0.004789594102302733
0.003715130048800547
-0.0017788215555886737
0.0076874934433754675
-0.00027039562937953264
-0.04114683819077615
0.02673404289000445
0.0446207668677869
-0.036911310967741986
0.011150888760340876
-0.005086082078775735
-0.020370303735324242
0.013563271724996717
0.009484849435840187
-0.023757205851809602
-0.013837488229101934
0.0022957799855196793
0.038676437246987855
-0.004901721144484001
0.013591425887560278
0.049325252405206764
0.006367689508694091
-0.004148420490271475
0.010855687395207814
0.01635879645029409
-0.013604754688640515
0.046207527232007106
0.01699095053217125
-0.022282707400503712
0.023965140502642424
0.03477491475565306
-0.014016379482013824
-0.05288247730509364
-0.029945470784253678
-0.008220540124039402
-0.026772266260471845
-0.020069057648720304
-0.009892366862598924
-0.017311947904998817
-0.012234429641186777
0.012047225064881515
-0.012008037975241123
0.047092839352615004
-0.0212397052571899
-0.0399949586033347
-0.0044011302188280465
0.03022577778900379
0.04954432717533933
-0.07675499042619084
-0.0501490955644896
0.01786778002780463
-0.0033692289435364267
0.061066989764675776
-0.03127314593223256
-0.003382580483640335
-0.03572391275441748
-0.16377943377461845
0.005918349727759322
0.026627590653456927
0.021847080795084337
0.004505798287346653
0.0019241502074836836
0.010085933668042826
0.008736715386747768
-0.039146592043187156
0.004229398047023339
0.03124842896444099
0.0798097139504308
-0.006550644227145028
-0.013609444755642602
0.036693721899986806
-0.018265357313556323
0.016687601520122712
0.0036062497410434347
0.001031927153192267
-0.016267618936447768
0.010538026232562064
0.037026515140404496
0.0035884673775987263
-0.010415823190638674
0.019203556424954037
-0.0033625513458502326
0.00682107355741574
0.0042241148005881
0.0016487534534380594
-0.013109320779978239
0.01419376116358548
0.029982816992949704
-0.022837526880956367
0.02808481128058376
0.015705242183964827
0.015569857019148002
0.024933675062263308
0.014509894069746898
0.02077322549843417
-0.14460076297644084
0.015158808559881201
0.04751108815759918
-0.07530078582081708
-0.061876109658035895
0.010686553713873375
0.02491831770281266
0.012122980615830063
0.030938635374654168
-0.013187438106491462
0.02081803333308421
0.040799955549374725
-0.01246366873155466
-0.011894227082365984
-0.007115974380905053
-0.02664597435409824
0.017843025746457065
0.005931931281521527
-0.011556255484295954
-0.01054985714942386
0.05535220481847476
0.03921910944421078
-0.07021139848943975
-0.03475542747694688
0.0039676175088709
0.01284177036761902
-0.02193960513190118
0.05579638883121616
0.008456902121894096
0.029294067339714087
0.03526640501998957
-0.024084169051994696
-0.018666860331071112
-0.0756466880034827
-0.00025551900751821744
-0.016727322264468148
0.024851529564308836
-0.02633277822241848
-0.02480891613828162
0.04805815973313119
0.015921528224621995
0.005188725928787352
0.001670477563036703
0.0067649529603510524
0.04134240278691702
-0.02123291399878881
0.00781079082057241
0.022803516185160463
0.00687399568856148
-0.029876263732213887
-0.009549981077582521
-0.027891724436996307
-0.007126919585919472
0.027896529329761794
0.022381690552893185
0.011727620747765463
-0.018526389118682464
0.01584916689231858
0.007066836760915865
0.014961028451377024
-0.01925355144409036
-0.07575920287223542
0.031567020376749064
-0.10207750142018092
-0.05989073063912864
0.049422579930677155
-0.0025755790257012095
0.029846071402619422
-0.019145248363917584
0.016472990912419574
-0.135086513833981
-0.021969543929228588
0.003995006195216417
0.03125886085942143
0.07510891315269573
0.03759099971849603
0.05210355713667965
0.010763135968945185
-0.011550026705495842
0.02338606921281405
0.02094306797173193
0.005705631077153408
-0.015989147103515317
0.011336296472277636
0.04338268161396273
0.041838604517657425
1.4475168012344413e-05
-0.015696197164027433
0.04815674409218891
0.00573040408383343
-0.009936563954040854
-0.010127644929293644
0.025539630103254236
-0.0018529882645819738
-0.01674880777481694
-0.014374410915657075
-0.009648741683140828
-0.0757756635237546
-0.08179683710687234
0.020736348692492405
-0.012382920357502098
0.005675995018764141
-0.09910419431870733
-0.10009313204379275
0.026653663013688392
-0.02267977879351982
0.0552086948060045
0.07369388289242997
0.0198431563334064
0.013194845137368398
0.03174348876108184
-0.06530301377667963
0.1086576175636355
0.043732183223909
0.036128600830301755
0.08203385790290604
-0.0672512689206949
-0.039066410208811866
-0.05540607145547622
-0.03759349237366793
-0.012976226045797767
-0.002958944515544676
-0.004482801954424346
-0.03290907253757977
-0.045506550347320096
0.05014344157285997
-0.020131943237379678
0.007438053689212287
0.07488268980951042
0.006772554101650381
-0.006127180621784827
-0.020695182853947662
0.01813896483873465
-0.027222907095122352
-0.03372422753227201
-0.02672630909032367
0.009129052276595925
0.11643090891086114
0.05076118962957074
0.020489319257617745
0.022071417427172713
0.016794459974010308
0.004317234519256831
-0.048230889393780535
0.03306612038500352
-0.027587770944029248
-0.057188848649012594
0.002864784880245481
0.010764782824058447
-0.08947133517902242
-0.05383960846169575
0.06137244688090397
-0.005726465684386251
0.07854587326965136
0.14142277481071464
-0.04457824579333838
-0.0662144357201577
0.0058992852426203125
-0.03463910883944067
0.036931564359984716
0.016142336481554
-0.046058882390219096
-0.024174276413661776
-0.010982686909832739
0.005434608793853434
-0.006351067778497915
-0.016028427126875917
0.006914118269932949
-6.281615048794161e-05
-0.0164834138274223
0.006367734304366527
0.019218737739264018
-0.01757745393887238
-0.04146413993640637
-0.11179270262291242
0.12116520574488585
0.12679311700938053
-0.09390959053953783
-0.0430010340697966
0.00446621696752014
0.038741474055350104
0.02515038463760287
-0.0023303504587818035
-0.01503727059190824
0.002897056858578548
-0.0020743000411146927
0.011703901198876415
-0.018784838526637215
-0.10730081825274497
0.03858522632136773
-0.02574362705659289
-0.007821083822615735
-0.004092599781812152
-0.011053617213634757
-0.012670617802395057
0.0019154767795596449
0.03406288151002356
-0.008406026665305629
-0.016934986851655284
-0.026868446463316143
-0.015425193941379102
-0.028085982270663255
0.00820802679348131
-0.001341401719469915
-0.02620793696411859
0.005238117919511985
0.11801402182781946
0.16127650226282894
0.009327972121104706
0.017664832331317052
-0.09793418345588006
0.03937473796471791
0.17044016779810184
-0.016330410050661562
0.005125199854276038
0.015487969928263045
-0.007267688643631304
-0.031230740873532167
-0.025122834939452707
-0.018704092873167984
-0.0193821837692505
0.005668951707415469
0.05131242926011116
-0.07336918755410024
0.017496466909795762
-0.18343079482250035
-0.028541969120139708
0.1913736940356328
-0.015183944757627235
0.02812837060197743
-0.01745234766524349
-0.026925602676944976
-0.0023689881393063714
0.0019486614818967094
-0.022932749675199433
-0.018354776337112508
0.0009530473187017133
-0.004350786813765791
-0.03318460721350292
0.010738466084586689
0.0017919775198865892
0.009396145866189897
-0.011916361378473466
-0.013079171800491382
-0.02370387008902691
0.005487445085698399
-0.002625768167496338
0.018017417389358716
0.01861925154710212
-0.004248992847472669
0.010331446915907616
0.009486578311381262
-0.03209769031888582
-0.04355903490445933
0.040525294273321105
0.016656413569832773
-0.0007886384739967977
0.03509054282073402
-0.004090006740243385
0.04364023235361488
-0.01698263923421133
-0.038602868212707774
-0.029461960060510946
-0.01933932246082498
-0.0016585878493080694
0.00374836921385489
0.0289453905592055
-0.062348472248997144
0.015082912859244386
0.0076154284613673805
0.013886695428998556
0.039128333704748476
-0.00820832876000562
-0.031799870978059606
-0.022350898171889465
-0.007831467010725545
0.01881373166755762
0.01880890313227619
-0.025315219993912712
-0.004708193229636919
-0.007625635504520925
-0.016484499211528277
-0.0649612760086259
0.07151248403886076
0.025175856314004538
0.010185505950725485
-0.000636387005918172
-0.011983420974966765
0.03279068346081092
-0.012508374173195596
-0.01586819073282994
0.006357183642378158
-0.001797946213494894
0.006811341183827548
0.0037843196475349397
0.04383478823665573
-0.0047664235640986815
0.0018040461186145283
0.05197933540990879
0.02482330239015491
-0.14224896697313283
0.04183107049152168
-0.00026008864033411517
0.04052345667956495
0.03229564672883544
0.008492394294817008
0.06223287891940756
-0.0005463484585769236
0.008675549589762365
-0.03474833907213551
-7.321733577900685e-05
0.013167395531162092
0.00778063246343527
-0.041004940488157046
-0.03226522460426827
-0.00666320291421081
0.02009126607014764
0.021893572158279744
0.004277375052910671
-0.04223618319712644
0.006159798709715539
-0.020971974233724603
-0.032749254899012196
-0.03106830536828821
-0.09523022665740737
-0.0052268036440472265
-0.003458369229616785
0.008869406969670377
5.696278678543526e-05
-0.030690727927023938
0.022522363927804163
0.004938032505558441
-0.020735308036532212
-0.0643464395474482
0.08884452415824502
0.07067516646469767
0.007141590295373662
-0.030084351055249908
-0.03109924192272004
-0.02594513743707111
0.015899881000985768
0.048877365669208736
-0.013792642211731147
-0.0282844423445614
-0.0036750159388763324
-0.03862979933367298
0.15093051457660628
0.09701876748865272
-0.018006099516974232
-0.018853095995677846
-0.027649985162601132
0.00808083984536496
0.0061928429145662765
0.05862064130024084
0.05816143296905438
0.031713363492072585
0.007394105277408211
0.0052149795411720766
0.0003875542381592809
-0.018812424280264025
-0.023773261664489596
-0.03472132323265472
-0.021064228152277882
-0.01123672019487183
0.009672979464007865
-0.0008232493303189869
-0.02679633292220751
-0.009293163372558184
0.0038363595343593963
-0.005398405911956285
-0.08604255779792319
0.00016036323658857068
0.023942614592863707
-0.015171449134976495
-0.0026497446774517534
0.06129748583018448
-0.009697852261175003
0.028854740721712478
0.009215101539149161
0.0036753599135426122
-0.0025606472504486515
-0.042170996404229825
-0.011157191082307439
-0.0006131143351781608
-0.01374760189659139
0.0246295763188078
0.02029302768045511
0.033362496033766426
-0.02353057359220802
-0.010657379173061353
0.005749115570965779
-0.00041880514726190255
-0.013675385298909016
-0.0021803526994753084
0.029522955206560474
-0.0008679379504425268
0.0021839235803970615
-0.03886318660092071
-0.08443096785317486
-0.1007515152846704
0.0035901370297027734
-0.004228783074547775
-0.020880438881408333
-0.005215615851522011
-0.0009897095028510788
-0.03250479832097908
-0.014753505184977398
0.00910764467614763
-0.018318192455995662
-0.04534635379019416
-0.014606128710682044
0.0014447915355246953
0.06930681165308687
-0.005455303645596242
0.008930212498063257
0.1328013414479305
0.0013936717084749295
0.01860659315931095
0.031927619185973984
0.015623227410196758
0.10120310758498437
-0.03770252641875552
0.025927463179225067
-0.008830835922373704
-0.01418501205240422
-0.11659825271771627
-0.10598212225171799
0.027690205167176424
0.001705859530468191
0.07097672908454475
0.03981490504322551
-0.004810057601455646
0.07773475217204719
0.1513972275085335
-0.013200000971618633
-0.029475620057809317
-0.017954953302229466
-0.0004955011557382154
-0.034776286609467265
-0.034152952073892934
-0.014875081697288904
-0.013347603556943751
-0.02721586634403445
-0.01392769143747495
0.0637994599504802
0.0006350809200089931
-0.05924329681409144
-0.031637578306836965
-0.037691915031922534
-0.0043253873467875925
0.022306327708202858
0.053906080452129815
0.038653859067553094
0.008076962973831616
0.01848590177370493
0.08044271727434915
-0.010301055411689292
-0.01001244690846891
-0.011727559317554186
-0.010306378775932316
0.03542368206264528
0.031426665158164384
-0.01648894047614503
-0.0028342940847685526
0.014249354878323548
-0.0062255094973211475
-0.051629593259298355
-0.033318398213367136
-0.0356657112087952
-0.03423059463685295
-0.02855407151441088
0.001624090931867156
0.015733745970969576
-0.02331579870573189
-0.017829364798679043
-0.011329736721031528
0.03601999983985954
0.032079832449657196
0.004039051613588246
0.010400556592304286
-0.00046975128444185063
0.0011809342071400855
-0.012624412833828806
0.03962936946777785
0.0011071343149607533
-0.023589121717652865
-0.03646087839148646
-0.006380426889465711
-0.009636945669298902
-0.014136815240106368
0.005656038737018389
0.0033154531989346907
-0.013487918856238174
0.0007877076110642758
-0.032439267586373215
-0.037927364811021325
0.02413452525423276
0.018820706941835966
0.016554706675239072
-0.00915701504020934
0.0019834727867858665
-0.040618988100119185
-0.01870752557784357
-0.009925308275397083
-0.01588316588787939
0.0030518659353086747
0.05304362472492211
0.05062715303042473
-0.014206027416667077
-0.054021659181995085
0.006217858830190934
0.04857456850366124
0.06745610852296689
0.015339667510323758
-0.020268404299763912
-0.036014376870052614
0.0073867508884440875
0.011868547992413717
0.04129174631424649
0.03363034882275862
0.015290333427618385
0.05390507339491521
0.029329557286896492
-0.0139792566826846
-0.04289764061767449
-0.0008447648805282453
-0.006054787640147635
-0.004294414899419398
0.010946016969556625
-0.08836380939845435
-0.03825332989511253
0.0016026595070154914
-0.02071021479882637
-0.036428085525272255
-0.01086014235571819
0.05350978278572711
0.01702577392470255
0.013212670390868615
-0.01798011695622357
0.005100708617555714
-0.01782804373092331
-0.018644456820637857
-0.015597124469014493
-0.010139776983667732
-0.006254619888151178
0.013625388337701053
-0.004926972936410883
0.048020490522139754
0.06109713424052298
0.005986378820662616
-0.011999146765441563
0.04790110525956696
-0.014887504124372244
0.08048889700911048
-0.00018180004985485573
-0.1191581627564774
0.014857293628516427
0.0008175281638024263
0.0025599036330713133
0.011129265040443396
0.040125150797081795
-0.00843315778500042
-0.06957726823314343
0.03919078766014601
0.04881166286154448
-0.0013322579527961474
0.017892391335516608
0.012339817898948639
0.011936624429117004
-0.01767361284845625
0.004629760814467935
0.013935571038907659
-0.0026341352539450665
-0.02966581569273823
-0.004460722080382076
-0.017665155439602873
0.02657855930171095
-0.033759981708798535
-0.11035338401807315
-0.00021689354889206183
0.01075143739948711
-0.004791376864304449
0.022959401181640225
0.024799590791571312
-0.021252784612222422
-0.060138027065977734
-0.03575332030162592
-0.0784768951365818
-0.026462125544080718
-0.010532684736804984
0.024540283312270317
0.012561784118656615
0.0007522529967089658
0.007849975528812402
0.013704694755650136
0.03842972165635223
0.014612783773382878
0.01963772000377218
-0.0074072587165598305
9.719677169996484e-05
0.008489892178230951
-0.01173554968456771
-0.08711689169858287
0.01219967518733631
0.07737129844343722
0.08828148151637488
-0.0265521047137827
-0.0262286013122178
-0.008520390341904467
0.07992335682985807
0.04261192187567762
-0.005318820956155968
-0.018770369749579564
-0.011316038115743932
-0.09431262901196891
0.0012762210100429596
-0.03677195164718579
-0.0024944334642764796
0.0014623012851679037
0.006440472280821888
0.00870654887534821
-0.008358205935964516
2.859134117869782e-06
0.014340833378103482
0.0018922904856351012
0.1021497797328905
0.06379172755828151
0.08849275066781691
-0.033867979442021065
-0.0380036498532578
-0.073732081127485
-0.009826156144371722
-0.019852477137837988
-0.012695776166329052
-0.006542783641273687
-2.0221351999812876e-06
-0.01460612329137162
0.0022175440100508344
-0.06192392181860787
-0.00533930077356469
0.027108095624802684
-0.002597691930779314
0.06682188658871506
0.02711549284291842
-0.06725436071638823
-0.0406003699431471
-0.0027215672497920896
-0.004171556453097652
-0.02121759574214216
-0.007416831500674355
-0.06718353698376699
0.17664063892794793
0.1433127113984667
-0.02014197033557123
-0.00807454310224831
-0.013349171218127998
0.023694093406657353
0.07637131271503325
0.021984610882318203
0.06906206145117996
-0.030326465699175846
-0.034887031334806855
-0.038865091508611706
-0.029024148242189577
-0.0027727486993104383
-0.032065855924515586
0.006718685400810348
-0.028542190952033312
0.004931931253451691
-0.039315040151612496
-0.0748149546667204
-0.01897945920730888
-0.002365873638616958
2.9983590345841955e-05
-0.01601473951017693
-0.07618802391975235
-0.01834306839410274
0.003115213082071692
0.03306524301366822
0.04229093360005764
0.025046438540110492
-0.0059210765651525185
0.02506543091317622
0.028472582490235224
0.001763683396548297
-0.0019265199427576216
-0.020776052630215827
0.010017339177912372
-0.013786870070276503
0.030729171707097318
-0.004977526383261235
-0.012535013928628847
0.01808106988432774
-0.0015388144965550197
-0.026534528905722846
0.05029314926675355
0.02484100003320528
-0.04270593982677529
-0.0014456502572010863
0.031087182686756788
0.030430079277229235
-0.0017218038928388676
0.00930879680920672
0.02054656073922834
-0.011252258061819849
-0.035333143086614345
-0.006037535530283402
-0.009599018336141855
-0.008808992145021129
0.026373480279288517
0.015505371075255157
-0.014052234519786043
-0.012933326193053818
-0.006115377844890615
-0.018085490137975967
-0.009659522177909576
0.032323095444613634
-0.026817449905613133
-0.009497587910933995
0.005568116670339097
0.05101805358181643
-0.03380457857592019
-0.0499747441305499
-0.04195131722887802
0.09697769866564467
0.010251477465670686
-0.04537366415492918
0.0331423839706472
-0.06150391486766546
-0.009446478764050028
3.8697358480651074e-05
-0.010503681752430032
0.05473575532059847
0.008988944863303002
-0.16162664198491253
0.04645359888459274
0.01785867968135701
0.0032036694442955055
-0.007001772411156802
-0.01794027917779616
-0.033293200790985786
0.027034957254079586
-0.005139167369792433
0.012018363049595592
-0.009317303456151902
0.044205665863031096
0.058791298554682334
0.011969678346887643
-0.024497623748957368
0.04128811824208945
-0.0061827059544931895
0.009540424427965674
-0.011083926442214589
0.01812635640298427
-0.01451550390403969
-0.09583627597378579
-0.026404334618869485
0.010702924569888726
0.023683814130793387
0.061135808028653926
0.061773635507933564
-0.023778150168625674
-0.019177211998188823
-0.01476928875761416
-0.006908506687077789
-0.005875890331577355
0.005506062809806759
0.03128508731334051
-0.015971852584481874
0.017401594722684915
-0.01826344116042665
0.03053594717602481
0.0020022391086638525
-0.011444435593369015
-0.02528891381332278
0.019805191352356498
-0.0066251981297327945
-0.036033913326579375
-0.010544131954302392
0.010974059197867475
-0.0012508480866479461
0.00929854548006841
0.010630503057081136
0.021781838145603236
-0.014721366040443142
-0.020528090492517775
0.025838763121160617
-0.0050190509677589075
0.007269670018807764
0.07790901498154951
-0.019001580929821037
0.0026830384339863005
0.01753852530116387
-0.03765946441319915
-0.037841269814617155
-0.0054673084017317665
-0.0011380156394737106
-0.013766228061268322
-0.016977849874777518
0.0063550331007236555
-0.026840654643311018
0.0001532689198858744
-0.015743845242376025
-0.0031048903579406575
0.04418008768701316
0.009208361671730001
0.035027489377951256
0.005369210076740658
0.03883285304531334
0.00747406832390643
0.0003901781190926389
0.052717076046972414
0.00462979342266352
0.005678181636033712
-0.02088683912751636
-0.0035511396033684247
0.006155243659997666
0.029241559640789977
-0.04363749752202661
-0.058120274979850284
0.021124892949945632
-0.007125078467138447
-0.013981737188467633
-0.026487639879320343
-0.007924065258408858
-0.02702367883840858
-0.046509951904955986
0.011433557020388091
-0.0024115613984895777
-0.014098948388496355
-0.023477796661086205
0.028672105668460856
-0.08606131480076869
-0.030461673013312523
0.015989774438851252
-0.008997439377514809
0.019221724028756677
0.11430422039830508
0.03795088500524827
0.033328909632462586
-0.03223857439213117
-0.0166269415652394
0.06268355491565167
-0.0019611858249137617
-0.03700653138150172
-0.024681814040888525
0.0048371096438103965
-0.016264464954072792
0.006192850074270406
-0.006854395209491755
-0.05349773618610559
0.00253808594973319
0.04883279759811484
-0.0044379518303691474
-0.018901614458724007
0.06941871656425677
0.07868728618787951
-0.005349447000948679
-0.026177778491218807
-0.015445257081600645
-0.021587857605165364
0.01711564427060243
-0.02843710099389832
-0.01882806367259102
