0
0.03840628567006625
0.004650468847983401
-0.06569544463497937
-0.015118373935559778
0.008622497729820763
0.05701393463024224
0.02269771445912055
-0.009215528311645266
0.00580085602932311
-0.03921417477661348
0.04976903007503004
0.1179334879025889
-0.0053667386007768825
-0.05049745426080849
-0.021792081946601014
0.018302471382651588
-0.009061203043686811
0.039888087322974865
-0.004842107354914221
-0.012316520997153737
-0.012395950600754773
-0.00929094966382662
-0.01952745843258636
-0.008211172170115905
0.001919706294415369
-0.02730421979371749
-0.007567545728172117
-0.015678194069635287
0.053596721494189044
0.05901593492143151
-0.025188323515977978
-0.00778235234825329
-0.013600834932937483
-0.02493484811407038
-0.014720854224895085
-0.006045879650343702
-0.019116117817404955
0.006900954711422432
-0.05540078138184617
-0.011467206027061999
0.032803439155209155
0.008202314697598398
0.04500258631951109
-0.006520752358869907
-0.0602355388079613
0.020644404312613013
0.004532730867096387
-0.013300877439485426
-0.0184556951554767
-0.005642451775293864
-0.0205949302766857
-0.0067677953268434985
0.00998511742598613
0.02635700452920958
0.006307962530053109
0.01387520351623463
0.04933372292607822
9.510353319717665e-05
0.01176900647951574
0.014693621552924528
0.034391077805727796
0.0009263551080406692
-0.005663487603666637
-0.037140842216800064
-0.04095718871331568
-0.022114600425292164
0.015397781089031424
0.061036439192915626
0.004600591678007621
-0.005759706472915592
-0.0012367353922235163
0.046727589664134934
-0.028321340578639644
-0.014702429442796846
0.0013439217830079565
0.017245954501268056
-0.008806632634308826
0.02100476124395683
-0.004769553561369306
0.0225563494814055
0.00529828466218704
-0.02010116822847751
0.025612549845817345
0.06140507000661485
-0.1427085283452298
-0.044015797234541465
0.042596397831054914
-0.019346077391605213
0.013939276362457939
0.0016554870969057646
0.001212695431328669
0.050062020231121364
-0.028047100642281875
-0.020144786293414978
-0.018549755131699597
-0.033918142254016126
-0.05528592354263464
0.007264102446194123
-0.028580980436027487
-0.07775302304737317
0.12866636318688102
0.017547469302403862
-0.016724902923262352
-0.04018529731804739
0.014132479477399056
0.018314782227379138
0.05291977405006404
0.003275984160659028
0.016858169339734105
-0.023118391538369115
0.0062219751003589905
-0.016016615142649418
-0.02095775074755517
-0.005282347838202663
-0.00018408341887710486
-0.02555731317280044
0.006872727993438448
-0.02255047842167008
0.005043429552925669
-0.04297083653642806
0.09347948250315712
0.05397553861272281
-0.02437086096283641
0.03415439993996595
-0.03731627205902855
0.007147076972799911
0.04173131012757052
0.003352536076711848
-0.038595588082774274
-0.014179082891964019
-0.04112071337782504
-0.029900307082794134
0.12728016705288894
0.08962470327185823
-0.08121530531624467
-0.016548949943672096
-0.06496034217137522
-0.0315997581201742
-0.02270991381699625
-0.013785169948855956
0.013336586018670176
-0.024409621834697075
-0.005674245992430308
0.04844281656472313
-0.02218818474865878
0.11417599726900728
0.10359512158418259
-0.017045732575582655
-0.007018578862128781
-0.011947211712432822
-0.039938158239813254
-0.012095371087477247
0.015392808035934912
0.009187389411220121
-0.018980175037251856
0.021682645871826615
-0.0040097324735374655
-0.015509030593153976
-0.008141112255237781
0.01771712449821823
0.020975643889219384
0.07973359345534817
-0.011706234851550324
0.01211918358109162
-0.01816808203114477
-0.05489169002611274
0.003032023090024159
-0.032141028982291375
0.005230989579750501
-0.014013872204983398
-0.0017990193989267413
0.007874793387392854
-0.07575119343353216
-0.0666352970261492
0.0018403601476205988
0.024460186138232223
0.06795311630740627
0.05795417569197031
-0.0011055365440747374
-0.004700278056254636
0.02874948164228942
-0.007321509953343422
0.0021177898952199473
0.010028447732239862
0.009705831047688351
0.012950530044896253
0.007842497501131002
0.014640051876795507
0.011552088818287093
-0.04867503391821449
-0.14253485165050542
0.04501679181488243
-0.03665829595801984
-0.05783210098679985
0.049467370667181695
-0.009137974911716078
-0.004869258118433558
-0.0174097532985776
-0.0018537430954390672
-0.018654509036817084
-0.027723717372826102
0.0419802763937161
0.0436945437309154
0.003450667762320069
0.03418831485420348
0.010114098027441452
-0.023558198207590645
-0.019627979401906203
0.014526426935237594
-0.015502369209925076
0.000506764267986251
-0.011304255996277573
-0.04255419772749671
-0.013534366008047092
0.028467799013142604
0.023333016808235418
-0.01486046731759465
0.05999953087365587
0.029579966301069058
-0.02439908054489471
-0.02029079648903899
-0.002510443920999998
0.02226764637485577
-0.009762915612769991
0.021265732775325317
-0.013812209351001824
-0.039467037874248156
0.08998204805997871
-0.0003807060436931671
-0.04887211536216493
0.0007313455497955001
0.014144813579952275
-0.030699533841077892
-0.04968088398136242
0.0001099043440879202
-0.011244845547832982
-0.027711140580709254
0.020425938497596805
0.07986170041180174
0.02020291074303352
-0.04953038570774654
0.029796478770179456
-0.004029975771826775
-0.007827169711044111
-0.007079350921136234
0.017520277656004713
0.015570980660787097
-0.030500786915999372
-0.02923518828086281
-0.017702185439730657
-0.011881231049198061
0.0030030356425462786
-0.015300176519819941
-0.006169175110323887
0.0226871886002189
-0.024827344793008965
-0.004931963612274285
0.05317094086987148
-0.05488995136249891
-0.037694891059740394
0.029960619933706665
0.16060766872112245
0.0053076185915572295
-0.00547665568437724
-0.03298265164470042
0.0955646209560133
0.0233925243272934
-0.06656186687498873
0.01747036988924849
-0.019777062469882298
-0.04421011323412824
-0.024455190104274212
-0.0008108237140886802
0.009429388754678985
0.0729376385219847
0.024697584413851635
-0.008257450326771986
0.008370798094911033
-0.05469678286805423
0.02816994176820944
0.04154435621759326
-0.03679333667490809
-0.012559741282836396
0.07954496704644297
0.02556309561099422
-0.028611548184204073
-0.056877162563644765
-0.04045351572225613
-0.005906626393557495
-0.03394716813426324
0.054106474279880745
0.09790933552021228
-0.0253288031459553
-0.056359608163620706
-0.04721217513994956
-0.004564437681618428
-0.02207703832086776
0.06878893754308182
0.02794476576712744
-0.013570184208087765
-0.04963796424241151
-0.03110589068923664
-0.008001813234448332
-0.07851894307584233
-0.03462634960353886
0.0032879063729727032
0.003553878361307015
-0.017840599482532107
0.02483222668045042
-0.005838415295512994
-0.04451436712902206
0.02832337753263731
-0.019893896091261108
0.020722991574254904
-0.02076417169032576
0.049445370632643246
0.07792809356690016
0.11198011515266951
0.0540357750366692
-0.012471675352078297
-0.03746504330523053
-0.022438869807399647
-0.007327523980456415
0.010232101613726983
-0.014793014503845535
0.004283010549022905
0.008297114269903766
0.00350004054152266
0.004592238704170225
-0.03393857709196485
-0.03864089521877266
-0.0057831431787728135
-0.0656279304204898
-0.07627010422701215
0.010142727867073315
-0.019392976371694643
0.0008740030615572592
-0.03496386165085002
0.12750576921397913
0.14305562916937065
-0.010017700454494315
-0.004954935922880797
-0.011650321769465679
-0.015289055764205653
0.02120721545175883
0.01856409934151956
-0.028658291762529597
-0.0016187356015809529
-0.004396184479175775
-0.05439540772694082
-0.023211515190761294
0.02168099341321262
0.015542691195500906
-0.021833910963909554
-0.02113079020810232
0.033802533954451375
-0.015818831993163883
-0.04697187034441877
0.014225525240614314
0.032367048579695246
-0.013581446761376643
-0.03506257251851452
-0.009339487848524314
-0.018598017641594872
-0.015379697512943059
-0.01603239075383051
-0.02395709331264007
-0.030555870823031787
0.08396461270436237
0.13642002463668473
0.008838295260704093
0.0023303930603342793
-0.017817464051781584
-0.038869048529290864
0.0731528366803465
-0.035149542870078015
-0.025594761837909406
-0.006649106629051793
-0.009841602512376334
-0.02512382112794234
-0.009806036984198702
0.005011790505061402
-0.03522545434226608
-0.02309728362981258
-0.03287189869185315
0.0012507157123807023
-0.012974567146044185
0.017675035615898706
0.03144380231841611
0.024249236253256482
0.03954818503830508
-0.025173625754800484
0.0011584591361030964
0.015404685258315873
0.015099137569604619
-0.0047281088246197535
0.10005846482304291
0.018640867270578464
0.01800360503775853
0.019154081793513824
0.008727934012936162
-0.00804803246798952
0.002924674317433731
0.007718029024091761
0.006600108264653551
0.006930848627295988
0.013172907494800367
-0.0009986965471072459
-0.024274609216390176
0.011477956838028323
-0.003926535401864907
-0.029695181954417907
-0.009538170675716709
0.026104341390336294
0.0022230581462611893
-0.00421707119445326
-0.004042533834829022
-0.010614344343916223
-0.0014236929321431795
-0.013669316061968079
-0.0047711923482514134
-0.08883236208494229
-0.011457280594090105
-0.00909160031529373
-0.026326826225686363
0.02540083596975225
-0.049492354896427115
0.007155318247913256
0.01737095060733022
0.014447428738948933
-0.006539597009941505
-0.008541014296903482
-0.0013860629353576787
-0.014454261674738482
-0.010762168236192329
-0.06042452417415149
-0.007666251500465756
-0.006717958383110686
-0.0360130538218248
-0.02285943390275577
0.016053563965644016
-0.028092788116040792
-0.002065259167661343
0.01818185511965901
-0.005643828259180467
-0.04577587051550015
0.10136570094991648
0.03224048279991154
0.03225158059087926
0.16179025011813156
-0.029999291179051858
0.029226665241604943
-0.10980329733787879
-0.10966873036274195
0.027110168622986573
0.027219104252834577
0.05276223756960247
0.048575344979367774
-0.030289255924190947
-0.042322351727861196
-0.02750529386939163
0.029879709147632674
0.036933671651928825
0.00574599744950958
-0.059453519883351715
-0.007405264861651335
0.002932721880150903
0.045404606013177154
-0.061614428692761736
-0.13401031151976325
-0.014149181432593316
0.11803168910968163
0.024389827527767503
0.011954854215033646
-0.03395619749222139
0.11780915715427165
0.1093848500338624
-0.004280046165254439
0.061028805835509146
-0.003788427188303352
0.010033969276571122
0.050350726826024206
0.019577760472449635
-0.032458460968398176
-0.01570617489332949
0.014126185590092813
0.02806585605779848
-0.037521546492114505
-0.061745879597845846
0.03826728900981577
-0.015813973018512503
-0.11807794011600739
0.01120349304921726
0.021318862834725685
-0.0018742282591589399
0.0026834238397578265
-0.018221326154807205
-7.724209160133983e-05
-0.016786150752147247
-0.030762462805818847
0.05618808944567227
-0.054157390970984584
-0.08261872954900185
0.010852019692761972
0.0262462901801383
0.03529886491707447
-0.058769266327540814
-0.01202300747648876
-0.014020253817067499
0.0023642952910086813
-0.014151182912716888
0.007630498622400344
-0.0002970869092898121
0.04696226711151816
-0.028416210254429444
0.007678642243965652
0.07015723475555981
0.025726870830476214
-0.010230470332143032
-0.0005867027368261487
0.009470565775032759
0.026980901529151145
-0.010494808258848463
-0.010132257320456767
0.04030191345328901
-0.006742955249642664
-0.030869940861740705
0.020150352173090004
-0.07273606512012928
-0.16462564077210343
0.07268488555895404
-0.021214554257761975
0.006604493217052737
0.010531787143659587
0.024669842218647157
-0.047749640010894344
0.00128941385865858
-0.008222303262716267
0.03470683190133334
-0.010748794763214949
0.020364993488164507
0.017515143774707587
0.021244792266246443
0.0877670235785828
-0.03054842201533935
-0.03806311086283895
0.03128851408661926
-0.005280353307955786
0.06302461602464139
0.022545968038218983
0.003912532739122109
0.005399915618589859
0.033312464250176456
0.05208642172821114
0.008899993045944438
-0.03876823933280715
-0.00047533473758383196
-0.0764823207438673
-0.034966468574206044
-0.031138940767338457
-0.04192785911754085
0.002070663150623405
-0.012368679883785162
0.07726798734459744
0.05957773084672884
0.020251630373539258
-0.02619202089705653
-0.1625296536063285
-0.03812399776666142
-0.009579628917741074
-0.0016250073071369742
0.015741435394823575
-0.01690930097006253
0.007095890934462219
0.07420389070762845
0.03430305257505774
-0.010959315581807036
-0.03563206529015873
0.020752627337143652
-0.0011195032673174058
0.0406088174610669
0.03024781043540614
0.011562698154423056
-0.10319681237313079
0.004489206396358778
0.012387997241231366
-0.005597834733440391
0.022374439917264344
-0.008713464248547574
0.053378564886211954
-0.013920198122674084
0.02065608324734185
0.016023200273041115
0.006541231243168283
-0.010290220818095316
0.01071443511113983
-0.0031531467256491305
0.01604300978466916
-0.0071292688682389445
0.015679195854918712
-0.020781723176576877
-0.028933510528907264
0.004397032795107072
-0.009853504614551404
0.014736148386537655
-0.03354922719092731
-0.006547990477518168
-0.0030837989900289508
0.014348231388821289
-0.006591263693824504
0.0011319107648067627
0.01412539691509669
0.03875706903688517
0.002498498918492521
0.016307747177859006
-0.009779761587134629
0.008681975693718483
0.012215242598906776
0.07302412316480525
-0.05947551664196441
-0.07590258058355975
0.010729918988577246
-0.05723602217025899
0.034794746963651965
0.030656705683256267
-0.02756619327786381
0.005981703833402844
0.008723393071728917
-0.012419486234369058
-0.029838300612540974
-0.01223348448058548
0.027431461692812527
-0.02798227983389654
-0.01767024746385332
0.09271277766378919
-0.02420011685096353
-0.01220031056824183
0.017373315250497935
0.012974758510436392
-0.08322293464618617
-0.06978424749058237
-0.006258022669633189
0.0013536784686181815
0.014200672683565714
-0.01888942665857019
0.0027558894500830148
0.0332377840057204
0.03741990192595016
0.058797848916735146
-0.00832771938653856
0.029141190306563657
-0.04380298830439341
-0.04366646793329639
-0.03369078382138509
-0.017925393878312157
-0.03652264578618799
-0.01401304691917964
-0.028767474096049843
0.10059033428189638
0.126321758596924
-0.027399760600420587
-0.019982589080645763
3.534688138098261e-05
-0.006883657141542817
0.028056481657011665
0.0502719701311965
-0.018656320057008173
-0.011188051699156407
0.01996911590089742
-0.012052154529055024
-0.02373544871789217
-0.008743611342723907
0.021446518061425772
0.036396126015262854
-0.01110363865623504
0.044248823918502045
0.024604444404981454
0.006251928950677257
0.010348587992346031
-0.010202088409388398
-0.050812858530440104
0.03619785860415567
-0.019189164865978013
0.02871120400676745
-0.025210518321577998
-0.08112501501626712
-0.03450961971404108
0.009730892569515124
0.017448463479943627
-0.03292326468413917
-0.013455721391777604
0.011577323829693849
-0.0015001416175566941
-0.026101323984240487
-0.0011743161297601186
0.01775548811195805
0.013029419757752545
0.02624082396073943
-0.02868627883483865
-0.004830892941043161
0.0075297124155669064
-0.004352745035064802
-0.0064285163375182724
0.03617328690826221
0.00033912138347039005
0.04639194207446399
-0.002998265696157126
0.0366704244398673
-0.01277576639211516
-0.011998218312886996
-0.009349640850167923
0.007337177735233993
-0.026289534595145273
-0.010583096020289225
-0.04267547997340297
0.01618109303932298
0.005838713176466019
0.023179055418826557
0.01241451776720887
0.004043196708606594
-0.019863554217796026
0.0015734799189402262
0.0037180132264796857
-0.0014909229395814261
-0.0010369198104943174
0.029371487742257608
0.1041313036892024
-0.149868806115061
0.025553940976252614
0.0674209640489409
-0.05563103668146596
-0.037684520551045216
-0.013661975189684527
-0.010768902380556755
0.027186869811388098
0.011809881637494949
0.025112055062717114
0.01700538246097203
0.0033033607599775123
-0.001648658870907563
-0.007536594560277547
-0.030142789141246372
0.020093662691838064
0.026354620301000053
-0.012131943580309612
-0.08833116175942013
-0.03745653152950313
0.03618850591469941
0.035745323306438606
-0.06182103895388138
-0.010895915880967265
-0.001439041292074905
0.005104937627379275
-0.017416266748426636
0.007472698909336877
0.05999344136981962
0.04654417860707774
-0.09611208187059034
-0.07976514132685911
0.009583496338285515
0.02963885346952337
0.0156893154577531
-0.03157901562225383
-0.004686414237989079
0.01875937380323923
0.07027649748375796
0.045892063670677885
0.056382658662345
0.006563054129421335
-0.004311749656769253
-0.014915164291379205
0.015708640992119115
0.05673154841464143
-0.036016029847369624
-0.028886314415866005
-0.008971524257538313
-0.027841729558720735
0.012880399453260789
0.005673442499506341
-0.004652004470499251
-0.032264337843604385
0.04757290356200736
-0.021802178542580732
-0.04783885151539747
-0.015054915153410616
0.015768759823983864
-0.07213574988060227
-0.16353835901311886
0.011016743575327267
0.028676687689794284
0.026768856480201865
-0.0003753459770472276
-0.001959207849549714
0.05127181210748754
-0.011549784525894896
0.14965293196356413
0.05290131736665081
-0.0243352899808724
0.03113333776333408
0.038211200623034625
-0.03400141914117187
-0.03711416864386166
0.03196922836474691
-0.025131645625924976
0.030607623251480996
-0.015604337922389659
-0.051114812752577295
0.028670337163765738
0.06653838161189207
0.03540752972646239
0.013096509226381023
-0.024011843219726943
-0.025491169844130565
-0.032000466323106165
-0.006958210476741645
0.04403879229427099
-0.05743295577182052
-0.010756332948394044
-0.0036751049145062635
0.11139165812268696
0.02083240813452785
-0.030153652530074376
0.003907259241594711
0.05502316562136012
-0.03791107834942214
-0.06712112396145889
0.020929716039557882
-0.03737687636978278
-0.015440589283033258
0.03694446435292073
-0.035998918972333815
-0.02462225662520727
0.022394948465658437
0.005108988929236605
0.016084681541368568
-0.022540758375540454
-0.012284482288545744
-0.02440210308989527
-0.0060217514745506346
-0.006354435254920436
-0.022162736953569396
-0.052715139063858885
0.012792520355194046
-0.01743975899926916
-0.019951535498724228
-0.05362074868831951
0.03838472994499198
0.03308565058797975
0.00021252302056614273
0.04041146551872194
-0.06641475065229215
-0.0628818204346863
0.008122399992157126
-0.03203739090644138
0.039598975166674884
0.001536737201281782
-0.020462022442669734
-0.017285994554205385
0.016908922911599046
0.06886779375868994
0.10276011741676302
0.033397699108103286
-0.050593775423917506
-0.013194851134073577
-0.015347698379240418
0.00035399157249038225
-0.002148171783939345
0.02660386768230265
0.011157137003344617
-0.02303707235999826
-0.024663246890474028
0.012908861262973031
-0.011010914428620008
-0.007226508554470496
0.0009172062552100918
0.01447307603053763
-0.03711935612261326
-0.0022309298465552022
0.05186609074530217
0.11870086927661243
0.04415753807783556
-0.0302571301632384
-0.006950187927953011
0.012081464693230695
0.028765957550514837
-0.0032412546698412383
-0.009283946214545076
0.018142758549886243
0.01751051109547795
-0.025797350768300323
0.016187297436104607
0.1697381997817569
-0.03221469850007218
-0.19834009688607304
-0.04354556600881709
0.10713693166333066
0.030179784185046177
-0.008458253889677301
-0.04408614016809904
-0.03987018003400826
0.009847872208428053
-0.003196744312318867
-0.0031299891666959514
-0.029874377534765136
-0.011681747286429598
0.007266825153740362
-0.014417022074517855
-0.004989453179784034
-0.025645490190520145
-0.014384202632049132
-0.004054688457134001
0.012904214353832091
-0.037111757795679046
-0.025432793787148217
-0.008087927198709252
0.011301551156064182
0.043928435404144726
-0.04492622195103443
-0.006643806283074956
-0.0014830824878088753
-0.01967193604665164
-0.0023179301554069613
-0.005608135261048082
0.005482619319435477
-0.02891600217165445
0.03263739690765409
0.024167690573219915
-0.012717807625555607
0.00601681378980517
-0.006124566859610617
-0.021926124964289008
-0.01324819060618102
-0.05008859632693401
0.10816466758266234
0.14667190975475503
-0.03929613205338049
0.02360480203341665
-0.02467176319886842
0.011937012835836707
-0.00798893281428342
0.004859717606004275
-0.07584152624298973
-0.03902519271082856
0.006663946333434424
0.025442459295868237
-0.021407047460269887
-0.07775279688667411
-0.034249403340253184
-0.0069293048387116295
-0.025666561117552198
0.012990477219703773
0.028080333730985448
0.024456229344287945
0.022209830527601455
-0.03337261898531675
0.0005402194080120204
-0.026281152452595925
0.13644613140890713
0.22766626489417102
-0.00806037202649106
0.0019065119694285954
-0.0184155706567795
-0.023554008719379564
-0.023908023495533427
0.025871511523878222
-0.004161950701158807
0.042270962279253685
0.10893433572185668
-0.018434770737479993
-0.13179188057785565
-0.0560609833129258
-0.04235358173478581
0.03811137535973034
0.031936334239981976
-0.04553201183875687
-0.020308099472280756
-0.0005818856435442424
-0.026154851841214546
-0.029642186664772363
0.002355113059051997
0.010893168765452432
-0.022297888153095993
-0.02399318079252147
0.007637288914587333
-0.033639051014656474
-0.026157834614952948
0.002147229065179687
-0.002642828716022783
0.02086340138427372
-0.030246020766472634
-0.07404552667934594
0.04492641177725664
0.005866571924714333
-0.006314241989872613
-0.013434220711679268
-0.0016334629801357905
-0.015600265695984293
0.005075577436401673
0.018920475285172607
0.027130462306635836
0.005811804404645607
-0.00492207646794265
0.09079283165157319
0.03348379110105871
-0.02302973450725221
0.020433828826118088
0.016617916623863405
-0.03594523688420661
-0.00416165126661173
0.013548629616457553
-0.020752314165404954
0.03988102132454481
0.04648498416983399
-0.045684932676989295
-0.01966265417499068
-0.01508584006359022
0.0449217741382771
0.01491168492257812
0.00012341805350925798
0.024369845224954084
-0.02576572564461086
0.026325951509304633
0.04459358732687919
-0.009253762989499188
-5.932966459342728e-05
-0.00047755513722629115
-0.021110626848277025
-0.03131207088463348
-0.01197696338298463
-0.002998531844264093
0.06762862001950025
0.010089949428624507
-0.006802169415993382
-0.05192514864728948
0.058129478068796356
-0.004658169744186682
-0.07668713130818108
-0.032899624355483166
0.02848238955923291
-0.1108001458243699
-0.07705663910822488
0.15996193825668356
-0.05592608540353591
0.005712577220715198
0.0010806494999437523
-0.00943361478101489
-0.0044732580617006
-0.007686541743593219
-0.02406760325826552
-0.016641267060116205
0.023135146067877133
0.023285085529662804
-0.014625990475898522
-0.021247638855367408
0.0004596408471722055
0.0408957089796147
-0.024528641672222778
0.07901186687117688
0.025379949722054786
-0.020280699104214508
-0.022365343619440217
-0.024148863072885295
0.011251093732625637
0.03444967412605156
0.007946904155313681
-0.019013625705373488
-0.08049454547565012
-0.01724784282082718
-0.00586289597712361
0.003462997863075038
-0.01152503742426466
0.004489875857799394
-0.011989934267528288
-0.010414101658890309
0.049993157039307914
0.01330809584745428
0.013259194230675982
0.12357248275148529
0.012892910757285873
-0.027723498942015885
-0.02625995530208183
0.00047828953973447024
-0.012729436014160102
-0.037286882212899816
-0.027307751563198104
0.00021448741035496563
-0.027917776484599352
0.011273890512425352
0.011321084035343255
-0.018022776334698672
0.03509869018698941
-0.09883241003317374
-0.07660509403380218
0.02167170224798626
0.10187518078381856
0.15969433115398876
0.015495551142476947
-0.003202385897876552
0.004383429014154747
0.054608709432023825
-0.023959904923089716
0.04511962261473362
-0.11090130362122158
-0.13212464932309767
-0.04897669718717264
0.11434219818672763
0.141446350070479
-0.0521900845799545
0.005125563697094663
-0.01444280726187788
0.01652305153952943
-0.013721930896346221
0.03969400695792637
0.030257312118792935
-0.018866773752915744
-0.03756574758992942
0.007455053901017898
0.01193240074706928
-0.008414222935577895
-0.028666548271800225
-0.026403436910257674
-0.045446298970352954
-0.06101125491537935
0.10162653749021358
0.04198092212870267
-0.028827907862481003
0.017876797857963696
-0.0032404106811252365
-0.004757010262659523
0.0054255606927267105
0.06365019756599088
-0.01591040986951305
-0.007902206750917313
0.0108514660477497
-0.035546256964142625
0.02092734442563379
0.007314761722940266
0.01690752778448965
0.00846498243257683
-0.18896455206341498
0.012535785933072151
0.015395865269835895
-0.059566248296802515
-0.018511573886498597
0.034633207691729874
-0.033224780206394106
-0.003376900884826817
-0.0017258516134779599
0.010670284418748968
0.0014699401232728974
0.010796335151166897
-0.012652110844567296
0.03834709446357924
0.05833642574851769
-0.06607121654736095
0.02155745279733157
0.05429096801056604
0.018012903583222602
-0.0007373887935422513
-0.019478447113337648
-0.025869362084244944
-0.009480058773667121
0.007538596346368583
0.013683695688094176
-0.02102597844340831
0.005985495582605587
0.00850159609286826
-0.01626667867076505
0.0006839247430747015
0.042040922928474285
0.014465716334849762
-0.026335995259342642
-0.04129378895888482
-0.021674440900218
0.001640678526279382
0.001960938083274816
0.012958805380388455
0.035789527524430674
-0.0006538801695670028
-0.007000633973864223
-0.023466211196081475
-0.027852980081292833
-0.023560731131840488
0.02639448052855838
-0.005177087181426323
-0.02586738381562186
-0.006754161100503224
0.01206845404392712
-0.016204796044035123
0.005103669059161586
-0.05724992353013738
0.05339029538055624
0.13574546857338374
-0.010487191292996351
-0.013652550800209617
-0.005686837429710927
0.022055574537266046
-0.053426434926805405
-0.023933269293519008
0.032409547177201244
-0.0012238519785498438
-0.025478711092660467
-0.016428052773154053
0.008618257831008957
-0.008738256816909538
0.005996722659698687
-0.006334614459193478
0.03174608668969649
-0.021438623861522916
-0.0017947193198152558
-0.004997497961439463
0.03273712372051085
0.18174405084308143
0.009142271254852914
0.007866964298849323
0.03809072146270912
-0.0020588000736940044
-0.002443934121952536
0.031769364981681064
0.008938840006903022
-0.05785212272541
-0.14514908800158158
-0.04446515443496759
-0.018160436535535323
-0.024836092484015887
0.023022172035461475
-0.03638575994963641
0.033061941498387905
-0.0174483465323025
-0.021972599363392256
0.05237032236839415
-0.009576643968252172
-0.019406452729205055
0.014874460137672666
-0.04697741686969201
0.09621064540771371
0.09488587288019369
0.023491230589334226
-0.0113493251164013
0.013616969873164325
0.06206436729179473
-0.0027228247005210565
-0.039202777270097626
-0.03565035375471798
-0.01946464021574231
-0.09516962551637803
0.0106615451258674
-0.045060811625960255
-0.01570374938429522
0.011326562720550364
0.017707285187320194
0.015129405247465416
0.010976368367238112
0.030954485809390954
0.019627683596404065
-0.002780454018619956
0.0024044891953963533
-0.04952297039292462
-0.03326537978217606
0.013537510728762246
-0.04535681401509138
0.0037495755831308303
-0.05046113848997981
-0.030506847255701068
0.1423284120985135
0.0006017011767598957
-0.04138882783330572
-0.021079756687237425
0.04020900831541892
-0.024488992377187855
0.03257250027943637
0.012772986344212426
0.009768466777670728
0.046017005702423536
0.01506939914337282
0.025375448977287912
0.0022854178349146974
0.010456116997189725
-0.012841433298943628
-0.002284688506020384
-0.00034261975574293243
-0.17849652316556194
-0.028496250249459683
0.03497881916130963
0.03381276419167666
-0.001711475090529153
-0.09338142044356704
-0.019855303017518255
-0.005200990952172474
-0.004185179775810757
0.02406135955963779
-0.009728288672103756
-0.010866035165554063
0.020433432793695718
0.013532358871467733
-0.009052793029552348
-0.00092877950068543
0.004843468621028339
0.06833333452819314
0.0028601639402898115
-0.011441363858868831
-0.001489120448582264
0.005086366519185378
0.06580486117343863
-0.009374400077060209
-0.00551958296970553
0.021289278695717558
0.061096728538730195
-0.002822122632757692
-0.03140141047290576
0.020089935212102665
-0.009441038652563861
-0.021208057616648915
-0.018311760421041524
0.049701220608878806
0.0394864115254964
-0.026661494740959732
-0.001540857097375595
-0.0202143337101358
-0.046643899747219504
0.004310613718914882
0.012291974986279899
-0.008520861969701447
0.04445466662888418
0.018306910816408166
-0.04089788135930933
-0.016392661639571274
-0.00894309114730899
0.021227134673525022
0.03468939383417423
-0.026289856560061928
-0.0021229865356138843
-0.03773298263324278
-0.062471153318400745
-0.010760876344671998
-0.015367334725614155
0.004670870014792604
0.01780798407085004
-0.00044164713068989855
0.03782238172050001
0.08867756836855903
0.035389395154647625
-0.051910445764451696
-0.04959408140308786
-0.0002893378134231367
0.0234351006472357
-0.10247014031800089
-0.14438903143672774
-0.011778601123641605
0.10679747117392627
0.1171100678736644
-0.021648423031581803
-0.005755753121266276
7.523750779280138e-06
0.029413902585755998
0.021549437351164144
-0.013083583441425808
-0.013302277312645798
0.0016338943898848448
-0.020169006582590836
0.00858818137557415
0.009331979969690554
-0.015668228111764094
-0.0024671166400877646
0.03352660391382853
-0.003514335942001619
-0.0025213637958148476
0.027467063077158706
0.03186985682047171
0.003761286739160965
-0.06955453645061802
-0.00989647262094789
-0.012779158519372145
-0.01050322451118475
0.050985752918056876
0.02935626477406691
0.030431871527501694
-0.011501496029937509
0.0003381209983383451
0.008606950010378167
0.020329341341992962
0.014432891114619697
0.00720119694726947
0.036399164562499926
0.05119655781628197
-0.017851284803047006
0.04846587671087056
0.0033090415884932016
0.0025348827536949016
0.027923495352245906
0.03561147072269846
-0.06942588433553738
-0.03144357295778192
-0.0014806326524385543
0.0016802824360628084
-0.008950880834638308
0.02109158549004363
-0.023023449420827225
-0.1789074419824196
-0.05861416460681117
-0.07440113680040861
0.10478223702539481
0.005248887741198304
-0.017230940584828817
0.0295518199938498
-0.04727505868543404
0.008315296175974447
0.030586723885498955
0.009610391539013803
0.008177087567528583
-0.0019478733561445365
0.0015465922212114084
0.03073125646129379
0.0071517582224684935
0.01803479119559239
-0.01451104405684016
-0.028283716920538785
0.06638958175431935
-0.041243234589335945
0.03019458967985702
0.09242202471463808
-0.02023355726140668
-0.015609618451046933
-0.04231082901040792
-0.18512852872714744
-0.010264240883054757
0.027268566460795982
-0.0455529086282422
-0.059358579281336386
-0.02313975123345353
-0.015887255062896937
-0.026307447038567265
0.006778595108476151
0.03116922662958425
0.052151321288271636
0.07240210522960848
0.00725852298345407
0.04925948571622855
-0.002960145496988323
-0.018717276679519744
0.024537520103537453
-0.002072688581561498
-0.012544315662599014
0.018913946843264327
-0.05127308194035394
-0.015667942523571007
-0.013644331747268555
-0.008558913706423997
-0.014113286931872242
-0.008028500308470507
0.015833785041781453
-0.0006709324268581096
0.008183963334324047
0.03546192622902963
-0.033355025279741844
-0.027890178693116045
0.043974021870061705
0.010229370380939773
0.0033622319532074707
0.019874083856596406
0.029795964397386573
0.0026358712499811106
0.011830297813861227
-0.011726994903242787
0.028581497061502776
0.0077079631082633115
-0.005142958983481962
0.03379680685663485
0.006875089186201038
-0.005988769440417307
0.014110333217040203
-0.014484519963648674
0.01068460470002615
-0.022029782324679073
0.0374635390197153
0.08805898936052146
-0.03161326471615617
0.011812346269770504
-0.028764607449249597
0.003199653138579202
0.02286591196585969
0.01626095142068362
-0.011351529034220653
0.03394288793553391
0.0913049861566103
-0.05015771077511522
-0.021737332432315914
-0.0046309542015826
0.022659420893373555
-0.027988198878161175
0.027416731259764744
-0.11172566218394198
-0.08587663749388046
0.01079185794866069
-0.014189198544310179
-0.004539913422896366
0.009206463300379247
-0.0672583644955301
-0.04616278817238375
-0.0039909057537277914
