0
-0.04737715687041136
-0.008928720069501081
0.022801376281575855
0.007003121196275074
0.0697880138657171
0.18954185081615998
-0.008416575419907427
-0.014014221849626605
0.036094452587087406
-0.03359048681734271
-0.09629164808273259
-0.05478576297614416
-0.01966630163320385
-0.013300616962260394
-0.0025761723316704284
-0.011792004504773352
0.028883391068565252
0.02458260473348229
-0.016345731229930424
0.010355097760649546
-0.015906565786023067
0.001943608036214122
-0.0028450302763248243
-0.005022436045681057
-0.027392249369474073
0.0032768789361645877
0.029375801995279522
0.0010010642925253317
-0.0354892431725215
-0.04600981621683901
0.0051809413199147515
0.01203217843747961
-0.02821486165857982
-0.016049405822478744
-0.02134107840357218
0.014635762773636974
-0.009136272822052267
0.07677247608232025
0.08577170950052285
-0.027386036914467008
0.019598197902098186
-0.0010763566447920994
0.02455509434269216
0.003911616128642417
-0.012412747763485726
0.0031240286928380327
0.007383670388907172
-0.0037150688657622676
-0.011945921703233284
-0.007573337642765609
0.023250362393564594
0.0009146061605539677
-0.0001779560240649654
-0.03847366133549445
0.020282320380574946
0.02979129099280029
-0.0361824345017509
0.02891153286077983
-0.024427253069737788
-0.007419532538291006
-0.0012571817897765287
-0.023052057801254428
-0.036821430796110714
0.012835148760372672
0.013644423627440653
-0.035758481489384944
-0.011586844968207813
0.08756768879531633
0.026129111410952633
-0.02564333606551304
0.0626899553567089
-0.016354762334166703
0.027710881810598588
0.0037913575669999535
-0.05228608815652006
-0.017910605630783456
0.019070625263843045
-0.06269592022910743
-0.10687699831293979
0.031817071955253934
0.09861005815721723
0.030229587990220904
-0.004539273739965705
-0.003588369605644952
-8.080433176238705e-05
0.0945936831805812
0.05963666908680689
-0.05065705904570242
-0.009110056881832048
0.03869457620582843
-0.003565853223021632
0.0075364870491079
0.023387520742581176
-0.02231711503630162
0.012307433162799633
-0.008320744571440346
-0.03024798320790708
-0.015213108733148493
0.005975712689043987
-0.01910353360457279
-0.014363965970375437
0.007010130102826879
-0.01046884729775775
-0.0161841417396362
-0.04421247836212016
-0.019064033874423666
-0.05400672977417887
-0.02831786322403512
0.0214533099190592
-0.0327276402128641
-0.0067762386926756586
-0.04843214230266698
-0.002142923783695071
0.004913632923234734
-0.01585537852335904
-0.010554521606278972
-0.014586538074802487
-0.0022342638981881335
0.01031402183304127
0.01078703097776494
0.008710370433900246
0.0421152579767241
0.002182671245767782
0.01482925997388135
-0.006813147369081629
0.01817486101574528
-0.002686653770300378
0.035302445966743035
-0.005899526368924608
-0.0034032697430501414
0.014954477303473613
0.0071075767202777645
0.004387100475214601
0.04436117732223195
0.013619911652486652
0.02087457804402053
-0.010077802441916299
-0.024097648608300336
-0.030054026771190127
0.033527453236899256
0.05750702834635777
0.006956238789523786
0.05249487249103991
-0.0551384647834792
-0.06354651961096437
-0.006034369798209438
0.009590386241371773
0.00940795326011492
0.016699691277094007
-0.01993422682647597
-0.04443532034923663
0.013648905257704964
-0.004292921786602292
-0.02963833951464231
0.03002652755329853
-0.009403240062888167
-0.0024834337855114295
0.019481915545568374
-0.009347428310869453
-0.02464176258815724
0.007550311723397065
-0.02502099966685558
-0.011099510308910397
0.01883655495258734
0.031549003904193795
0.0007975709824065371
-0.005932988955605444
-0.003455775265394425
-0.0004762476357794791
0.021839826777025426
-0.034901215463476465
-0.011027697429260283
-0.02080050309792976
0.016665347408810934
-0.008589060186698349
-0.018303694840846454
-0.003772434291849191
0.005246156213236819
0.11918238104883058
0.0022293501786517494
-0.0224669731422087
0.07273298842031346
0.02435372573192065
-0.026779945817155593
-0.022585461123383017
0.009058045811959108
0.007879598880095111
-0.03249714575450052
0.02424785184788753
0.006325574858769006
0.017008987563335437
0.02926762259763519
-0.010110842513760952
-0.019233561229185667
-0.02703340015066713
-0.0027643584835878253
-0.005444437034291461
-0.017961604985362013
0.022598751155302833
0.048920838344761124
-0.02771408603131809
-0.007802018021230503
-0.008637504921154351
-0.017023431502044332
-0.003956214898377193
-0.05197071286015948
-0.048956276357473814
0.007195070078968281
-0.0040798885698579805
-0.011205515012867637
0.04540550435043227
0.04891157758980358
-0.0467304381353257
-0.03795677599878513
-0.031800851453915244
0.0357078645075303
0.008166850718141393
-0.01618540710676069
0.02705476740610881
0.027418242236086018
-0.03828015128760578
0.0006882556539540255
0.09626177905460903
0.006482242430738137
0.03416936921704727
0.005042443198964036
-0.026864194745735617
-0.018488586221128606
-0.0020334930058860975
1.4377080320958036e-05
-0.04697624293551565
-0.009718570690346264
-0.039138784228134035
-0.012350299443763079
-0.015780785905319443
-0.081945441954696
0.0172992385044343
-0.006073748322085697
-0.03654894902694926
0.048692475322969844
0.06317456382637851
-0.028696806196255923
-0.006898225076854754
0.005617492247966645
-0.0002085624863423973
0.008509566373051163
-0.006601919793116247
0.07021719396662897
-0.016493773613972064
0.008436973907445243
-0.029912177233864665
-0.03203799307975454
-0.014528751663916388
-0.0044450839649702745
-0.03284023336043765
0.03528808938447194
0.028396935350978113
-0.029342095386189114
0.10011459360688853
-0.0053030751206784715
-0.002982412649901725
0.008875794716912853
0.05825626040240156
0.043602263637645085
-0.006264859079785013
-0.046962768038398724
0.008499150661690323
-0.033364076050929004
-0.018238444342170996
-0.017559336031873585
0.00023592323087439146
0.028152174441211656
0.08256999541797595
0.0013764949985331564
-0.004413298877303362
-0.024593180376197465
-0.02015674454175833
-0.010276318596887926
0.0077086125228112605
-0.017337118663214458
-0.011548307347361553
-0.008785542937563074
0.006325125957921112
0.039644351737889286
0.03609442642926246
-0.01107232997035993
-0.01085373915787919
-0.02364886527444062
0.02564865676693372
-0.028988601020196358
0.03495673516053389
0.015607294104317618
-0.028075693861697372
-0.002257365568947595
-0.0006066055289175221
0.005593493771535252
0.025933308489396022
0.04126766292009803
-0.006904659897857696
-0.09735149822137162
-0.1239667197902676
-0.008076596842454433
0.08825969049746973
0.09435436279693167
-0.013458865841590109
0.013621853415756262
-0.02033405358379146
0.005555665904448241
-0.033663199604571266
-0.09556587001649114
0.05200611271179404
0.027460383463757555
-0.005317826764912092
-0.009291209958463284
-0.006752358547645382
0.003092657083577451
-0.014732905061025108
-0.03091105125129282
0.025104955287536153
0.04698044932994329
0.006040826563698885
-0.05205372991601652
-0.0054196312393781625
0.033895033861669005
-0.05204747056370838
-0.016232402639632607
0.018327577089287228
0.016519530522548665
-0.014892703539879227
0.046439907631576356
-0.01928145685005737
0.0364110836252199
0.02768970335541359
-0.01831323921177467
-0.0018174941201456944
-0.04751413547554653
-0.03601320852758452
-0.02139278218011669
-0.023857227640771497
-0.0028738062899952453
0.008372477813232478
0.04044785731145455
-0.006973615135905856
-0.02769700107196889
-0.018127960254637154
0.0017832092112894566
-0.008336405400210583
0.017331835179514168
0.022517817996971324
-0.0012550955342133395
-0.018088768499060857
-0.011471376453380984
0.0008813137197729861
0.11041094225066093
0.009006233091267109
0.013492802163821111
-0.029969336993680092
0.004279164481293231
0.02985046887023759
0.026255721686990603
0.013701894546741393
-0.010510950903653869
-0.012130388328557638
-0.013244623514084418
-0.03136720114748167
-0.015017864288262307
-0.05512426047950937
0.03148786269775574
0.05001333249409489
0.0424378079977685
0.0050744626297402635
-0.025354900842258946
-0.026649430023025198
-0.014993501094243931
0.0064669766089050515
-0.018540686024891843
-0.023381671000998125
-0.03327500529331855
0.006228730992835522
-0.003277813923529731
0.07732320772831346
0.020104455097688597
-0.020080505424380064
0.02074765569004153
-0.0014982317534922415
0.007502163759017078
-0.02965398755270664
-0.0018669599005770878
-0.04451868766116478
-0.0432711958482746
0.03615369032298908
-0.037268797950558055
-0.019077314635574816
-0.003036669545007729
0.007450130890711063
0.015974395078705753
-0.013694850106980601
0.07222763309565955
0.03788502210090469
-0.014135270340759943
-0.008870690235706698
0.0016682293342149435
0.07295439069154136
0.024635019466375037
0.030005592253991662
0.030390659062444626
0.02978078065438715
-0.018558869378081454
-0.03089612919546593
-0.0072845461774214415
-0.0077669496489876765
-0.015265934146466445
0.019348556658888738
-0.01626790982686651
-0.008991224532620088
-0.00640754222463396
0.018057078519757484
0.07047110700119931
-0.0335829166228198
-0.02147901283110321
8.338033868015069e-05
-0.02607411749013049
-0.011863173115786519
-0.014465082443550941
0.009572321625060361
-0.011795550792915492
0.04399917020333088
0.015204952085696723
0.04177391714040971
-0.14365983879026123
-0.15350223001522245
-0.015683711344582876
-0.02853487639046164
-0.0172319459639514
0.005225959042422307
-0.011356713443754914
-0.018982665763796088
0.023704539793945694
-0.004473817819065572
0.0031920725959326606
0.019611491447818423
-0.0022625526156826773
-0.006566109544724753
0.0005653465357789367
0.011966140076370094
0.009644866273580032
0.05808432518443192
0.03519026950990825
0.018061560261530753
0.02641168551346661
-0.01199856384173597
-0.03356266656046054
0.033165962087215714
0.04416347850419325
5.2862461295080086e-05
-0.0005793928133916542
0.10663569248668531
0.04282785259697153
-0.00824644598163177
0.013840291382993933
-0.026722439709277325
-0.17148807801777005
-0.017488435593177976
0.02770224485483967
-0.03022118950417618
0.09456974934368535
-0.00015265644336427632
-0.04081779796740418
0.09381324109234372
-0.01872775764077386
0.021187869055804248
-0.019254166985225054
0.042663380994226924
0.0588648096703936
-0.0632181980150365
-0.13042397741865483
0.06430159760695225
0.015892846935619164
-0.02615768471069681
-0.03755443505285948
-0.004948419403937393
0.018454233889006248
0.02506447846296267
-0.003851986159825503
-0.0002706467359996074
0.006924349243371673
0.024578189114315557
0.01006041045763878
0.015475099955750256
0.023705139728361555
-0.02924142156933415
-0.01753335189708959
0.03254288857001241
0.001640299878654513
0.0284310232101854
-0.014050844758248157
-0.014038443129427411
0.018267344982097748
0.010666851910252302
-0.035877727428987094
0.04226817150592683
-0.115296182131488
-0.12327184588078867
0.05239044236560249
-0.0004102857462145736
-0.025594253925286907
-0.05171104906253527
-0.023629373890849896
-0.012449728111593639
0.02960247001760737
-0.00834953211612377
-0.00011108410082893302
0.057079109293720294
-0.007839875751246788
-0.021507463059303476
-0.005757374202398122
0.04089999918214614
-0.019134968732209958
-0.08613765444229396
0.04041756780617898
0.0189335463708866
0.03691568069888571
0.00391388477876509
0.054896154558302816
-0.006444689554194579
0.0010621033947747426
0.003752256702165484
-0.022787460665675618
0.004704428472021292
-0.013947578265359953
-0.015896216339511056
-0.04321955242855323
0.04276911380417213
0.1460850129084881
0.017417780271029745
0.008350251196624562
-0.12691064988243028
-0.024642783124244835
-0.03431293117091456
0.0037685283322679364
0.04541118011619231
0.006555749362323858
0.0034012430756637244
0.038736443015287746
0.007714207362005842
0.015842476310591217
0.001006221740517352
-0.013141153068704534
0.01931128339577737
0.021910398022821853
-0.009905360437117705
0.03385072009446603
0.010474354732560216
-0.009132419195704856
-0.027694230193403134
-0.03540411277211018
-0.009037878467504633
0.0105967344238173
0.009310879312349807
-0.004885460927581896
-0.032580817517080106
0.04440102431008724
0.01549812344307006
0.01420645020650013
-0.042743700920078696
-0.010500309387945168
0.011286120042989829
0.003924068560048448
-0.030268528886661237
0.0007088475366624682
-0.004559548504404248
0.0002816453236816415
-0.035707902184684316
-0.0351225923326157
-0.04161427483261504
-0.02407213949880548
0.07301405174410815
-0.00594836104316367
-0.022336447024502985
0.14174876497246708
0.008107633831097895
0.006389689021597579
-0.06477084640451765
-0.021083391455377066
-0.0014628228713404526
0.018080866017419744
-0.0012021346772857265
0.04716524497743588
0.06840551100849941
0.05944135327676442
0.023360966188967307
-0.012632321813840235
-0.08613364415245789
-0.03164250610505843
-0.022085328401538262
0.008442881933801853
0.02101553070701338
0.017655427477577153
0.004297932142095439
-0.008339093938929374
-0.07069645606232951
-0.1786991632250189
0.05432575729017367
0.015542104260552705
-0.0006679769678252327
0.002462825731098755
0.0009283035593744917
-0.023368267573905897
-0.0228841182946226
0.017271945552215503
0.02800505952714194
0.0010754456299488064
0.21751627594581258
0.05114051095661056
-0.008065640146538208
0.0401710638235578
-0.0706854271186163
-0.014328057273500174
-0.017775486977328055
0.08348205807884322
-0.07806247557576505
-0.00546649150144036
0.011053992418201616
-0.010125642917825303
0.0023053236655153587
-0.060047666213716856
-0.09004487875947291
-0.06372365845971827
0.0007368005155818494
0.014489156417957075
-0.0009194657966638959
0.002619008351830908
0.01705739138247339
0.0020447329559053727
0.011769717026127674
0.0671348004970938
0.012976426418983417
0.004547570504632357
-0.020116223131094218
-0.028822016970024057
-0.04948524028293674
0.018981486566704963
0.02911745107436651
0.008214912437551332
-0.00019170367481891423
-0.04044684720645374
0.01564846005014542
-0.022873126159882587
-0.012724042113675211
-0.016143157036556107
-0.026177806868082885
-0.03226311296993299
0.0016880163663821261
0.015457379089002184
0.07059225630291546
0.08547368814471447
0.025571904447962722
-0.015592440214138468
0.0038110792263003233
0.024789705841401805
-0.013086072895327995
-0.018959102634608403
0.019554992652626564
0.01437062408729356
0.014793209491050147
0.020425551329866756
-0.06666994776446669
0.008532786972903944
0.03708778312675705
-0.01110111255739522
0.01395334802549624
-0.013641165790284277
0.01761637590303607
-0.02341491127114954
-0.07109991939612506
0.04888265904611221
0.0011346272732195718
-0.02542581472024586
-0.0135100317881668
-0.016822622913490463
-0.012469864179476063
0.00861332143805198
-0.024097943475061803
-0.02320135511507089
-0.08794677525794443
-0.07065875239192954
0.04360382252600599
0.07830080679534485
-0.01539421829040172
-0.009425387652162585
0.01584598312546316
-0.011317879964407031
0.050778166088448706
0.01601619933427585
-0.019598033362610432
0.04237746510306362
-0.056306511333856765
0.07548389256767299
0.141313227515514
-0.025832195124985493
-0.02951418000507978
0.07081340177965521
0.010502233003255894
-0.013481036082127456
-0.06531762676740405
0.04343944404840949
0.05533171296948178
0.044664945254436955
0.04388118077072602
-0.03500404863237661
-0.003934628373878002
-0.04841753981102191
-0.014512804806398879
0.015313118842289109
0.018399526136915548
-0.03394293927991276
-0.027113904895210407
-0.03083423988458014
0.026857186542179026
-0.1317654601748111
-0.12713440804463108
0.009257540206758622
-0.003326178176994032
0.02114857161272266
0.04617945015565934
0.0022143620572874787
-0.019289517364052634
-0.010471213596268304
0.029874621826317133
-0.006987987157589206
-0.017478131256971074
0.030368285368042917
-0.009300311295511166
-0.003528669362432132
-0.017408297653088826
-0.018922177845237177
-0.0032044268230121764
0.004403593986332831
-0.009319736602680699
-0.009125281552931488
0.035684311670618196
0.015030829648690616
-0.011184898576648884
0.026939663238129533
-0.020818086632439215
-0.027778485659583577
0.004757058677103004
0.05803021001504119
-0.002688141111812792
0.01102949837949718
-0.010735307206463634
-0.004604747251492246
0.019732195789412828
-0.0018771069440920878
0.0028283423698830233
-0.008512641179334266
0.029318564929527866
0.03261472238125968
0.06448986768601953
-0.002837443120127682
0.03503260585263242
0.006988268852386559
-0.04155778144509175
0.015833635880690478
0.0039794731274467796
0.004787817543853773
-0.01353245250079286
-0.0029649779975605287
-0.04006143651728393
-0.00642105730740433
0.016440999741433135
-0.0032212775886211725
-0.0013081006921895771
0.027296977672225282
0.009209822236209579
-0.026960843792849784
-0.005674922307287429
0.0036300722975224162
0.016025743854190335
0.03645683292723517
0.005659178574103812
-0.02581448381009528
-0.03836487587429716
0.006384888534496752
-0.009692597158587923
-0.024053481829365193
-0.021866995490779813
-0.002423982026861233
0.019838806682330415
0.02594149777860809
-0.00147281105360195
0.006978579122974886
-0.041536033442946756
-0.06143349851690838
-0.007440271689271756
0.009755243012188781
0.03068150129389181
-0.08695805103380108
-0.05879785154379335
-0.0017071735411906277
0.01974774042682108
0.007451422040754826
0.01257978319254909
-0.029798604038230328
0.01068126396886258
0.023601587093696547
0.013057218252750656
-0.00567820436546439
-0.012803245175264297
-0.010678265344974845
-0.013388175727429112
-0.017824360557292192
-0.022626917762001965
0.002079170407877171
0.005860036472904703
0.006913187619271679
-0.025462847070386055
-0.018962810059309696
-0.03658594348346499
0.04023649275853217
0.010853946178528976
0.2829552400506557
0.2051324729354125
-0.020230585182116404
-0.001159175230452169
-0.032641579314493456
-0.06726781473332832
-0.012208375767162211
0.0192103148761333
-0.015608456477398622
-0.03612458475659399
0.002729259767582114
-0.03626434691033426
-0.06849036291204834
-0.047968999133542696
-0.08674868002534232
0.014004076417164078
-0.002157380317614833
0.006870650466670732
-0.02625404932523219
0.04773894632337021
0.0646162457569295
0.008553848815166607
0.010407418122529745
-0.06086978658000951
-0.013684388419657871
-0.022399080192293103
0.033594397300233836
0.024912214260221447
0.0008744626330192324
0.010831104770097494
0.022043853866176973
0.16108246723765285
0.06447148454790133
-0.038115499055886216
0.017937444322309308
-0.03201326234584137
0.023165178001115106
-0.09794383734401482
-0.14087964702568795
0.03637174043122671
-0.01835129254521528
-0.025816462658438927
0.0039006970893796186
-0.01572710699451407
0.001157074141325858
0.019560458501802613
-0.03032977699516566
-0.002376270010691284
0.002302755554656128
-0.019718203351539194
-0.011088003270642369
0.021940962004375234
0.01295401808181776
-0.003616659526423688
0.03598500501168934
0.1247750563665526
-0.0372400099931228
0.002421099840526888
0.054746672321754807
-0.1152434275737842
-0.01363377222984396
-0.009373215759739957
-0.007634973730626288
0.005965491566503699
0.0036512554133961827
0.03122849077434952
0.03143219800941978
0.03821283569854742
-0.05139104493450087
-0.004819566366531386
-0.01393720922732984
0.01870537867861788
-0.06158289314661165
-0.007023646672114879
0.003838294755552917
-0.009272063055763545
0.031264900118018114
0.024724209481994698
-0.00695611126076647
-0.01647135731369207
-0.04964629786652373
0.01673362949203314
-0.005590503197942741
0.031089699328673896
-0.0073478043042543425
-0.018053036048798394
-0.024221890775197808
0.04578552130694602
-0.021067598651592908
-0.08370609455825008
-0.014107240235885677
-0.011059980671478058
-0.0065760182499911895
0.05747700244150339
0.136846594320201
0.0114407604168786
0.028756910390897367
0.02300382803666261
-0.015856945774011012
-0.001607845536113332
-0.010371038833679357
-0.018561216391340715
0.007312412925117639
0.0006862682287428999
0.0035401882339543304
0.048608404704845655
-0.0008249368654442216
0.04899355300687982
-0.02562568285646336
0.013088446538740887
0.013785983289317289
-0.06198886524666487
-0.003614909318212481
-0.020893065315136763
-0.05148866005965293
-0.027603397607136877
0.005916745169513193
-0.004734960842784698
-0.023627308231487596
-0.014555574022176604
-0.040629650547870315
0.021025069824796117
-0.02021932317153446
-0.035597413362789654
-0.001932479875648482
-0.028169124793469065
-0.011392052821029595
0.04009304237713183
-0.014209849612338092
0.05979381020393716
0.01949559644927862
-0.01552871424814227
0.011235298047384039
-0.001803299104579623
0.04074906044524813
0.0068319273614704835
0.015039390779879725
-0.01890987107176754
-0.001523216575332739
0.02094676352746696
-0.021291918124696305
0.0016217047279876576
-0.02883112067964113
-0.028424481459414355
0.0011536719333909832
-0.013339254075074084
0.025729515599453467
0.053433947584859406
-0.017636553065443518
0.012952721984261952
-0.03581572773970448
0.038667846231720274
0.14814095513887487
-0.003351493144992418
-0.025860054422077085
0.03497593176414296
0.002062868338253502
-0.012813083346002596
-0.012261543944179967
0.011714718101671186
-0.045083476756258734
-0.17609127312358946
0.0017505947121733679
0.006991006416592041
-0.00562050404787229
0.024521731574287827
0.0021116625544108044
0.012707319101773971
-0.01690413080066934
0.025889420522508616
-0.01719186345124381
0.01871651656770464
-0.002618982461869734
-0.021899683706618683
0.07890280227556809
0.03838438942780384
0.023357050939373847
-0.005934308583271277
0.00277629311633381
0.031031909740991705
0.04281083701335722
0.008534782529317492
-0.029992498668301643
-0.03699096292942311
-0.02354591774231131
0.003413998346154778
-0.014854816361029699
0.015250118772312181
-0.01130180053052892
0.047853531600577065
-0.0706855792003648
-0.10868416784491333
0.006289735169523807
-0.0036161140697073906
-0.009255083334666504
0.028901658204068873
0.04502745414328682
-0.014438838663602608
-0.019074114677679357
-0.003532534067238273
0.047846778156302415
0.011582938715419664
-0.00018567658937135528
0.02706336422348192
-0.024637825935080872
-0.03646612849753395
-0.05620752830738299
0.04430626453144378
-0.011244552812544668
-0.09259291024089021
0.05425086947353147
0.006608799437509286
-0.050541508345221524
0.027688541532036048
-0.0223546565183952
0.011561428458561708
-0.02843469377718941
0.0050545013026605905
-0.006085050241597303
-0.02186378059141455
0.015841710348129374
0.03722676091028582
0.021397150106799975
0.04035348834503113
0.017770377067517492
-0.0007411354148404832
0.043110528673859526
0.019019718241966386
0.008021332759830186
0.04479630372181621
0.010449674070086009
-0.01592635933022725
0.03810443303389507
-0.012527457810298669
-0.04483191876126802
-0.04412088361024492
0.0166253504054233
-0.021414652786282778
-0.009242168498912177
0.047285276096030456
-0.015472516575396944
-0.029760232669864543
-0.054118506186543444
0.011260741815458991
-0.005591906544749555
-0.019461623030539176
-0.03203167325952807
-0.040279529902955385
0.017746529146348715
0.0169423666575548
0.03569576578077841
0.022441980882271093
-0.025383635934802133
0.023972902463861318
-0.023559169520898652
-0.011188740565875543
0.010556909908180243
0.0419000867202882
0.008564959041288237
-0.012739007480086304
0.007753580648456088
0.03719874213559471
0.015915203265582396
-0.007872802767417707
-0.04122289170331979
-0.01182729434749082
0.07607833191061165
0.03926526044463277
0.01655786479063848
-0.020370540933430614
0.004244830035342445
-0.020773097432317093
-0.048703784555716625
-0.04339848551924419
-0.03910494415657071
0.005358886169957842
-0.0032914645074947862
0.00370519361635799
0.0028911573213132933
-0.021726403052344145
-0.01625822650032939
-0.006706193457578497
0.026404199851988223
0.013938813909832563
0.0006517677376804502
-0.013266922633605297
0.001980970561611213
0.04648408278800535
0.0037386736279332077
0.013200793978610797
0.049393404707478474
0.04222794716714014
0.0008032814480257261
0.042217684967500925
-0.03454067637534111
-0.045499284217443856
0.019389273260137146
0.015081004498613559
-0.0195168983807377
-0.017310034070980886
-0.01905473648148486
0.05057134559563525
-0.016869894506822834
-0.019357785651012798
0.023795971042573222
0.002789232528773279
0.06307380792903992
-0.021864012487357976
-0.11400980112977183
0.05362206208925046
-0.007388978867169407
0.01374520781161832
-0.009044216564789364
-0.036312061970696835
-0.02127029841343382
-0.013107163809514526
-0.007367173214309066
0.03633772258979816
-0.005732634473206235
0.008606768124187146
0.057078177600205095
0.03649914204166463
0.00043205818801148694
-0.040455657912248984
-0.012023491712297727
0.043231460809273384
-0.005450834840464272
-0.00862632267037348
0.0071798316291156825
0.009195934715246677
0.00037893837808150626
0.01732019930057559
-0.036570300475035164
0.0014050124289618382
-0.05424498152830876
-0.16025226649510624
-0.04002588307490513
0.007367202858760845
-0.0213280937108327
0.022916180516152775
-0.016420234297083783
-0.016764317903031747
-0.0024709647765136533
-0.007894853044202687
-0.022556679192781957
0.07061977867050928
-0.013777702588668958
0.0911887948751894
0.11141258565206594
-0.059876902237801476
0.014589838101371785
0.10760708963225944
-0.017443986360796873
-0.007591607144316612
-0.05637339706517583
-0.03846068929213577
0.014066616015137536
-0.04581374145084465
0.013981147273233569
0.02928491349247418
-0.03578790941424905
-0.03617659038990563
-0.023902555509308636
-0.043945708288513706
-0.018408546719130732
-0.017174338743592015
-0.06949127499440363
0.1307892389741814
0.10665106783811117
-0.036141339503413764
0.02845353820708726
-0.03348612950393491
0.05069916275618379
0.07456987194533812
-0.04539867437711756
-0.006512072925603147
-0.026046676220614812
-0.04828761167293019
-0.017988329314268893
0.13067534868623656
0.0508069707419654
0.005862838765616981
0.022113593533803523
-0.07766551820473065
0.015831842916811258
0.004494477017149193
-0.03211871479846468
0.016130262664682867
0.04045485284954272
0.00010600649679025807
0.023211653779697253
-0.02392226614221658
0.015046436053652234
-0.053021830980279044
0.07797134616383018
-0.010173907466694533
-0.01139324806772895
-0.010968065348181736
-0.042327424927740685
-0.002595587256541258
-0.005672027467912446
-0.038309006044373047
0.02420756438648082
0.041745305050063346
0.018559662379131137
-0.1553411931000489
-0.0050470000143629755
-0.005552824620573374
-0.017969439299556435
-0.024720854071072874
-0.04874892827957545
0.008424847254671288
-0.023752846003564344
-0.10205593460506476
0.0034786045011926973
-0.023015656368871824
0.04275326497471002
0.023665698017596503
0.011584694646699475
0.11241120425965775
-0.03117712398644793
0.029843341850586794
0.11166996884220763
0.04281456469841655
-0.044889291300942186
0.0175120190383826
0.045431232877299166
-0.010564750570410623
0.009031315040362736
0.025644168182606657
-0.027399290489513103
-0.03549196781507015
0.02578671146890161
0.0446162616052558
-0.012018125917799589
-0.04578418619748867
0.02720629296430777
0.02628018512462429
-0.012745323694744456
-0.003193687396190953
0.008928469177208182
0.011464602414654008
-0.03277296442656985
-0.02133780109729994
0.0059350189501409445
0.023537988370343786
-7.596052907426192e-05
-0.017618809253135657
-0.03893520058784213
-0.05244323064898724
0.00821773402495846
0.07005210883338785
0.08215642642994501
0.040785813867498306
-0.02322472438143917
-0.004343621871440578
-0.10704969601182918
-0.04737475469176733
0.036717305538739586
0.013796713180665983
0.01672591032049389
0.023368601014281842
0.01864031442339777
-0.0217342500515569
-0.006650363672110876
0.04993024682427736
0.0018640590236188635
0.007254511341177706
0.0029274351158725376
0.002179718405890203
-0.014550637409971203
-0.019230847962517728
-0.04733749365930789
-0.043422957834579126
-0.0053497522200032285
0.016885420934275922
-0.005956186333234625
-0.0016189604342783978
0.03786261339088404
-0.002840610764397953
0.00538420457559234
0.007657228969277047
-0.02713460358506899
0.011651547402179002
-0.03108329530065
0.01983279961898936
-0.040819705939902334
-0.09889485499880726
0.012395742632718655
-0.027965489884279562
0.005262628081800533
-0.03435516281789669
-0.015465484153688642
-0.004323721932416485
-0.004412445900299614
-0.026856378347109428
0.010957779814778851
0.011115707946727742
0.0395901994492151
-0.04255154601322063
0.12327056526573603
0.06147255870430984
-0.007390067583115812
-0.0057345769257174765
-0.023405467589199085
0.00788554424349702
0.036101784047378245
0.05757550746424594
0.031221340035678086
0.025170043039733907
0.004410072985665841
-0.041349869421617134
0.05682463484683397
-0.008075501233202617
-0.19446168911174688
-0.016914395002135936
0.02866462026596164
-0.018549287094532012
0.0005126354785307412
0.027123838967336483
0.02425375483241648
-0.027379771739204365
-0.025546594276055257
-0.013233351055249157
-0.026747880186699814
0.020042134613165098
-0.005892923382149907
0.023314063526123526
0.05453618899268693
0.03702421151339482
0.010134924069191817
0.08854063017249074
0.027311808326967512
-0.05609234066986915
-0.04471351412992237
0.005488551400524541
-0.007070666752324271
0.01141632939337604
-0.015939457399398938
-0.03055653472515371
-0.005762686891959249
0.021936325322012326
0.010079032156735742
-0.016640219581307437
-0.025178017504114813
-0.06056692931268677
-0.0037855610557381764
0.06521709448097682
0.005304927109629512
-0.04443947777277868
-0.008057682975554922
-0.0023084191244025797
-0.026038341029898764
0.0064448222209964
-0.03493995628338311
0.04556337978589666
0.02108588533155502
0.12186145071464256
0.08542963937700847
-0.02173719186918009
-0.1130600955333952
-0.058009643461663735
0.033577760847745185
-0.011844222428833297
0.017091994558165576
0.008641522630574067
0.015228936511301397
-0.023366274398567886
0.01627926023946939
-0.0060966793688939135
-0.004355492825272294
0.050246246781307465
0.008093279180318326
-0.04991861713117062
-0.003953594609107861
-0.03231972260136823
0.06238376747828555
0.04400256495177746
-0.004787790200627781
0.00025942368827536823
0.0025152682406581485
-0.0142447454055792
0.019489949269052027
0.028039584021559264
0.020439463275256666
-0.0064922824782837184
-0.018083119221770187
-0.10146939025165237
-0.03128839550856398
-0.012740604169420027
-0.042509168722702294
-0.02649387029895699
-0.023403741752839883
0.0017801885372525827
0.009859881711954703
0.013619162627474781
0.005139145595067465
0.01913939796746296
-0.0020778972784616413
0.008624044124685305
-0.003929660156156901
-0.014084104417498945
-0.03580501945371711
0.017759644054203844
0.052017469791926174
-0.05923587189431636
-0.01413363644184875
-0.005239305296532624
0.02325914477555856
0.026969456413169512
0.001828168319344601
0.012679822788734712
-0.0055175414860056645
-0.012584075461704949
0.05485600810377207
0.04454357213217699
0.012688342410638487
-0.019505217534701465
0.013800607929558138
0.019039071325052833
0.007933602502029196
-0.057455020588339366
-0.034263365612271536
0.05060620539475991
0.03269851598825652
0.026908398416162417
0.040087337298743364
-0.02092896854121241
-0.0029469359108523522
0.07633141466674401
0.011448979888160422
-0.02964386034387867
-0.056509223642823875
-0.006976187217247143
0.0895122635448831
0.005449552527255589
-0.015048382882308755
-0.04148082156020446
-0.001154417031183037
0.010142566050321902
0.007530979638982925
0.029375976003775523
-0.021392509728993942
0.006009758567814948
-0.04699759162372431
-0.1448047516159349
-0.00963737754838987
-0.012645357345756338
-0.00867603050076448
-0.037034027050281026
0.008133554371957476
-0.01242618781144456
-0.02320441992674195
0.0004264266960320291
0.022595505731711606
-0.004480466052688711
0.01973659855966384
-0.007075721314736311
-0.02045085914322871
-0.028151152121854345
-0.06537304309846854
0.0017773410184483052
0.06671981466673861
-0.011414715299467042
0.018471518727341877
0.0747073789073741
0.03836198712097256
0.04602986335641807
0.00811857321731889
-0.013750869289843457
-0.032245712189194
-0.041155263502116575
0.03981016861604601
0.028583379135307865
0.004810844297717853
-0.014253517025700171
-0.015927104410919886
-0.05953223176942396
-0.007915428168719815
