0
0.01771357836868013
-0.024619372420782475
-0.003638236426751406
0.04573514701968913
0.04697384869132808
0.020386019204142892
-0.008247334224200596
-0.03805482449474404
-0.03421627923639897
-0.005396127417438904
-0.01229144255392706
0.0004274307563057805
-0.021655759336435806
-0.0007441401121926665
0.0019076296980928245
-0.01109127716223837
-0.004610075837167863
0.06155474048210263
0.038440793774513225
0.007785040488706449
0.10477191849606926
-0.06706384267917126
-0.026695856713663632
-0.007430179527852756
-0.0077504515197002015
-0.0016523080006759711
0.015133883810120454
-0.011747444750024408
0.004197285827909064
-0.010452630068919975
-0.012975042690612167
-0.01172398726599762
-0.013053892912138751
-0.006798331051516636
0.007137984401677538
-0.012223106348736178
-0.028334501678896295
0.009553132706833264
0.04193013202687768
-0.016037609251658674
0.0480390149624002
0.044911029848069266
-0.045786681352372745
-0.012136446548015515
-0.008378342798934856
-0.0036822000293067585
-0.022272940073171467
-7.432353174163832e-05
-0.03573552629076619
-0.03794473947238695
0.01104454419597018
0.05514473974872765
0.005919930450222514
-0.030479382875587466
-0.0015969822015198538
0.02444463814944257
-0.005931280778246765
-0.056636263612235886
-0.008990026332014516
-0.022032454988679093
0.0169529554157767
-0.010911885921478041
0.005854807372195335
0.05632835761030729
0.027218849299758995
-0.015712749139169348
-0.015705474630388513
0.009367899802603764
-0.022452621242279314
-0.037106679339706836
0.07055768443902591
0.07370027127181643
0.022501576636816907
-0.016334610980920938
0.019567163178199027
0.005546033134543832
0.03786876344078835
0.018692192480255877
-0.020455071787239994
-0.009340921136659172
0.009821046774873504
0.05198611914204702
-0.018750036627871645
-0.06550156095887587
-0.04790369239151942
-0.05114623176763789
-0.048996705854337214
-0.012683578040961194
0.02585028071452202
0.012333127006926384
-0.03213512617630464
0.00807830992866497
-0.010440541536746189
0.0543974203166436
0.017425462429732905
-0.019514864737614494
-0.023955692579595442
0.04446013027288074
0.05836843689498864
-0.018734923025382183
-0.007112095617971531
0.01071770731996538
0.020488137914002884
-0.018675802728527188
-0.015717651629243285
-0.002696458018541246
-0.022596929465126016
-0.025550621685414908
-0.0024457180548551473
0.016527568143641994
0.015082077299630459
-0.016805925630850913
-0.026861293696262525
-0.09361207423849886
-0.000372134199430148
-0.006867111490235135
0.054283432185821615
0.025277542950287647
0.04069849392210255
0.04818566412792402
-0.03522782022014182
-0.03086816685741367
-0.013663955890108654
-0.02240086335154736
0.06740087366670192
0.050800216209451354
-0.008242151613493275
0.007311382260074813
-0.012496441752461786
-0.005167547875627798
0.025842524720408513
0.022488196058671632
-0.02429360184318004
-0.01015031778592802
-0.007575390317620454
-0.02491412315328321
0.01949249161695549
-0.007038047920218085
-0.037268550041817713
0.0005250466156249316
0.003733260304862343
0.00047412265986067196
-0.00020429323107016298
-0.005793285707576519
-0.04223417266991323
-0.016360757329800718
0.022330130679718892
0.02776282872453268
0.0007556353269481936
0.03202868673992523
0.00236872732659889
0.030809400759253557
0.04990956209667229
-0.04423393622747892
-0.007539187139146812
0.01331349842122339
0.013796229805328568
-0.03302309418220666
-0.02498147277007333
-0.0071861922055895
-0.024649483908264297
0.01255254944545347
0.016626111013270214
-0.0056203220038440515
-0.0017624839767361633
-0.015206633947668148
-0.019410226933211858
-0.0009111282733847176
0.020767209682877798
-0.010290004111763222
-0.03953408058401627
-0.018930226554664774
-0.008562734146887869
-0.039652977728563354
0.03388859701683604
0.05427653474816351
0.08482327756102427
0.04331369671199422
0.0044308685593897204
0.005852554770292152
0.0030877727841218637
0.008464174113561053
-0.0027032267481629547
0.02075205358167861
0.0026860200900587394
-0.05338369282221176
-0.018492118669921863
-0.01723297163050588
-0.02004525359209403
-0.0033805295240136187
-0.0037910875555248282
0.025255453818397684
-0.0222865083230109
0.016215417539150977
-0.004063743447057721
0.04176337605963412
0.04690647050297697
-0.04156431780760373
-0.04584493911120333
-0.04922001229776631
0.049634394108021604
-0.09151006381781139
-0.09398232155690968
0.04031473737748188
-0.008592108555220329
0.07395798402611935
0.0360588142102426
-0.011238076364650773
0.049414661948715424
-0.0016153495120928777
0.02803059873092487
0.0531672394390885
-0.020732318337660337
0.009481950232089689
-0.01522329076806541
0.05953933474745671
0.012468899017986968
0.07296295446218688
-0.04120959244404737
-0.051324872408169304
-0.005356301055286391
-0.009556206444967524
-0.007509696660610359
-0.041370867711007085
-0.13541814605374008
-0.04214565545017102
0.023859173371701837
-0.015235440105889671
0.0012322206082790636
-0.02914205560605193
0.006931164477492197
0.0020919800375003568
-0.025541303254486135
0.08017319774679078
0.06354848972363278
-0.015697577105786554
-0.011386409514937357
0.012562616861137252
0.006708647954182223
0.005799824024595833
-0.01309793876463424
-0.13240308127497885
-0.02722729559434544
-0.005767393752843572
-0.005886385806395961
-0.013790536162225692
0.009376625585481647
0.025408752676686654
0.15693945727057382
0.001835661121994052
0.05163469357292419
-0.019888109383385203
-0.025241804731884192
0.05473459780888618
0.031562869402239485
-0.002854777306257759
0.03678959179264472
-0.01890224177741555
-0.001457936205840146
0.028747722560033714
-0.0013221999337406937
-0.04998507992178172
-0.047560845010298725
-0.04899622533934542
0.00896527855107909
-0.011165118772759212
-0.0675190545451711
-0.02744268116561338
-0.019388524073999235
-0.014246682873100209
0.0422197547253223
-0.005123039047402632
0.11149174864574304
0.028969031342109538
0.026376278011879882
0.031925262747993254
-0.031114442485408678
0.02905005577036012
0.041064951377468156
-0.0045824130876157216
0.0028589980835360767
0.006881068483502591
-0.01812780699172593
0.012588090788773973
-0.05261751342959167
-0.03121074198338717
-0.020762526877429525
0.010185516866530568
0.03457797660368061
0.0464544141260327
-0.12742583203830685
-0.06606916955915959
-0.0009178745547875448
-0.022501100853489112
-0.012087500106095432
-0.07102464358865182
0.0126299960144595
0.04408342796648948
0.04262708680100791
0.05878565387040596
-0.014954059290250149
0.027707323921385772
-0.029277374961595874
-0.06777196327239815
-0.0024851372140566935
-0.02285184499864624
0.059623220187576875
0.1271670170879517
-0.04992095076928324
0.0026067728945183364
0.060230222143307845
0.002059629266624259
-0.042956275257147486
-0.0023630911693700175
-0.019036119410827317
-0.0755228673381482
-0.016028464930648672
0.014466306065560871
-0.02305414131944804
-0.02123616849286312
0.06789915349009339
-0.03035312823265591
0.11417524114267444
0.13077859864667318
0.0071923320178581655
0.0030526696998273437
-0.04855824145500654
0.01163697862294201
-0.03829402482858637
-0.017183665321356758
-0.010632809114548874
-0.008708900649833646
0.03418638180383053
-0.001332439570310137
0.021337899959908303
-0.005361904962108895
-0.007217375360109313
-0.004093975830752909
-0.00524790544217452
-0.022469397804019537
0.030078599441279583
-0.04904545878976729
-0.023293464179553216
-0.008348614431280725
-0.02889849904956535
0.03206363213092948
0.013576331014021446
0.0010749518863448454
-0.05151563283375149
0.03606008120135646
0.04973965390819976
0.013725606551953193
0.014317069600288964
-0.013218979380757747
-0.025207211897766774
0.020657678413845162
-0.029582239198195047
-0.01730089736666725
-0.035899196296166974
0.024637008253403044
0.055610518761319144
0.04197521790694251
0.023913656048435795
0.05961004793054523
-0.006162204841526671
-0.029400144711774986
-0.13785932740712029
-0.03167131894492285
-0.03372654050364518
0.03959706762986577
-0.018157897999810182
0.11715158082098208
0.14135692472484299
-0.015964931808588184
-0.03317768026915402
-0.006631141986337122
-0.018257284853429055
0.011266098136216303
-0.135225354820064
-0.16962084642717246
0.03474897741588487
-0.0028384948104271486
-0.02112539018018451
0.019690686439853708
-0.044394600021969224
-0.01886052345888267
0.0341780232782262
-0.03473459028088312
-0.0094112555326471
-0.012213810313532815
0.016496008239569263
0.013302492128773878
-0.01780889880144413
-0.006394799413306361
-0.015588701479979275
-0.007398668046777374
0.029525145812528776
-0.008160295378519047
-0.022916591411887687
-0.02161613953730765
0.020114411592836744
0.016688850534794183
0.07184644767773422
0.16624385337499484
-0.014718555908111467
-0.00642067289064851
0.0020211033244193575
0.035629465208772575
-0.012731233981764426
-0.008347746263009081
0.009105787688437712
-0.022620856089482937
-0.005190079229233095
-0.025863224769762026
-0.006155676202928852
0.007793470040075371
-0.04397981670207755
-0.018793759585056583
-0.03130259167450834
0.050894762105734945
0.09871874339819471
-0.006951499141020002
-0.01302329029563314
-0.0025755338172746174
0.001774607645720136
-0.004319947172033015
-0.0041322540806392125
-0.01932684731230489
-0.0066921408740741335
-0.01058005309301896
-0.04173401380848845
0.03369086345511038
0.032396665621913776
-0.010963630975630597
-0.03697596554733833
0.011971421824767943
-0.05397555277777026
-0.008654567262669426
5.123917690240955e-05
0.02170530105269118
0.027954082116578384
0.020014563329779658
-0.009131982836282582
0.041842966378693
0.09467073967721426
-0.0032166908841794015
-0.02350178846370337
0.055299766742734825
-0.025381182683860807
-0.03740845686771961
-0.055511745285973704
-0.04713736318016553
0.043890817230295164
6.126017185946421e-05
-0.018898128265289877
0.03733079312729096
0.06429998884421637
-0.03094932608283025
-0.012779734086799962
-0.015142570846427731
-0.003067483435948725
-0.023780683150714195
-0.010726028898231441
-0.029538529694629594
0.007125173196642058
-0.016233159030938853
-0.022983801784672107
0.010595798447913082
0.039118204747302675
0.0071694913029653
0.011426116694043021
-0.00444611667403428
0.005577172569502928
-0.024861274380726685
0.027964572938349423
-0.017258470874728683
-0.005843931043617653
0.0082790268601622
0.016579811073304508
0.04841539635911235
0.047529369756125345
-0.0020036944906057508
-0.0027543845291927707
0.03533914516423093
0.051945329441725065
0.07213520321050011
-0.026845374634719355
0.01682542791653347
-0.053645611349973386
-0.03368451855558806
0.04912910285784743
-0.011100831413989775
-0.005282208896147494
0.028168789949370828
-0.012982804855171736
-0.02273507733043989
-0.04118733652111281
-0.13904188237365758
-0.057823172936000374
0.02403820379000008
-0.0043297760500199765
0.024958763836970488
0.025619252206004698
-0.036301914655748765
0.00396967181028369
-0.024021809748434892
-0.010695565452843064
0.01092391007165584
0.004581723599547228
-0.025018565003668575
0.005294613230396212
0.006189051209833624
0.07412935837299706
-0.13776094582826706
-0.06955013816989446
0.011603097358084312
-0.04389475253364623
0.0059522730532283255
-0.007896101937342118
0.03137305986888241
0.013153516438360022
-0.003984442846674476
0.016996571026523907
0.023908741602455416
0.004592911625093275
0.023722143075414884
0.008405065168116744
-0.003065659920595139
-0.0041658670117059905
0.007037481299531903
-0.005207726369464345
0.008082619457456832
-0.002090989418673381
0.0210952769906157
-0.0555473967972776
-0.0609663040157662
-0.0246247518874336
-0.022234696791358814
-0.01811604992969698
0.008309951059743512
0.0031223374188203185
-0.0008472865458507662
0.0010364065546077975
0.16198332461112172
0.03271574818785341
-0.02685593242691601
-0.003947359815164248
-0.012246179261287899
-0.06877819027490677
0.08187046747970582
0.1647566205071382
-0.026805336346179737
-0.002244725752811418
-0.054150497728878144
-0.010816889360694667
0.04755190272284866
0.009820217798894257
0.10288370287379293
0.050985541294494924
-0.05297000520271521
-0.01979856882533621
-0.03264131622748606
-0.012269772767227348
-0.02244152159373783
-0.008000559784332438
0.008427888308613917
0.03855324716758105
0.006128337154742179
-0.03906707452883633
-0.006401247940575131
0.011619042090500636
-0.014743571840909712
0.024475595798249507
0.02018323058762942
-0.04619865784506743
0.0099817977834363
0.013845933424434905
-0.03205899944464253
-0.021087072369513838
-0.024359021998497273
-0.0030065175698145608
0.010478773305988181
0.04623988964682563
0.048171058026744804
-0.02673472958442705
-0.011976478564295347
-0.027292774255105862
0.015047641078116394
-0.0019184154866758213
0.02131267473271545
-0.02878508619364354
-0.003925748831807819
0.01715774253543209
-0.01578658189301584
-0.028250070564729078
0.00536729368914383
0.0024994461714831157
-0.015374387055026755
-0.006237173446681491
0.023594782882211028
0.06206093816923611
0.019944653322455524
0.015036448108894745
-0.0012159052075538426
-0.0073203623200397555
-0.025525569428182408
-0.05486976678505858
-0.000396733155563143
-0.021628943489862336
-0.01112923737878346
-0.023288604187429167
-0.01757197368355383
-0.011756871846440777
0.0070169325708696745
-0.0271058588928854
-0.0612735354747665
0.024735762398533603
0.024770233402343276
-0.011005008044830502
-0.06045804286770148
-0.07846750892949166
-0.027607904627961775
-0.002122028191245402
0.0041175162874129735
-0.02725393507172932
-0.0286738658842305
-0.00791833231956871
0.09861880506988493
0.09318511302402661
-0.04938530825972145
-0.005358057719338153
0.046302802739885185
0.0724618465175002
0.015340953358953545
0.001437850785278618
-0.04015735870994465
-0.022679482981725615
-0.0544398742479467
0.033235357770381974
-0.03399208081809673
0.13923492234170146
0.12762599971461633
-0.06195996734478284
-0.012014024735919435
0.026209422147565404
0.016301698039778226
-0.009495320316584725
-0.04656195808370634
-0.01656977779978906
0.003637109140165992
0.015803183989202312
0.03386412660889467
0.030688445331729645
0.01759056338311986
-0.013133487036416668
-0.01756009491790598
0.012857424582807826
-0.0215396009473866
-0.004649691571158215
-0.024905802558506728
0.09832868327812336
0.059143898217171226
-0.02524507754281725
0.005511299356855348
-0.0018052356775038385
0.009452854237213926
0.0038331377533632176
0.03346866766926863
-0.016737357833293276
-0.016638466721307046
0.018205074215127393
-0.0011061339207461584
-0.001676338464152283
0.019586337536387294
-0.012050866572867979
0.05602918580313656
0.06068660442077114
0.021289405877826816
-0.15544588134017637
-0.16979269841953779
0.027718530255966767
-0.04635368032633444
0.04886702110912131
0.011692541104007808
-0.1672759065937767
-0.03222919619102477
0.045548672712118765
0.004024560119248056
0.03309377017317302
-0.00937692981080566
0.022375013953083944
-0.05181354287895016
-0.042049125051697535
0.0470551891513341
0.002526404433741126
0.03569147679673062
-0.025449614258942193
-0.09961628503439131
0.026372606965801473
0.0010619251998932365
0.03809799318033477
0.047413276848001826
0.033776118185608585
0.01225981562792739
0.008164298407877635
0.0030413700803429027
0.009283210536779994
-0.004432980618671405
-0.02436251187706125
-0.04135463418807663
0.042243839976903834
-0.003828753875770903
0.012762612513472162
0.0032376625696251245
-0.011638395692255147
-0.01718950236862383
0.058475024823744656
-0.04492516403234122
-0.032702501730471435
0.02442955142165977
-0.014265854285318695
0.03387751090676082
0.0008838761302317107
0.0030364345434054033
-0.014628511025363701
0.005180586262448736
0.02071359754127102
0.023206357684053
-0.02315139435750724
-0.016130360662102734
-0.001148595686389706
-0.011501188449664895
0.022152129150792656
-0.011051322250652803
-0.04836305162618094
-0.00022227319297322615
-0.04760584765747856
-0.01300372750880133
0.019721928192555402
0.025317985632984534
-0.0047530702469801775
-0.009374788735526083
-0.019617304383729654
-0.0122220830137473
-0.009509388618356322
-0.04440610254276803
0.01841173647921941
0.028744006815376318
0.12791757175707877
0.0711849060924223
-0.06185598665758852
-0.014859273900954014
0.03360368700123678
0.06388693927608148
0.012781228650351115
-0.050251772534170874
-0.062027744847354564
0.01607609021031166
-0.05413271873695515
-0.01301127263099769
0.019791242508938364
0.025176952297086733
0.020084333267293274
0.005692892233618482
-0.01671386226488989
0.013683748034834306
0.011624916989417667
0.013280336462133235
-0.017483560881906255
-0.03416240496207396
-0.026661909089804158
0.0010244529190257118
0.008656860894095047
0.012451935505499424
0.007367614028867008
0.011694267635482297
0.007757091610654744
-0.010638701984636512
0.011036324852429256
-0.055809726805697214
-0.02298099716323555
0.14423077097596038
0.006633483751068527
-0.00829470532117139
0.0023279498334270684
0.06467650260796182
0.017047178166401288
-0.0015633798253455815
0.0015640853341711692
-0.06239869283373089
-0.03360326090374736
0.014187661562677648
-0.019331483700572017
0.049381552040314816
0.10477760707200627
-0.13310884672845993
-0.08953911504987376
0.0671264341490438
0.04187758202730009
-0.017663350159000793
-0.014066552000114566
8.629357113974319e-05
0.01760405052006294
0.03436150864567555
-0.013734054688789792
0.02524122945855349
-0.0022785667587344387
-0.11662709378177728
-0.0031677971880622784
0.02908394980535093
-0.033910709364455845
-0.005399044625254894
0.014728682970144218
0.022857570142908543
0.05137308303745517
8.822312374220057e-05
0.01219206054450724
0.016418318086312257
-0.054968452282236034
-0.21251802664363117
-0.030613060647221624
0.05603668953724677
0.05018370152173011
0.023716293575006927
-0.010245024264483989
-0.01970486377771937
0.012911586887377665
-0.005289054340443236
0.00190182011722081
0.014790502209842911
0.022599631921791926
0.020067662154692235
-0.018692403861087156
-0.008171295358097932
0.004876020684654121
-0.030465635179661728
0.043218365194643546
-0.04217468170206882
-0.07025962641817252
0.14138114085817635
0.033665967949828166
0.011022764650980019
0.02565244788691133
0.02713277059230764
0.03581332524181438
-0.016426026295350893
-0.00010982438805065157
-0.030860124499460233
0.0017917370738312682
0.014313302461466037
-0.0004436094813225988
0.0006684305954504065
0.0005098327315109689
0.01195520963249507
-0.006322861254860662
0.022262931730719235
0.04914145854463043
0.0009061034122364032
0.022079388734295307
-0.07947761441215041
-0.12095577929187006
0.031934112623033334
-0.03207536038735687
-0.001165288845968409
-0.049213891783483885
0.0055505707869563025
0.0651465742181053
0.0031657020109817553
0.0001566013560296255
-0.03691515417739204
-0.08757271935312053
0.007418168730135614
-0.0084539316084403
0.02605949124954333
0.030291669365991352
0.007415081767528991
0.0054414057375149595
-0.03205364772236166
-0.005946700623026698
0.024675362607587445
-0.0031862501076267958
-0.0007532698947747851
-0.04267419873754923
0.042103317927098004
-0.029753454005818795
0.04298198142286123
-0.0020691960225774635
-0.006884743723912487
-0.00606210158873693
0.004370258919393322
-0.016937557785042804
-0.027538833889695146
-0.011006097796902753
0.02646542588237001
-0.05132957772702131
-0.019498492991023287
0.05383626347698504
0.037697751882039235
0.010732586643949387
0.03182736375593688
0.01059109663276015
-0.004553184445631519
0.02182639383327709
0.013564195817722492
-0.01458919454221427
-0.0006950300515513658
-0.03052245803700383
-0.004751641470030456
0.06528013531854265
0.04782936852671715
-0.05943066849899563
0.01895055568734461
-0.01745947876172494
0.012650209423853294
-0.03289931219284463
0.019334855907704115
-0.029501744960364954
-0.025749667961034648
0.04237368241036674
0.0029969054072672583
0.07803417683584275
-0.012544753476787582
-0.03521416911804092
0.027627111256190197
-0.0035774899825422803
0.0032916293019997485
-0.02593816800007063
-0.000528069335573663
-0.010446880132813707
0.06509292907977988
-0.15793085715903069
-0.08650983518584848
0.02464368010601018
-0.016819325046899602
-0.015067499948415683
-0.03896634946495687
-0.004081591683390988
0.07331550221763389
0.019758399268860954
-0.02278751745291376
0.035613293806579335
0.019274278394488326
-0.021997625752226253
0.01268061906776052
0.08173237677607942
-0.014264603560839303
-0.010047165123104655
-0.0018085823431401996
0.15097088881496037
0.023904396653824173
0.00679298857842701
0.02105815155531548
-0.010183832060807963
-0.01782135380230872
-0.020903566827238543
-0.015863236834031198
0.021964646163748987
0.021870950127223263
-0.01569641941957071
0.04163225735728334
-0.002418491387680498
-0.03261818464654813
0.044479065190132984
0.0251923900025625
-0.032268555818594745
-0.007478963840190373
-0.04677052934724195
-0.029850202564584642
-0.02300120263580011
0.018431484228031276
-0.039151214332193825
-0.09015852126198787
-0.025773901806341357
-0.0442508368620153
-0.026372251944403183
-0.00542263911732648
0.03950778494662931
0.008420781473692546
0.021335958432995277
0.04095386510488376
0.0020647288835984744
0.003771904816762202
-0.008415100072012306
0.019862913569302903
0.0026201375799598603
0.004997249807962911
0.00037265395783094013
-0.017525805166228273
-0.017891379712075613
0.026514678041505948
-0.0017726358295978655
-0.013580564931548888
-0.009270602888480625
0.0021066111972462415
-0.01706794659128801
-0.01265540519243016
0.020416896650061734
-0.034355066073350995
0.002321682571824151
0.06277898505865415
0.011002921294997097
-0.025100750796215935
0.012166066407083318
0.014406035375728309
0.018334347349326704
-0.07348962892120126
-0.011863299063414736
-0.009628520819850165
0.03550182034780512
-0.0034404917901812537
-0.01884046831262699
-0.004296429950260314
-0.017977284233983325
-0.031893513447272134
-0.0005924601771820184
0.030218525849260845
-0.0022303565107383862
0.046726081070009334
0.001952674028835087
0.004648790546331136
0.015313599986436888
-0.008345267696962816
0.013248565701390184
0.02528966499237896
-0.0013356728929091641
-0.005298879210069391
0.011425707841314539
-0.02110238719008997
-0.018893458251556694
-0.008505410599392154
0.012545810251945956
-0.013098919467812583
0.014811698503370233
-0.016508734231141544
-0.014010909814680563
-0.011625456133043522
0.018076470234699174
0.07928812202600569
0.025513749897134418
-0.029688480935582576
-0.002264053722511298
-0.005963420553561613
0.011114284231272384
-0.0005318229453271343
-0.025732500534687074
-0.05831591806843151
0.06667727354997427
0.05997808805426957
-0.06049794868408921
-0.017280579733732884
-0.026027558967492537
0.009257790675038012
-0.02313405322458653
0.007930664312574718
-0.011185254458410338
-0.015697318714112164
0.044606652813169265
0.01995200262610767
-0.02513014178054666
0.023389275807975108
0.05871647177584317
-0.019690264791729743
-0.02135096405628365
0.0014109146511857272
-0.008914854804254722
-0.001032700014154535
0.00035062236435358987
0.024227713513625477
-0.008743349570287336
0.0017351809360451633
-0.018787637318000566
-0.03848901340947034
-0.054046951574335596
-0.028696908998188664
-0.02071619569255234
0.04317008220980917
-0.025519909649652565
-0.009777026244706206
0.02661974562120399
0.0009503061660122208
-0.008422757797180509
-0.004587392633187002
0.008415484303949729
-0.02252724024644098
0.013799869615217383
0.06541628722127564
0.15860520409481021
0.03361918614045091
0.04365664252636079
0.0442620510969341
0.025649957043084985
0.034383229979099664
-0.06180890348395223
0.02388070552429057
-0.031270896872883036
0.03455641059660718
-0.07171723035976742
-0.11466594444658498
-0.008761625131865403
-0.02150451023087711
-0.013883734138464105
0.009975541527344367
-0.10608788741296298
-0.028464670401094922
7.663646548248597e-05
0.020637151579822353
0.06634438495833903
-0.0027024424251017526
0.0032661410987221274
-0.0358964649954089
0.053340707980192116
0.06309419462753242
0.01078665995599144
0.017274690584961734
0.012189314629246417
0.02522673041241083
-0.03350462534087738
0.028585950051053317
0.010094686693826656
-0.04814364202657484
-0.15454392087890462
-0.05036624521436928
-0.0023117525681171118
-0.007176742295993884
-0.011575753403960443
0.003475751989208457
0.016867902670428807
-0.011967497672279096
0.013002547463803419
0.022553370615421266
0.003100641316088692
-0.014585808555482088
-0.02057536637083986
-0.002207118501577741
0.0058051740871270215
-0.03625421872366455
0.002946809663322402
0.02384903250846214
-0.018622630160777833
-0.0018189880341268315
-0.016924924989250044
0.034401514092649146
0.027447796013084193
0.024954195198014444
0.003213542750925408
0.009524058432993452
0.012422529427620033
0.10767147732679791
0.04570978448770036
-0.00032395690982303584
-0.04219603771648038
-0.003445419394106733
0.004991530838893067
0.009770441715441378
-0.015634782360111295
-0.04220422476022001
-0.015784468664925992
-0.0002727138382289584
0.0015397335522908816
-0.03699419924372089
-0.03021475087989982
0.002003659543002058
0.0013585342318621315
0.020931745240219447
-0.011234119248889491
0.004023728254283293
0.030720526810442125
-0.025381926811356804
-0.013463897946924921
-0.008302237273148674
-0.02121130559011626
-0.04170265464506216
-0.04913024614754465
0.11507368466413684
0.17800485071393346
-0.03674483333828514
0.007126414000816949
-0.01574769559092509
0.0019650810855281224
-0.06282231301368282
-0.0621397349218612
0.045954988808850156
0.1121266324615176
0.019061904143781783
-0.0016288435981383997
-0.008870129600286498
0.02138974354765749
-0.018754511324015594
0.009401732693184535
-0.003899563557220584
-0.018281132662459388
-0.003028411944862567
0.0252825711492503
-0.00943676275143713
0.017142150280289103
-0.015697120370269064
0.017246559497292435
-0.07120928830763977
-0.12099438661665553
-0.004262332604881248
-0.00461509489950379
-0.009433061456307503
-0.009451586628840093
-0.018080187388797936
0.04006959654497916
-0.03799061222252124
-0.03041545874051963
0.04095315617640764
0.02070037862326909
0.02425865180107762
-0.0012025645739540901
0.07004662713277102
0.012814542172047865
-0.007191351476030192
-0.005205288137857465
0.012793498714713091
0.022441780165143817
-0.017017016399981075
0.0245692750358867
-0.08569279131646323
-0.03912274453231143
0.05151197853384268
0.005702726601068631
-0.0035572594807543774
0.009745016018574032
-0.11898962180567513
-0.055637475226518865
0.056098445681102053
0.06920161389448434
0.02543084729546155
-0.03854489056647357
-0.03841765430964415
-0.04311727077868616
0.008006011944094595
0.02780228282189218
0.009931230504110324
-0.004134098310159072
0.012442625999735182
-0.007793901106305218
0.02903609371097899
0.0036289697092137625
0.004106328042236937
0.0851387797314996
0.0041583478758023375
0.021345735832665115
0.014874021583255561
-0.015831411817868127
0.0003846756240579233
0.036194874981618476
0.012863608651242024
-0.0360311098816018
-0.009375200259454833
-0.04561765872069912
-0.020863282138366367
-0.017429385402309025
0.00676357468435879
-0.0013820555950040108
0.035533237982230945
-0.014699655633767291
0.003910093347947361
-0.1502496144052302
-0.02327164935184809
0.031162992391961054
0.08860224462184088
0.008858398042885246
0.1441252106641304
0.07127090423385912
-0.039379685838718585
0.00859057582764212
0.021525475478404634
-0.002295578195308099
-0.03170468670747752
0.009364040446612652
0.017982052458494505
-0.04750703175726958
-0.06895523554912589
0.03743944610782557
-0.008227017562154684
0.021726695298419783
-0.027110872713306543
-0.11908963753584198
-0.013579264174007304
0.00330804922244717
-0.012751834993049346
-0.04665187218500701
0.05871619970390417
-0.010399078854933914
-0.014633863166913466
0.008508524503208116
-0.013963199949338345
0.03443265237030725
0.012940856346733542
-0.005161555406045635
0.007183482574539023
-0.02418518906062494
-0.008961573492171538
0.19892120617376566
0.024580402659870125
-0.03341274563179907
0.010185008403115096
0.03515502454637949
0.017893196529733712
-0.14595823949124728
-0.017190734521028764
0.01750450636114366
-0.028811096160450474
0.03953515559011454
0.042105579076164745
-0.02506677387218007
0.055209654936953116
0.04416793566193664
-0.0291045280314932
-0.05456362703512586
0.010984012539649321
0.03775587064137655
-0.06796016144734947
-0.05055220847712933
0.01958793884796921
0.0038644524756593144
0.007726211515895148
-0.05447863618396515
-0.10796043586004715
-0.02209874693326329
0.0049202956269916494
-0.004614935555882756
0.02381275260213607
-0.01506221505884105
-0.039447719196475765
-0.023727387868171166
-0.0016451501548842076
-0.0111695342146676
-0.0026632059270600963
0.04181120725146604
0.029658877240686093
-0.06960761812293094
-0.021084132370369026
0.015411666902855888
-0.02851918347760915
-0.01909213700290208
-0.028812491936927864
0.05396674394140781
0.14225927574869646
0.040056474415338286
0.09228926460659581
-0.036534013954419756
-0.030520436561515006
-0.023016163276093876
0.0977477304114686
0.07315359515547862
-0.04201657368059662
0.04555103197315721
0.009241067158503133
-0.03298376810064553
-0.018715088653373617
0.002653529883322491
0.01925909050041874
-0.07849446339210456
-0.021836409611004654
-0.0030988148707404416
0.00544836838091895
-0.02706906564058066
0.01326940886019925
-0.03121688632545642
0.03237095737639502
-0.04763644475001186
0.028775028036267882
0.12244752614456877
-0.007881575434830958
-0.013128310851132953
-0.02961974843202601
-0.0006193083269459127
0.034208409815541865
-0.03691749765620395
0.13287858463634944
0.08761831761252205
6.683216803847488e-06
-0.08163599610598424
-0.15506282935069152
0.06652902965896035
-0.012939905133263138
-0.0685762428932955
-0.0037539281723088444
0.0001251913281624688
-0.024261643188817867
-0.02131368161544871
0.005362193301198188
0.034706657226161106
-0.038234890280499687
-0.057771814586776896
-0.04279799846380767
0.06399850601477078
0.04152396557059701
0.05763936086523034
0.09851204936703753
-0.0065667481658492404
0.006791846874898734
-0.009667602392515675
-0.03461557911272222
-0.04169990141534304
-0.006348512861956521
-0.009830305992151539
0.00827001526577993
-0.0066512094175122626
-0.020218401232400107
0.048612808034367204
0.0128867106978559
0.01588926621110092
-0.02642063700954156
-0.022450067243418265
0.0025620119097944107
-0.026938975748796924
-0.002858118272896316
0.01479127375545196
-0.007103410701943764
-0.036577482806482355
-0.027170879403331002
-0.03141358293857975
-0.0022378373672940497
0.028026142717623402
-0.03250082885118916
0.012623674711408364
0.0980082018109078
0.026242433078213282
0.01296434898727102
-0.01770259023759649
0.03245633558527373
0.021559636149856922
-0.036567888960936525
-0.07873174773751625
0.0150544850338762
-0.02276737716821167
-0.011998065945025962
-0.01354215405481958
0.020847199691771366
-0.01936788066037454
-0.0017450516104704087
-0.03359482622185297
0.01479637354919919
0.0005038745380564929
0.004148456152487691
0.014539706891280422
0.01869358121221578
-0.032284725687094167
-0.005286513515418683
0.0008771316675775426
0.03567400215314273
0.019909049477833608
0.08886441580552569
-0.04950809221821331
0.06255036429102719
0.04869338652455001
-0.0937293139818419
0.026562808553786933
-0.03167999280073209
-0.021699686303136262
-0.023032777304511913
-0.023680354887451033
-0.0242347989564031
0.021643788164922528
-0.00616608054181462
-0.04924074520232297
0.012560926593929427
-0.018156074184572334
0.07602614282310813
0.16847594892104414
-0.021513558250101483
-0.009677933245073118
-0.021392550973419296
-0.006294576951753856
-0.028170166912230492
0.015370587308248957
0.030957424591713953
-0.007083071227306058
-0.006339141379484056
-0.019026255700011808
-0.012412899640601868
-0.030222398856220176
-0.02984094795390652
0.003982430587237729
0.01624287268989689
-0.0035868601680607054
-0.008147189578051247
-0.06175905886404665
0.0351297080735485
-0.018382673183182142
-0.017785616218722156
0.06504930838093588
-0.004212041874440079
0.01158535550113468
-0.029414958211692828
0.030083950855326943
0.05539861888131068
0.01107602183351328
-0.045120058710821705
-0.0694935391553977
-0.03506129728127411
0.017057902352497007
0.020555897210789584
0.03439998234746644
-0.07853224247122861
