0
0.018697965451319486
-0.004612120427092964
0.0028420047608256303
-0.11244725127385503
-0.03236005184989369
0.048756429760272765
0.0017809709937636083
0.06032184146096042
0.012092346767600091
3.1775580522995363e-05
0.0007418372411945711
0.019642185220625254
-0.0420994067871965
-0.13656527193813592
-0.011365726521288352
0.056067569353740056
0.02132716833111424
-0.02230292328669113
-0.016825972290317057
0.016698644817105725
-0.01479825018875717
-0.015086663413959516
0.0017297689243306576
0.016555291135330445
-0.018221611197232725
0.017402104695570485
0.0028351690414873958
0.050151893597242495
0.023635209074509816
0.012463782193700743
0.09341208532176687
0.027782898919964508
-0.01105420363852902
-0.017264422601669615
0.011877200225218097
0.03480897650958114
-0.01969773995317534
-0.009235255052569936
-0.024729803317855348
-0.01329020650487895
0.057222498778436284
0.05998983591776306
0.09874402509500496
-0.024447037821947164
-0.032181317758570735
-0.04651608463402127
-0.028365492374790077
0.0012701132917682762
0.0002800772973342941
-0.04019866194815399
0.02603533320950443
-0.00941423133702367
0.019387467401143908
-0.0012500198864209644
-0.012015249306120173
0.052201033569336634
-0.04689700844748538
-0.06886207846490439
0.0061121136795320484
-0.007785784024278075
-0.008300254605102489
-0.0313952561290764
-0.0309007988878033
-0.001974567050061941
0.01601873922137832
-0.03763173663224197
-0.03550690431058079
0.001174812885430404
0.017239323311661125
-0.005932091413023063
-0.040471840629922394
0.00219615290186407
0.027360624130656812
0.059784563888492376
0.07010852278343367
0.029163867648848627
0.07802612227526354
0.016571865772342598
-0.016069382727900247
0.007813252165148154
-0.008693098721071527
0.03714349140757782
0.009194167883799115
0.04253228671484914
0.05944364017315721
-0.07789740098368549
-0.13243897238783742
0.010150616093473428
0.0074819290228715285
0.057568328883808806
-0.0157526811245297
-0.025939487636511143
-0.0200423741969248
0.007716098744323791
-0.0678462326603187
-0.09766388407969667
0.021621201339876807
-0.03945673751727068
0.009541350631546696
-0.003055909385579621
0.009578844366321287
0.008363161327876067
-0.01045177868970922
0.01148257208734719
0.0288865790463447
-0.06634459412595924
-0.03725021361672465
-0.022392781699527516
0.023400695630716804
0.041750147582499966
0.011252933088919954
0.014843068609279779
-0.011705978621654442
0.004613823116668265
-0.026317593339419104
0.004083631316874472
0.0069756154032661844
-0.007359295431668279
0.022348661807699656
-0.020527138772687397
-0.009416097087765415
-0.001005169849933082
0.006050007951104965
-0.010864429457148762
0.00929256052328426
-0.009045961205493662
0.07352604153130339
0.01853521239569392
-0.02166255387368543
0.005974920665441795
0.029056783677288697
0.008408252340091996
-0.03264304119736526
0.002077688726392569
-0.019108809875915348
0.012659316684381803
0.019426663080518193
0.034369276750944124
-0.013945336154458064
-0.0284028358080386
-0.03301715846789761
-0.0012546401162215944
0.030207994600861723
-0.015474360061878913
-0.0026010197187977552
0.01556307542429843
-0.018563224760856097
-0.06394590259739619
0.07973547920195984
0.11023314930008905
-0.006991175563391066
0.0022585851519084993
-0.044436797733597495
-0.013207299058396387
0.0001216358681234498
0.009224733575026865
-0.04995680658430175
0.016222199546595484
0.025796967354041012
0.19362405052094267
0.09129482253063682
-0.04829485943763828
0.03476410880713086
-0.019564938779835287
-0.06970147501116297
-0.010252532076268117
-0.020582682648325072
-0.03633198132169298
-0.06925737677444722
-0.07019818789563499
-0.00231256130076139
0.020363726189487837
-0.024696303050584966
-0.0023555479447994613
0.029345996217151588
0.022185760263581412
0.019173385381919386
-0.04416717152870174
-0.07117487567142552
0.04131107466015252
0.0358472526207255
-0.009683660374469986
-0.027879010506407884
-0.003747199652005045
-0.008220223628053821
-0.006495740690018946
-0.027092259899742843
0.00489715992252361
0.0553491996778723
-0.018154866665289846
-0.03835843922528317
0.006471081801042944
0.003257339235259414
-0.04500626953708626
-0.0038207386138743456
0.012081852638589324
0.027914516797578323
0.042156836550907004
0.04454886433560325
0.018486607405461732
0.010746877865950303
-0.00598193521774078
0.01665298632467488
-0.006448074274405854
-0.028023350429603164
-0.02956116496481356
0.013136713575491985
0.014154370981590364
0.029610383539356903
-0.03624436902514674
-0.033693295144034546
0.020036578607058656
0.010779101350546117
0.008848359220918053
0.024455001410251965
0.016985442713111514
0.02028683118334748
-0.008491747649439281
0.024681334086471166
0.004444037800593442
-0.040226944844809105
0.02150343795950541
-0.0020187214520533347
0.0007494649371997464
0.0010522763798506314
-0.018571932449626776
0.011349628420670443
-0.02367920130129368
-0.005997312241333962
-0.00894933648833225
0.005292010911797534
0.025032871813816818
0.0034739441868828044
0.0009224896041308944
0.01962499501215498
-0.006752414798788866
-0.006419954353852542
0.02903218958458033
-0.009188954495193608
-0.037753832376006435
-0.04239299742666114
-0.054285084070437875
0.0063857089257239276
0.023263278352498164
-0.008882471215609708
-0.0045906464167393595
-0.09765889730057759
-0.016886940685629896
0.007832893685757642
-0.007138285222976055
0.0025930142163923006
0.0006950856508692748
0.0325753553124153
0.016683633916469157
-0.00252640570076882
-0.0012790634684272416
0.009398330811587016
-0.04232843594232322
0.07400926725365457
0.06427558869715229
0.022861558671656936
-0.0022301374702795563
-0.1302243692834848
-0.004391367722997861
0.03259137155846066
-0.03525255686544527
-0.000990752970139831
-0.013977400154098294
-0.022812275595604756
-0.023308647750289787
-0.032734629734243084
-0.030707949672154868
0.02147947074527551
0.017618693383046603
0.009292965913624393
0.0008259446575230684
0.11597875681571908
0.12323770848569376
-0.04663399927967868
-0.012465093835717185
0.010284574931870533
-0.01865063695357867
-0.009055543801635835
-0.00013738987288399848
-0.017131963316983596
-0.01581160236776475
0.045075343952506564
0.06919969933695254
-0.02737367008069575
0.008537600554451174
0.0039152741631707354
-0.002800147182024162
-0.031205822413964673
0.08929370320897498
0.0007990304849514462
0.02636358395190108
-0.010480563333429721
-0.013061193884463718
0.0036128034555704294
0.00045919561142392004
-0.05171315549318492
-0.030204070779253755
-0.01230770854436769
-0.010415490181318977
-0.00024382303625689232
0.01036047076929282
-0.0069628944116207885
0.029895483963466318
0.017495787134329466
-0.0031518169658603518
-0.06539552820639145
-0.038152958969575525
0.042786680852963915
-0.008420001394280622
-0.04017862048253803
-0.001881947943480497
0.04685687384609548
0.030025309357234187
-0.027503958717153873
-0.0022109367277447847
-0.008603041416556564
0.002513900444382896
-0.0016117327022874917
0.007519610022728018
0.017257223629517707
0.015824066713654352
0.026729515694934185
-0.009867388168871886
0.024178702800137807
0.04333911289479299
-0.027123350512089073
-0.030878606345065087
-0.008188696172534737
0.06401900659352566
0.007889685684267091
-0.030910045678601335
-0.049950620181147695
0.002408850932297081
-0.03139447392929432
0.001288788463650494
-0.021103007561368882
0.012815800357759713
0.02939699375743269
-0.010964709564030707
-0.013633248922323727
0.001105602071235629
-0.06063574674273567
-0.028147005811204655
0.009871086114602372
0.009911591203019716
-0.0015595403644138902
-0.01959389532511876
-0.019072754622475346
-0.007607758119260064
0.015865402544369113
-0.06144013838427291
-0.012322243021040728
0.028575987738418167
-0.0008962426199675892
0.04875724586756369
0.13522999509024866
-0.011206161121927164
-0.005763629705757075
-0.02916430486949934
0.0006383741508777409
-0.007394634537559244
0.010999419162762248
0.02794283720911904
0.005807362083093265
0.017519486445484327
-0.004262321582897361
0.0075258943863683566
0.0019116308815114553
0.006506371608979076
-0.002448551307775611
0.04251490201853696
-0.06142733157921034
-0.16470710202713604
-0.0025809856898494667
-0.014504682831577286
0.0208725327088038
-0.0018610778141637057
0.011619148146554585
0.0005572033653168846
0.030083549180904147
0.08807018872827349
0.010069940307228444
-0.015640546409987462
-0.009044881434971643
-0.015094499256621
0.023553956253559025
0.026985063689275682
-0.0487307328854008
0.028420164595873213
0.05037211256414523
-0.02214243356550811
-0.00259942492881216
0.005653275787558703
0.07087123843328243
-0.007330598135101015
0.02568602221147765
-0.1064925447567366
-0.05266437428421436
0.05121547584424361
0.001630225333292439
0.03503497738647149
-0.01955272797394401
-0.0005273494824680708
-0.01385420623947355
0.01851310251269914
0.016942347666876106
-0.021784644761925258
-0.008086405750155254
0.01910673440964894
-0.0036358351586061794
0.025654322166550433
-0.12974336840766426
-0.10101232934700263
0.00804033955152633
0.04040311590746822
0.07922071705388992
0.010627626695260812
-0.030885407351344533
-0.0944411132787916
-0.0188285269803606
0.009418639489807909
0.023994109486678027
0.018920220862316227
0.04452200505771503
0.050844960011481574
0.007136639102993122
-0.017385964987859014
0.0009414032956019429
-0.05194710255144718
0.012305437581050276
-0.0012889467332944822
-0.012806739603949591
0.04570168707750135
-0.016298615120236153
0.01042320649275729
0.018614141895278158
0.028482599079410576
0.00017770178688274454
0.005634712392660538
-0.025327394457940727
-0.020786572281618197
-0.0038421061847469175
0.008862469105912686
0.011724088633750587
-0.0019018354361593985
-0.0033295618633541906
0.05615288790956621
0.00012806399265772144
-0.058820152113065724
0.008443241346972472
0.05297089943395696
-0.07203344418463323
-0.019938769394432895
0.014228841456023166
0.02995346888654225
0.04672526179366791
-0.04089176815941699
0.029805226677819718
-0.013133291967587883
0.029446374247328558
0.06583638297330544
0.03407075842311122
-0.021061934018853774
0.020126351056330472
0.011369050992023922
0.05694981021103092
-0.08868852554657576
-0.060898366458396566
0.04193967994350611
-0.0027820399458729724
-0.013893454460299727
0.010995746548077815
-0.019629838291984225
-0.0029098838513439557
0.08513190934825456
-0.0025642792587284454
0.016955146688183247
-0.10423497136769523
-0.031893326763396304
0.03535584694671383
0.022543379812790084
-0.01363807263086475
0.015546744320090632
-7.734214525803724e-05
-0.10994150100761427
-0.013629118782410035
-0.004728197005424092
-0.006004281407669027
0.03974713492194035
-0.0010370052251787653
0.009845228007122616
0.016924116140404923
-0.0028399769172187807
0.021076401508999528
0.051317213839820526
0.04527293268352896
0.06821614135539303
0.005266351927273646
0.05501073735470695
-0.16408734907677877
-0.052311786920990214
-0.13137566331252432
-0.1734596865872181
0.09542373326066231
0.008403040853372852
0.0406890596684018
-0.029624110618038782
0.03439734898477609
-0.04572959165392054
-0.2231896475404216
-0.01952831458965726
0.06617385819852899
0.050723316954272506
-0.012253731542650964
0.011395576655015753
0.02119756531555365
0.027267227313049248
0.021894459823837482
0.021375771626250987
0.033105299123426635
-0.003025747954121935
0.02891464844606452
0.0006217953511833057
-0.052830267990386766
0.018146386382118396
-0.01972852955827884
-0.016297673603494673
0.04508634471463689
0.032144584627156705
-0.016932956939725446
0.013491912793874442
0.0380594933501668
-0.02371659450879923
-0.007981914800534227
0.1439063936707696
0.12876615053091262
-0.02836203552545119
-0.028696303283835753
0.021397682916775317
0.13467389780303146
-0.00831633097056455
-0.06130313819749078
-0.006765592514465272
0.017767163553033455
-0.04326587965924381
0.010940873647829839
0.007468224167897539
-0.02961459086876544
-0.01987834768166893
-0.04781179292632243
-0.027921337866168964
-0.0091408739477668
-0.03096447386852109
0.003239050668186357
-0.004594191290474156
-0.005621082164993813
-0.018126410568267387
-0.012086479752061797
0.012537737177088304
-0.03721377455971785
-0.009852382311236306
-0.06316769987412267
0.009233773842029834
0.038706976684204114
0.05261520887488182
0.03626759424806941
-0.005345445737158741
-0.00036463351634285004
0.015336178742617052
-0.009747027795447602
-0.023341225055224808
0.0025187181194574345
-0.045571369017765415
0.11563219724749027
0.05778776628274154
-0.024265313225985154
-0.012668307119352025
-0.0264592059962076
-0.013603179272182167
-0.025676594685032965
-0.028851583444320067
-0.002526742891745008
0.029406586393594704
0.001233861008386118
-0.018608601760486017
-0.04814139548682331
-0.015970788673396068
0.007133105602987726
0.010488696481184745
-0.030039399860501748
-0.0028677184755285983
-0.03842528783082456
-0.003718590112955489
0.0434720514790723
0.03204935529667742
0.02749150606922658
-0.019891654748752475
-0.015100958512787126
-0.01908131349922788
-0.004849088953595479
0.03136186835098968
0.045026947717021024
0.004882491866845098
0.10022193570311151
0.10528472424873847
-0.07941917034164227
-0.10554152510411283
-0.011683038786693115
0.007120678457919999
0.06026150179958845
-0.018040455173354734
-0.0178978531119385
0.029805998425689418
0.013674213062313662
-0.0022676232635864013
0.012277946910848958
0.024092912995705144
-0.002031142336946734
0.03385545693113593
0.012969738233559793
-0.0010114522350828613
-0.010155393131981433
0.0006691431174704458
-0.01636043594804001
-0.008425017489533686
0.021959141289443436
0.021513234831678923
-0.012705822067602965
-0.04333583895142843
-0.1596955692177741
-0.0002447008900009987
0.021427837619828707
-0.04965045262692071
0.014193285868969117
0.0034953534569170976
-0.016101230167616623
-0.01385814187556184
0.001147479667138439
0.014078957713315578
-0.005092192180056614
-1.782886514144789e-05
-0.007043247626153753
0.042822050671818934
0.018758589158120568
-0.045970940272899656
-0.01454935952202388
-0.0306498389228426
-0.029950575398301565
-0.020632966434681613
0.013917336177962616
0.041348247769888415
0.004672399978885699
-0.009872913536054916
0.02627006054066836
-0.020995203699582896
-0.017122332230563368
0.028933316155730124
-0.006151787223182194
0.03072543482746156
-0.01964294608505478
0.003765737202278609
0.10480766140532849
-0.0513587068533657
-0.052553776852772155
0.004658646742996544
-0.003308601025199498
0.0056947561422328935
0.0022420462520841822
-0.021857193905751176
-0.0020167539522500787
0.012863255640327158
0.0009268256643819034
-0.044499723280384484
-0.002095314785097556
0.16042796446400717
-0.014445894377899051
-0.031795054259365026
0.040876624609103046
-0.01384621418923836
0.014159620976504165
0.028715436569148607
-0.010078498901448053
-0.02096833128569819
0.03232771178981333
-0.02931414590263431
-0.021539587731817737
-0.038701067930371424
0.020375082550551107
0.036182252788856166
-0.0444538876557127
-0.01158476333642017
-0.03482398729180761
-0.024770695212925305
0.008930291349966833
0.008223839487271761
-0.001263890664873993
-0.008137223612770118
0.047899728710590374
0.017583812568614205
0.12844971731931773
0.054524232525958796
-0.03722520844802271
0.020757408265200304
-0.019823537645839436
-0.02140257536500044
-0.04944547028082769
0.025276581732709098
0.043051268093143344
-0.005876963687821047
-0.028122121750882623
0.001122657514002873
0.0025826290692896278
0.0022794717643875202
-0.019295623996637017
0.026063915884004942
0.0077805186831329575
-0.09224796505538135
-0.03152141694214837
0.004946486221139883
-0.015232253475054941
-0.0014660429397507688
-0.042734450202102404
0.06834430268983019
0.06831571306008666
-0.005959791370404737
-0.0009461533178218577
0.025353753552177952
0.0005968551089289735
-0.01057689123507753
-0.02952201512978163
-0.002699369881888918
0.011112623239807592
0.03192908953776592
-0.024044877869504364
-0.025448322157932617
-0.0067960270460886716
-0.029982515915925382
-0.012007014333543582
-0.010370060214528548
0.016704434400696286
0.01712284047174901
-0.024032503385612733
-0.01704374325518878
-0.0019736877521568533
0.006478454762181628
-0.027318675191566753
-0.010368050800507345
0.01419628822582913
0.055163596350741376
-0.03405899497382469
-0.011498432230945392
-0.013318736044897942
0.02322736843741467
0.004200808641692479
0.006249805717934863
-0.025669989824542223
-0.007587449986632109
-0.013000207606143514
-0.006514464956282095
-0.007277255686386152
0.05858793625810907
0.025634628341496116
-0.015249371425316238
-0.0128221592830512
-0.0005254837040394897
0.003921232457515177
0.0010542210120600807
-0.005168113381425207
-0.007987763130940436
-0.0404257481376628
-0.007852225104541526
0.04267430873041087
-0.03054615269714223
0.003954042693401416
0.00101440767720013
0.024496461240107174
-0.06454934100899785
-0.018055241923591932
0.03461851545241585
0.006317143451243878
0.003371596382282918
-0.008918429911317107
-0.017208714821149326
-0.025532900542192292
0.06386826360557513
0.03053597504501699
-0.022735417304534728
-0.07217777403110341
0.08217521538102501
-0.012766704385503123
0.006632889030427244
0.01886418298770644
0.005420522528623259
0.04595400898182409
0.012339667720169357
0.004470517150879929
0.06368857788171474
-0.00349723023806028
-0.05870852740898944
-0.04540089561042415
0.059048318955614514
0.014160139936677708
-0.013835080008513056
0.0071719342776063915
-0.020698174106714914
-0.011846020158050568
0.03563978930098754
-0.0408637946349962
-0.005772875410281635
0.049698451214943956
0.042569308145626594
-0.03241998621131601
0.0014067556506718614
-0.0046359002792264025
-0.03507291732747219
0.008591483444070984
0.022012617185065038
0.06480375763234007
-0.008759387670694249
-0.02206753613412313
-0.020444214735507886
0.011037671928929278
0.005131965200917997
0.03510128125345465
-0.009508687961824722
0.00031053066399749533
0.00785319977273241
-0.05508197973604875
-0.12340645916845112
-0.0023970007330052167
-0.02396722413624025
-0.01510090665738794
0.02818927376883855
0.012939620083210339
0.02186223067743692
-0.016581339534227885
0.03334462853400724
0.007730324825598363
-0.03837463105066984
-0.013303114260245014
0.015117271528444654
-0.023697138124900874
-0.007103221697377341
0.010871264266458592
-0.010033859429022324
-0.015354517017345757
-0.004562540385369494
-0.01589026949086232
0.016638457551049413
0.020129325147979677
-0.020972473748256806
0.0006436519810853837
0.023858948763567908
0.002956005182097664
-0.016591468830473303
0.01123710927117935
-0.005655720313452829
0.0009984305389075625
-0.023101573676855384
-0.11388335882361142
-0.030867082440341198
0.00987430187835939
-0.05716061291953145
0.09740447853624605
0.17337923987051254
-0.013612876500535307
0.019495099589844574
0.0036570179718540975
-0.01652579273792816
0.024740018951743475
0.04509697458891151
-0.008591731736892
0.03700547960886523
0.012844099750953353
0.0009437881787386013
0.045272897301763336
-0.02752760229032447
-0.04550720083281575
0.007956391612302783
0.003393627581887222
0.001585853650321078
-0.006181950145406221
-0.030643795653180022
0.008420035545477173
-0.008725381418880945
-0.014085383543387243
-0.006783293788211434
-0.03176108183693426
0.026253157050271748
-0.03202994957481974
0.017332862189045437
0.005385547129993999
0.01908009299241063
-0.0038440273599593794
0.047990472337656936
0.04395201158296425
-0.006700147454216416
0.018080656642272958
-0.003419756704420358
-0.005118450705352182
-0.0040652157579596756
0.014003643058005446
-0.011945177649378844
0.024055510541265958
0.03250363985273702
0.031178476878047683
-0.046983170758926024
0.04899528428760338
-0.06668739906895771
-0.04611403966104071
0.00854504142322864
-0.0010333285107285474
-0.025603253921848316
0.0003041619622719595
-0.028365523824030528
-0.06875912015037167
-0.010127459819312104
0.0183576857756754
-0.004195452117379631
-0.014051973304874437
-0.0059832938479076276
-0.042525087350021085
-0.00033591728290952364
-0.013428762530367313
0.008832443986792834
0.006528772103753469
-0.028908967869444555
-0.020589836257313632
0.04383269593896196
0.01815092062592339
-0.019598993496216115
0.02624750635535017
0.017117717546394778
-0.005304847333719618
-0.04809111150381353
0.0035996537595587236
0.0030957586988893736
0.007766735903995438
-0.004499359703818314
0.00370918480795124
-0.026723543777605246
-0.01650773799711456
-0.002586072602156723
-0.0024556213483236324
-0.020087028563801464
-0.0017607485971875214
-0.003999751923425863
0.02543221339333203
0.09963003824430203
-0.022476083970052237
0.02184760791180849
0.04105277870022446
-0.02286020377725073
0.008516002143762462
-0.02343474943525649
-0.02062200020208341
0.025124436615335925
0.02082152688970886
0.0281135611785602
0.027435354507477982
0.06676109824511477
0.021049574221775395
-0.07520429247761014
-0.012904310065866322
0.002628034289995329
-0.043094113682646235
-0.0031552050593309073
-0.028194945174299976
0.004634909773329239
0.01044492637967671
0.014127826459671198
0.014018064390548094
-0.05609683525369173
0.05451829938342573
0.018533302278620715
-0.08662369738133648
0.02038158738265679
0.00756816792633975
0.0030156290737556077
0.02822108838536813
0.051474624883328934
-0.03844488808102506
-0.0010130218238497662
-0.014915549188997948
-0.03318905461713656
-0.019635902587528686
0.05453469546453211
0.01909562800833662
0.0019145102719239956
0.031158058375024635
-0.023037401671123513
0.012296133112613093
-0.022580899885488042
-0.0663095149041428
0.026863338669698873
-0.007004646365838604
0.027217123686359045
0.015267697982255803
-0.024571769502096226
0.02440951738545086
0.051050063558738666
-0.0577318464172651
-0.02205289015847329
0.03196767917473571
-0.0012913276132935731
0.01374867588084216
0.02334206120721371
0.05679368617373409
-0.011305036830004556
0.04330849214389298
-0.01899932543809306
-0.006982707151197589
-0.003219948310821278
0.01861881096744009
-0.008739308123030693
0.0021299248005737723
-0.03305412688912476
-0.01315569708797782
0.01033278981994273
-0.030086362701874304
-0.0940166127819342
-0.08549161954582868
0.13506220391131846
0.0207025485075582
-0.00758415809883546
0.009414066797170398
-0.014087422697312703
0.007622850824080886
-0.029566153348767707
-0.021611058380940153
0.04208502477016566
0.013380234854153189
-0.002745586576434247
0.0020099199764348906
-0.022854000729379712
-0.0060585661238487425
0.02508840364098588
-0.035364655819661264
-0.08315975219903117
0.04355192946514652
0.004033067154262256
-0.007262415784066555
0.0006587598964145518
-0.032774945941843776
-0.17992685794137392
0.07039883830501104
0.07555584081404546
0.03052024935905115
0.0074689529233085885
-0.08537158446157594
0.03799505284342246
0.033958135977899824
-0.06733343015488866
-0.0013837533259761
0.005220467440673467
0.0608551024390787
-0.03525799086827179
-0.10923747890349443
0.00103693544691258
0.07732544629904231
0.08878300946209125
-0.020061688781078765
-0.02169487951783868
0.00017117368482385758
0.014545958766169667
0.01593795211267046
-0.027522117931232767
-0.0007004654406006144
0.028177100733455935
-0.006433480930761587
0.07077831862380979
0.020966943093678362
-0.0022212526927737133
0.03337605522457616
-0.0018253242484473089
0.0034348432826276152
0.004644543593585757
-0.01709450471785071
-0.033471435072550335
-0.04197985697399751
0.013273041472308865
-0.001639997185812963
-0.013882081646766272
-0.0030762028090989633
0.0431528786375293
0.003883100483783132
0.021112430027512202
0.10804811525111163
0.009095010880696669
0.017042110370190645
0.027915962052588332
-0.014297284330268351
-0.048746619068487644
-0.04410246343743029
-0.0073845475178431095
0.02352822932801071
-0.000782027605568343
0.06460137509240403
0.03230100548109021
-0.004656925079443548
-0.027161501119023303
-0.021597654630767654
-0.11149656146350319
-0.049565838785176786
0.016420869911424
0.01590032322805364
0.14254874314723268
-0.003789375956744369
0.005060498386698848
-0.027937408720611207
-0.12326650491076409
0.021021051723541413
-0.0566147399870571
-0.006265486337897734
-0.015350332371937267
-0.04665032342132273
0.02324285902367308
-0.00957722191993229
0.006775608720058952
-0.058807694800758356
0.006712064938894451
0.05449559937715624
0.0020805931873567572
0.04909912346907229
0.02697593655861006
0.0007898615283279451
0.019995401068706533
-0.016444562911858144
-0.02904472736053267
-0.003180204702953112
0.012465925048464783
0.011002971448877442
0.01776171319414091
-0.005190708569304862
0.02485107384228609
-0.01588410315731329
0.003622177141776915
0.026712300710904923
0.049667037067869374
-0.10589668840670755
-0.04530755181907255
0.023723644803967953
-0.007685539268955526
0.009322380336647519
-0.02335806009204417
-0.0038986847099067015
0.03095973293122314
0.026355094655676415
0.0007935356770269054
0.0005153047249110488
-0.03158602714604865
0.02943607312087762
-0.0008301524575193681
-0.02450511107421183
0.047177289251504544
0.05366323193192176
0.04397689764055694
-0.00714578216738042
0.029572931622787332
-0.022500735344927643
-0.13535051124633488
0.029817009941957982
0.049504978280203706
-0.025042276095925967
0.010829841160515285
-0.021323612991429194
-0.01293641041476629
0.002041654718752449
-0.008189493073874675
-0.042699963586872516
-0.05025792663153159
-0.010637728966556995
-0.02316574243115859
0.00805513689729751
0.020484617220817906
0.0053579619293013265
-0.006709869876273631
0.024493164225734162
0.008435890916210382
-0.015011483255840626
0.022589458853496253
0.13734582187759176
-0.0032334984233749983
0.02482758077803912
0.011837596802023703
-0.007405389043580997
-0.03777928176916128
-0.008790902023475237
0.010206683180966158
-0.03275369460847342
0.012122134063421008
-0.08098515269863325
-0.0198993276466206
0.012070377074275124
-0.02895016244341381
0.016248494541932255
0.005669900802555027
-0.024843219851810986
0.012309771852368442
0.0698892905129357
0.004886041860194643
-0.003514677919500391
0.028718041749737685
-0.01940293069941611
0.00568131334187329
0.00936833325529566
0.037945036825359324
-0.01834230813381635
-0.004331135958752257
0.05209085606885642
0.008172143950788578
-0.036699313661387595
-0.053551198014774704
-0.0179096204742736
-0.08892339568440852
-0.018005332466827683
-0.011437614242252751
0.003991090126500034
0.05863677637899341
0.0009211769297546482
0.039965350051112535
-0.06308459163144009
-0.02025858903641608
0.0015124685057278334
-0.031077360694258174
0.020252558847530928
0.0022720638118510147
-0.0036486608454702
-0.0009586845760773148
0.06082877536489314
0.012997737464882109
0.034331346338934955
-0.11697526547741527
-0.05841472348563564
0.0077195133533788
-0.030163478637474733
0.011915086731670896
0.02693478895871099
-0.012479362775780357
0.013662665860965413
-0.0161017155154507
-0.00786689899013951
-0.018026139175011956
0.10070819097339583
0.1808153202055814
-0.03374509167382235
-0.026006664170934113
-0.016898967220511877
-0.0021033362734024104
0.0271056603691649
0.008417598288080624
0.018026381155544717
0.03773893407459571
0.03309463449045968
0.020203774889822203
0.007897105157640662
0.0011234791742124105
-0.005497002094095091
0.05546442371981074
-0.0009180217167812259
0.006320862532461107
0.014085167549715
-0.07875168740268249
-0.03062567592167165
-0.04247422196327976
0.01158286352686443
0.0035510302967703116
-0.03734677032072756
0.016468207737188677
0.030966803981706096
0.040782640308163705
0.04806736542173008
0.0043149943693149605
0.017142674513118936
-0.014271768140344506
0.0030154435199460463
-0.15214973288936415
-0.11628176705181113
-0.01724510213379226
-0.004365981356056796
-0.0046088123639658335
0.0342453910258335
-0.028818083008615807
-0.029549809620545025
-0.01864514895821546
0.008604795083523934
0.004026516934925407
0.04637658039053693
-0.020646849629044634
0.0033771974096838
-0.02085835879426622
0.09010644469014399
-0.011087883313201591
0.0385365362799984
0.10609119509020418
-0.030151862653176913
0.009550411403568994
0.02524707825378849
-0.0028291698499254025
-0.004721933608923158
-0.08813836767906542
-0.06407834076496435
0.018151709310719598
-0.007782291217101299
-0.012441492558840129
0.006194041080374627
0.0103352463456996
-0.029735462338620264
-0.05090811845549033
0.0011632643825639237
0.011292903587876537
-0.00602677427371897
0.024470449736351867
0.0018126922345307393
0.10977055637502904
0.01969033826410748
0.00880369372577174
0.05107057833137012
0.003785251329512264
-0.1368735206686556
-0.014980491360183779
-0.03019238696163296
-0.036772653189980214
0.017453974525291377
0.05265552926834624
0.004991971996971698
-0.0013369686587373785
-0.06618805716408165
-0.011722534536594964
-0.012363875305967477
-0.004277296734294193
-0.08874396343038064
-0.016082623601057014
0.132551124242546
0.002047025187311928
0.01724620911333035
-0.00011749175514955921
-0.0033056189061041316
-0.02218907060719918
0.00988345994871876
0.014200972701802522
0.21150008351783312
0.052961665018601355
-0.0503934578735385
0.014605569831386772
-0.02445859254344876
-0.019783456245436322
-0.013107103873827387
-0.03741761270548688
0.013064511958300046
0.014151125846935857
-0.018906578687271188
0.014874412089101778
0.027488108538448793
0.012989740769873777
-0.008020199186752928
0.05188971283393389
0.0531197550224563
-0.020736717551111738
-0.006883897523077459
0.010336383035867595
-0.0898088638146413
-0.08346862933302832
0.01459707818497115
0.02994190790906784
-0.21409620590078138
-0.0062245595122633855
0.02184661388912391
0.017935973445052163
0.012780839935633179
-0.03488741325706106
0.05956455072144227
-0.0010743878976485312
-0.024130143454366693
0.020554911992017012
-0.009795431535694473
-0.003867875927526091
0.01715614377275688
-0.012735477517133472
-0.006019281382889242
0.030369302445898548
-0.002579090767343402
0.003395205066231359
-0.00022621778967678053
-0.0010938232937858297
0.019793305051047795
0.03295013746185143
0.012293419936741351
-0.017954938946263897
-0.03130479426214078
-0.034661120711081427
0.13427874879116083
0.07378052693623635
-0.019060189653317426
0.02301760595952509
0.011022991682272472
-0.02069601541015072
-0.03835133161973134
0.019242899811647996
-0.011145375332363839
0.005940020468113986
-0.024109297801358443
0.005138616753498947
-0.026795906253665323
-0.19408772084708634
-0.004716524365353656
0.05620632058133572
-0.011594325596428373
0.003432899654564458
-0.02143756527038633
-0.008282939989972064
-0.03207201384488788
-0.0028819835325707465
0.057266784888212734
-0.033794213967307835
0.057449909795279475
-0.02200865326141733
0.07311754346101255
0.08048332210025501
-0.025993591156158458
-0.014996638303755165
-0.06259336846192773
0.004516209071781279
0.024407145512268965
0.022383116124997767
-0.013596334710493152
-0.012082199540558248
0.010126103506756272
0.038209920868067786
0.00992623905568141
0.014790631928640725
-0.011174601206112035
0.0034019993383922345
-0.008524613124829647
-0.012131206457407123
0.0071240845224579815
-0.033145239257617864
-0.0004457224873401237
0.026235980134155627
-0.014255823826431252
0.012539030162453245
0.014964551529376669
-0.02366567214910966
-0.02231878451822552
-0.0021647120818672353
0.02748301100880757
0.036232351430984626
-0.008512447507637582
-0.018851190485553844
-0.014328284200257677
-0.03687639363155283
-0.01753543319272574
0.007525111671860537
0.011556939820827433
-0.0030689561966926824
-0.04321587942432753
0.005207388174596005
0.12324602737023327
0.09034519373926433
-0.029606427642645972
0.0016293528765462175
0.04159775462828484
0.022899386282953817
-0.028810158256026907
0.018098952005043932
0.07729709320122925
-0.006971138603695399
-0.00870865881878308
-0.006954505545229095
-0.045095816839323594
-0.0881750243818641
-0.0072887065261339635
0.007491839944470074
0.03216938309706665
0.01313553760454742
-0.0006215518801996771
-0.019299059083714414
-0.017627043858396155
-0.04771372410118282
-0.02114427391237319
0.0012763375577742942
-0.028620253452422504
-0.024646938559645754
-0.009345857744740074
0.0008901867605205812
0.005016182013672983
-0.008052321290060456
-0.027766288546567874
0.0053146817702282405
-0.008548918848384273
0.014251677316542815
-0.017231501523629573
0.027739800823469045
-0.03354945479725949
-0.028021261639880942
