0
-0.010895915880967265
-0.001439041292074905
0.005104937627379275
-0.017416266748426636
0.007472698909336877
0.05999344136981962
0.04654417860707774
-0.09611208187059034
-0.07976514132685911
0.009583496338285515
0.02963885346952337
0.0156893154577531
-0.03157901562225383
-0.004686414237989079
0.01875937380323923
0.07027649748375796
0.045892063670677885
0.056382658662345
0.006563054129421335
-0.004311749656769253
-0.014915164291379205
0.015708640992119115
0.05673154841464143
-0.036016029847369624
-0.028886314415866005
-0.008971524257538313
-0.027841729558720735
0.012880399453260789
0.005673442499506341
-0.004652004470499251
-0.032264337843604385
0.04757290356200736
-0.021802178542580732
-0.04783885151539747
-0.015054915153410616
0.015768759823983864
-0.07213574988060227
-0.16353835901311886
0.011016743575327267
0.028676687689794284
0.026768856480201865
-0.0003753459770472276
-0.001959207849549714
0.05127181210748754
-0.011549784525894896
0.14965293196356413
0.05290131736665081
-0.0243352899808724
0.03113333776333408
0.038211200623034625
-0.03400141914117187
-0.03711416864386166
0.03196922836474691
-0.025131645625924976
0.030607623251480996
-0.015604337922389659
-0.051114812752577295
0.028670337163765738
0.06653838161189207
0.03540752972646239
0.013096509226381023
-0.024011843219726943
-0.025491169844130565
-0.032000466323106165
-0.006958210476741645
0.04403879229427099
-0.05743295577182052
-0.010756332948394044
-0.0036751049145062635
0.11139165812268696
0.02083240813452785
-0.030153652530074376
0.003907259241594711
0.05502316562136012
-0.03791107834942214
-0.06712112396145889
0.020929716039557882
-0.03737687636978278
-0.015440589283033258
0.03694446435292073
-0.035998918972333815
-0.02462225662520727
0.022394948465658437
0.005108988929236605
0.016084681541368568
-0.022540758375540454
-0.012284482288545744
-0.02440210308989527
-0.0060217514745506346
-0.006354435254920436
-0.022162736953569396
-0.052715139063858885
0.012792520355194046
-0.01743975899926916
-0.019951535498724228
-0.05362074868831951
0.03838472994499198
0.03308565058797975
0.00021252302056614273
0.04041146551872194
-0.06641475065229215
-0.0628818204346863
0.008122399992157126
-0.03203739090644138
0.039598975166674884
0.001536737201281782
-0.020462022442669734
-0.017285994554205385
0.016908922911599046
0.06886779375868994
0.10276011741676302
0.033397699108103286
-0.050593775423917506
-0.013194851134073577
-0.015347698379240418
0.00035399157249038225
-0.002148171783939345
0.02660386768230265
0.011157137003344617
-0.02303707235999826
-0.024663246890474028
0.012908861262973031
-0.011010914428620008
-0.007226508554470496
0.0009172062552100918
0.01447307603053763
-0.03711935612261326
-0.0022309298465552022
0.05186609074530217
0.11870086927661243
0.04415753807783556
-0.0302571301632384
-0.006950187927953011
0.012081464693230695
0.028765957550514837
-0.0032412546698412383
-0.009283946214545076
0.018142758549886243
0.01751051109547795
-0.025797350768300323
0.016187297436104607
0.1697381997817569
-0.03221469850007218
-0.19834009688607304
-0.04354556600881709
0.10713693166333066
0.030179784185046177
-0.008458253889677301
-0.04408614016809904
-0.03987018003400826
0.009847872208428053
-0.003196744312318867
-0.0031299891666959514
-0.029874377534765136
-0.011681747286429598
0.007266825153740362
-0.014417022074517855
-0.004989453179784034
-0.025645490190520145
-0.014384202632049132
-0.004054688457134001
0.012904214353832091
-0.037111757795679046
-0.025432793787148217
-0.008087927198709252
0.011301551156064182
0.043928435404144726
-0.04492622195103443
-0.006643806283074956
-0.0014830824878088753
-0.01967193604665164
-0.0023179301554069613
-0.005608135261048082
0.005482619319435477
-0.02891600217165445
0.03263739690765409
0.024167690573219915
-0.012717807625555607
0.00601681378980517
-0.006124566859610617
-0.021926124964289008
-0.01324819060618102
-0.05008859632693401
0.10816466758266234
0.14667190975475503
-0.03929613205338049
0.02360480203341665
-0.02467176319886842
0.011937012835836707
-0.00798893281428342
0.004859717606004275
-0.07584152624298973
-0.03902519271082856
0.006663946333434424
0.025442459295868237
-0.021407047460269887
-0.07775279688667411
-0.034249403340253184
-0.0069293048387116295
-0.025666561117552198
0.012990477219703773
0.028080333730985448
0.024456229344287945
0.022209830527601455
-0.03337261898531675
0.0005402194080120204
-0.026281152452595925
0.13644613140890713
0.22766626489417102
-0.00806037202649106
0.0019065119694285954
-0.0184155706567795
-0.023554008719379564
-0.023908023495533427
0.025871511523878222
-0.004161950701158807
0.042270962279253685
0.10893433572185668
-0.018434770737479993
-0.13179188057785565
-0.0560609833129258
-0.04235358173478581
0.03811137535973034
0.031936334239981976
-0.04553201183875687
-0.020308099472280756
-0.0005818856435442424
-0.026154851841214546
-0.029642186664772363
0.002355113059051997
0.010893168765452432
-0.022297888153095993
-0.02399318079252147
0.007637288914587333
-0.033639051014656474
-0.026157834614952948
0.002147229065179687
-0.002642828716022783
0.02086340138427372
-0.030246020766472634
-0.07404552667934594
0.04492641177725664
0.005866571924714333
-0.006314241989872613
-0.013434220711679268
-0.0016334629801357905
-0.015600265695984293
0.005075577436401673
0.018920475285172607
0.027130462306635836
0.005811804404645607
-0.00492207646794265
0.09079283165157319
0.03348379110105871
-0.02302973450725221
0.020433828826118088
0.016617916623863405
-0.03594523688420661
-0.00416165126661173
0.013548629616457553
-0.020752314165404954
0.03988102132454481
0.04648498416983399
-0.045684932676989295
-0.01966265417499068
-0.01508584006359022
0.0449217741382771
0.01491168492257812
0.00012341805350925798
0.024369845224954084
-0.02576572564461086
0.026325951509304633
0.04459358732687919
-0.009253762989499188
-5.932966459342728e-05
-0.00047755513722629115
-0.021110626848277025
-0.03131207088463348
-0.01197696338298463
-0.002998531844264093
0.06762862001950025
0.010089949428624507
-0.006802169415993382
-0.05192514864728948
0.058129478068796356
-0.004658169744186682
-0.07668713130818108
-0.032899624355483166
0.02848238955923291
-0.1108001458243699
-0.07705663910822488
0.15996193825668356
-0.05592608540353591
0.005712577220715198
0.0010806494999437523
-0.00943361478101489
-0.0044732580617006
-0.007686541743593219
-0.02406760325826552
-0.016641267060116205
0.023135146067877133
0.023285085529662804
-0.014625990475898522
-0.021247638855367408
0.0004596408471722055
0.0408957089796147
-0.024528641672222778
0.07901186687117688
0.025379949722054786
-0.020280699104214508
-0.022365343619440217
-0.024148863072885295
0.011251093732625637
0.03444967412605156
0.007946904155313681
-0.019013625705373488
-0.08049454547565012
-0.01724784282082718
-0.00586289597712361
0.003462997863075038
-0.01152503742426466
0.004489875857799394
-0.011989934267528288
-0.010414101658890309
0.049993157039307914
0.01330809584745428
0.013259194230675982
0.12357248275148529
0.012892910757285873
-0.027723498942015885
-0.02625995530208183
0.00047828953973447024
-0.012729436014160102
-0.037286882212899816
-0.027307751563198104
0.00021448741035496563
-0.027917776484599352
0.011273890512425352
0.011321084035343255
-0.018022776334698672
0.03509869018698941
-0.09883241003317374
-0.07660509403380218
0.02167170224798626
0.10187518078381856
0.15969433115398876
0.015495551142476947
-0.003202385897876552
0.004383429014154747
0.054608709432023825
-0.023959904923089716
0.04511962261473362
-0.11090130362122158
-0.13212464932309767
-0.04897669718717264
0.11434219818672763
0.141446350070479
-0.0521900845799545
0.005125563697094663
-0.01444280726187788
0.01652305153952943
-0.013721930896346221
0.03969400695792637
0.030257312118792935
-0.018866773752915744
-0.03756574758992942
0.007455053901017898
0.01193240074706928
-0.008414222935577895
-0.028666548271800225
-0.026403436910257674
-0.045446298970352954
-0.06101125491537935
0.10162653749021358
0.04198092212870267
-0.028827907862481003
0.017876797857963696
-0.0032404106811252365
-0.004757010262659523
0.0054255606927267105
0.06365019756599088
-0.01591040986951305
-0.007902206750917313
0.0108514660477497
-0.035546256964142625
0.02092734442563379
0.007314761722940266
0.01690752778448965
0.00846498243257683
-0.18896455206341498
0.012535785933072151
0.015395865269835895
-0.059566248296802515
-0.018511573886498597
0.034633207691729874
-0.033224780206394106
-0.003376900884826817
-0.0017258516134779599
0.010670284418748968
0.0014699401232728974
0.010796335151166897
-0.012652110844567296
0.03834709446357924
0.05833642574851769
-0.06607121654736095
0.02155745279733157
0.05429096801056604
0.018012903583222602
-0.0007373887935422513
-0.019478447113337648
-0.025869362084244944
-0.009480058773667121
0.007538596346368583
0.013683695688094176
-0.02102597844340831
0.005985495582605587
0.00850159609286826
-0.01626667867076505
0.0006839247430747015
0.042040922928474285
0.014465716334849762
-0.026335995259342642
-0.04129378895888482
-0.021674440900218
0.001640678526279382
0.001960938083274816
0.012958805380388455
0.035789527524430674
-0.0006538801695670028
-0.007000633973864223
-0.023466211196081475
-0.027852980081292833
-0.023560731131840488
0.02639448052855838
-0.005177087181426323
-0.02586738381562186
-0.006754161100503224
0.01206845404392712
-0.016204796044035123
0.005103669059161586
-0.05724992353013738
0.05339029538055624
0.13574546857338374
-0.010487191292996351
-0.013652550800209617
-0.005686837429710927
0.022055574537266046
-0.053426434926805405
-0.023933269293519008
0.032409547177201244
-0.0012238519785498438
-0.025478711092660467
-0.016428052773154053
0.008618257831008957
-0.008738256816909538
0.005996722659698687
-0.006334614459193478
0.03174608668969649
-0.021438623861522916
-0.0017947193198152558
-0.004997497961439463
0.03273712372051085
0.18174405084308143
0.009142271254852914
0.007866964298849323
0.03809072146270912
-0.0020588000736940044
-0.002443934121952536
0.031769364981681064
0.008938840006903022
-0.05785212272541
-0.14514908800158158
-0.04446515443496759
-0.018160436535535323
-0.024836092484015887
0.023022172035461475
-0.03638575994963641
0.033061941498387905
-0.0174483465323025
-0.021972599363392256
0.05237032236839415
-0.009576643968252172
-0.019406452729205055
0.014874460137672666
-0.04697741686969201
0.09621064540771371
0.09488587288019369
0.023491230589334226
-0.0113493251164013
0.013616969873164325
0.06206436729179473
-0.0027228247005210565
-0.039202777270097626
-0.03565035375471798
-0.01946464021574231
-0.09516962551637803
0.0106615451258674
-0.045060811625960255
-0.01570374938429522
0.011326562720550364
0.017707285187320194
0.015129405247465416
0.010976368367238112
0.030954485809390954
0.019627683596404065
-0.002780454018619956
0.0024044891953963533
-0.04952297039292462
-0.03326537978217606
0.013537510728762246
-0.04535681401509138
0.0037495755831308303
-0.05046113848997981
-0.030506847255701068
0.1423284120985135
0.0006017011767598957
-0.04138882783330572
-0.021079756687237425
0.04020900831541892
-0.024488992377187855
0.03257250027943637
0.012772986344212426
0.009768466777670728
0.046017005702423536
0.01506939914337282
0.025375448977287912
0.0022854178349146974
0.010456116997189725
-0.012841433298943628
-0.002284688506020384
-0.00034261975574293243
-0.17849652316556194
-0.028496250249459683
0.03497881916130963
0.03381276419167666
-0.001711475090529153
-0.09338142044356704
-0.019855303017518255
-0.005200990952172474
-0.004185179775810757
0.02406135955963779
-0.009728288672103756
-0.010866035165554063
0.020433432793695718
0.013532358871467733
-0.009052793029552348
-0.00092877950068543
0.004843468621028339
0.06833333452819314
0.0028601639402898115
-0.011441363858868831
-0.001489120448582264
0.005086366519185378
0.06580486117343863
-0.009374400077060209
-0.00551958296970553
0.021289278695717558
0.061096728538730195
-0.002822122632757692
-0.03140141047290576
0.020089935212102665
-0.009441038652563861
-0.021208057616648915
-0.018311760421041524
0.049701220608878806
0.0394864115254964
-0.026661494740959732
-0.001540857097375595
-0.0202143337101358
-0.046643899747219504
0.004310613718914882
0.012291974986279899
-0.008520861969701447
0.04445466662888418
0.018306910816408166
-0.04089788135930933
-0.016392661639571274
-0.00894309114730899
0.021227134673525022
0.03468939383417423
-0.026289856560061928
-0.0021229865356138843
-0.03773298263324278
-0.062471153318400745
-0.010760876344671998
-0.015367334725614155
0.004670870014792604
0.01780798407085004
-0.00044164713068989855
0.03782238172050001
0.08867756836855903
0.035389395154647625
-0.051910445764451696
-0.04959408140308786
-0.0002893378134231367
0.0234351006472357
-0.10247014031800089
-0.14438903143672774
-0.011778601123641605
0.10679747117392627
0.1171100678736644
-0.021648423031581803
-0.005755753121266276
7.523750779280138e-06
0.029413902585755998
0.021549437351164144
-0.013083583441425808
-0.013302277312645798
0.0016338943898848448
-0.020169006582590836
0.00858818137557415
0.009331979969690554
-0.015668228111764094
-0.0024671166400877646
0.03352660391382853
-0.003514335942001619
-0.0025213637958148476
0.027467063077158706
0.03186985682047171
0.003761286739160965
-0.06955453645061802
-0.00989647262094789
-0.012779158519372145
-0.01050322451118475
0.050985752918056876
0.02935626477406691
0.030431871527501694
-0.011501496029937509
0.0003381209983383451
0.008606950010378167
0.020329341341992962
0.014432891114619697
0.00720119694726947
0.036399164562499926
0.05119655781628197
-0.017851284803047006
0.04846587671087056
0.0033090415884932016
0.0025348827536949016
0.027923495352245906
0.03561147072269846
-0.06942588433553738
-0.03144357295778192
-0.0014806326524385543
0.0016802824360628084
-0.008950880834638308
0.02109158549004363
-0.023023449420827225
-0.1789074419824196
-0.05861416460681117
-0.07440113680040861
0.10478223702539481
0.005248887741198304
-0.017230940584828817
0.0295518199938498
-0.04727505868543404
0.008315296175974447
0.030586723885498955
0.009610391539013803
0.008177087567528583
-0.0019478733561445365
0.0015465922212114084
0.03073125646129379
0.0071517582224684935
0.01803479119559239
-0.01451104405684016
-0.028283716920538785
0.06638958175431935
-0.041243234589335945
0.03019458967985702
0.09242202471463808
-0.02023355726140668
-0.015609618451046933
-0.04231082901040792
-0.18512852872714744
-0.010264240883054757
0.027268566460795982
-0.0455529086282422
-0.059358579281336386
-0.02313975123345353
-0.015887255062896937
-0.026307447038567265
0.006778595108476151
0.03116922662958425
0.052151321288271636
0.07240210522960848
0.00725852298345407
0.04925948571622855
-0.002960145496988323
-0.018717276679519744
0.024537520103537453
-0.002072688581561498
-0.012544315662599014
0.018913946843264327
-0.05127308194035394
-0.015667942523571007
-0.013644331747268555
-0.008558913706423997
-0.014113286931872242
-0.008028500308470507
0.015833785041781453
-0.0006709324268581096
0.008183963334324047
0.03546192622902963
-0.033355025279741844
-0.027890178693116045
0.043974021870061705
0.010229370380939773
0.0033622319532074707
0.019874083856596406
0.029795964397386573
0.0026358712499811106
0.011830297813861227
-0.011726994903242787
0.028581497061502776
0.0077079631082633115
-0.005142958983481962
0.03379680685663485
0.006875089186201038
-0.005988769440417307
0.014110333217040203
-0.014484519963648674
0.01068460470002615
-0.022029782324679073
0.0374635390197153
0.08805898936052146
-0.03161326471615617
0.011812346269770504
-0.028764607449249597
0.003199653138579202
0.02286591196585969
0.01626095142068362
-0.011351529034220653
0.03394288793553391
0.0913049861566103
-0.05015771077511522
-0.021737332432315914
-0.0046309542015826
0.022659420893373555
-0.027988198878161175
0.027416731259764744
-0.11172566218394198
-0.08587663749388046
0.01079185794866069
-0.014189198544310179
-0.004539913422896366
0.009206463300379247
-0.0672583644955301
-0.04616278817238375
-0.0039909057537277914
0.03534649368568452
0.03171205766888697
0.011298765627563148
-0.015808915449537983
-0.014051003811886419
-0.000485893878521293
0.029582780195702665
-0.021784246750494878
0.059106884792032355
0.021352323492045786
-0.004519529825251875
0.0036663802907262186
-0.007824548141583081
-0.027489892159363975
0.03236976663489491
-0.015678588743558274
-0.03289783305838416
-0.01175634574469291
0.05091369700121765
0.00233219457874659
-0.01913895793640512
-0.009778282785823145
-0.0018593463036516667
-0.046295446800781376
0.004688134580046386
0.0044351008144505495
0.02100195823396067
0.06239626567735159
0.06125995158327533
-0.026455634781429375
0.047007774463582584
0.0476205093253967
-0.03605877189405886
-0.000533545645030729
-0.08108144532635374
0.04029156000697242
-0.025346479305643297
-0.027077479600487724
0.013303367029243097
-0.04682564426644136
-0.06619563748839104
-0.013977532294882638
0.018351655846215342
0.03683874173275369
-0.0031701645234947827
0.022715860344899468
-0.0015180980555183914
-0.04273183188908422
0.004361642747871328
-0.004421314054864189
0.014688741867559649
0.05364749717612762
-0.012773603244436818
-0.018082518884844086
0.0710255673913804
0.009360369334061739
-0.018966488133462734
-0.005803644707181191
0.09573315429351414
0.020640787309385542
-0.047632918009139866
-0.11509713260502656
-0.013041106052866062
0.04918049189579802
-0.010574257998861799
0.010091052589967467
0.016439221480623007
0.02192145051847714
-0.020297960534889855
0.03509179189033095
0.02561049567965192
0.007137109687468109
0.0352126250096755
-0.11005691801327358
-0.04836784051114094
0.0011398962687165907
-0.03193980314378758
0.015917818886771497
-0.0072577004273752
0.03420914993146033
0.0025982002251230445
-0.02487411196382647
-0.015089861575091158
-0.06411518455930161
0.020158167534928197
0.05647945228241848
0.0493484089735371
0.017251104831979322
0.023781005996376395
0.009991830545695449
-0.048824112439385635
0.02152005532335452
0.011111838246163845
-0.027232913110427005
0.025709220672642655
0.02301890539878475
0.010833791440160053
-0.013340659774848159
0.007318902011500862
0.05882082774572275
0.05133643726458698
-0.11976837929664487
-0.1872936282002629
-0.054353418038030926
0.05767522709452906
0.0009300267240306391
0.015955769491243454
0.017818801435850514
-0.0012462995171021365
0.0021500349325161497
0.020068008331540557
0.015255726575158935
0.017346049416314215
0.020905647313827658
0.01312930339753498
-0.0019317501440537187
-0.011499898215314004
0.0006816137165430558
-0.0016465286645802495
-0.021039787540202592
0.0011061235029699648
-0.022418398277351263
0.04567846926596467
-0.001488599924108948
0.0013188611305129329
-0.012070518049683305
0.02890529164417069
0.023380660295155897
-0.016481440853026896
-0.06494870354856362
-0.052984462226509106
0.009586405599652731
0.0075965046406228035
0.01813318342447954
0.009209291798141152
0.005433047468472969
0.027594854131236305
0.027391849779380334
0.012814783287653989
0.040509320877150166
0.01601477990841206
-0.012782282193729608
-0.032078451551012924
-0.03551463460998381
-0.04159913023878729
0.02638668595819385
-0.005961923032797359
0.026227524895471498
0.06400625567618379
0.03755379040015909
0.0035853746954678787
-0.01975869599883177
-0.012741033188212122
-0.008781090451623879
0.01139062765502366
0.024823423281502225
0.02165097049328168
-0.0008456316619307615
-0.09781286929919494
-0.06999611300379513
0.04113481985450437
0.004007545050856715
0.015866208801983875
-0.034203583204886735
-0.026715409394314476
-0.012526619104526704
-0.06274407399490063
-0.03706218760752706
0.028634540078512852
-0.0013521198807523404
-0.013943593846446797
-0.03095216985097186
-0.008294952325987757
-0.0004668242765467888
0.008639536979109203
-0.03874164277418453
0.027494390762647487
0.13722170267280254
0.06824542865993675
-0.020119622047046856
-0.007838809398947585
-0.007202723644976119
-0.013385572429589397
-0.0019448729494470896
0.01216279792521661
-0.019472514414524498
-0.026901970824318774
0.009574030032289212
0.03835647440797622
-0.06236858924570405
-0.022382659994641393
-0.06418980014015367
0.20339122864606413
0.11923132039446332
-0.04707011754551077
0.033614904884559184
-0.012481073889292406
-0.0004327668809834645
-0.003940450817185251
-0.005299039699311143
-0.026803525146375295
0.009521468070511824
0.011800815594715587
-0.06424973907209569
-0.00744682810665645
0.04189368823373742
0.009770048651079815
0.00598715217131403
0.017156833923411774
-0.040053879424098895
-0.045830793131233755
-0.014812474565000943
0.010849275396122264
0.011937791433598435
-0.007059379918893484
0.012011787968961116
0.12881487501113573
0.024287125316406765
-0.06433823925954234
-0.13275734250507013
0.014951443180882292
0.0001735517238796344
-0.0034530311796365223
-0.017711364380435426
-0.008194665723827122
0.023177865384115533
0.04147130612907945
-0.014446965915718939
-0.012469156194917303
0.0630655519477939
0.03765082502387111
-0.05884123956675661
-0.03637590483171409
-0.04580003349967872
-0.11109610961784572
0.008963182077117837
0.07733518851015476
0.0190163368390229
-0.011341517224563995
-0.08726104035090645
-0.03529323487359277
-0.009978052724415104
0.04422078468747999
0.010070828890236241
-0.028522097675587624
0.0025717976811416745
-0.008860276092715082
0.012148088170028423
-0.0027313598379114052
0.04035552039603531
0.0913055879255268
0.009652442325677631
0.011871285373757262
-0.025041814949993326
-0.0032216309819813314
0.0384640265340933
0.0006884607177799495
0.00860678451468192
0.021161123559915913
0.011418576168151224
0.014149306131663182
-0.059884399335488794
0.02881643034528864
-0.08813837253579902
-0.06768388144285904
0.02527078800158271
0.07437887840097518
0.033915706560829845
-0.00427069914664208
0.05085894871634182
0.013192968346990401
0.0054590896260568195
-0.0031537536330221317
-0.019532707528148292
0.07159228437841875
0.03717398047965305
0.0008961626826921188
0.01156770723413138
0.0022665926533773904
-0.1117924381905033
-0.07358388783559901
0.0025676828693904246
-0.017538271776373675
-0.01848064524517253
0.052917954887203
-0.11453667574192532
-0.03606497734464987
0.035196791265711486
-0.022802087384585692
0.03202947465496581
0.032706646157507346
-0.07840115511856592
0.01952757694034949
0.04703207254928039
0.009479568092682822
-0.04011379856744042
0.005376882321792815
0.034592109277361255
0.009951653304415442
0.02538902096328662
0.007079019735297257
-0.011706730906707985
-0.003349785230170066
0.014031381234663126
0.05972978920715552
-0.03558299525078695
-0.011254573320866908
0.049591233262814956
-0.06327845989897135
0.04168926309069784
0.044939908295810654
0.029204814704540092
-0.05215270778695647
-0.012391818956288669
-0.06124463629212035
-0.025940507733655215
-0.01288658164755668
0.021641215852791818
0.01316929853634895
0.003705167317662424
0.0326644014509942
-0.01896714681484319
-0.08833923813324998
0.02618656253841562
0.10455534907462195
0.01069076645337399
-0.01076584942706589
0.012658296629477194
0.062227604467851375
-0.014589012912714753
-0.006688940085159066
0.00501604747431048
0.051635535424819856
-0.044769603971239996
-0.05625637679154432
0.025119619650611935
-0.029744421390726004
-0.010676685704975972
0.02523688946370097
-0.043645021254012005
-0.1130956017337051
0.00812230373633814
-0.015582423565332782
0.0024406635674871268
-0.01712646860276985
0.0031210373083317097
0.007648890632028122
0.09274870546713793
-0.026686900000000634
0.021543508706955566
-0.030853595623287065
0.024749494054224063
0.04969857241587462
0.0023193432918054914
0.028107785027483193
0.024642398560404902
0.026548821722286387
-0.013646303167437113
-0.0744336217652793
-0.006052188918464924
0.035562520023815825
-0.02516735224497613
-0.011833416619554919
-0.021024965413083362
-0.022631544760252326
0.016917825956079355
0.020646081137761188
-0.015757985519370785
0.009024667548156114
0.01743437540243103
0.010273601295325386
-0.007875464769983291
-0.031773971365383374
-0.017469261220354422
-0.014359379172477964
-0.0014001916570322683
0.029464953060780917
0.00622338535448995
0.0014320242076085764
0.06619130797962101
0.08111023920261667
-0.03590752476036392
0.0034000778100671545
-0.07152482886642803
-0.03669457670825938
-0.009991396535037203
0.0036115155253737797
0.008373362350227245
-0.06051088111471546
0.038142316523902826
-0.010635113088899839
0.02226222416145883
0.059046006012901414
-0.022327191954547448
-0.021013328827831947
-0.07752069132714551
-0.03447092648918894
-0.11115936995032666
-0.09567144735882475
0.2003360224072032
0.021710742479411058
-0.040191347201654876
-0.05710536205273823
-0.02212660180471686
-0.004384270528015051
0.0031291057604409603
-0.0036065906278858898
-0.04386817793906877
0.027543451243681297
0.009085654323605311
0.09289069863692585
0.006502983317317057
-0.017098697775862072
-0.02201335598183702
0.026422529252736877
0.1811235374761332
0.08350123119892171
0.045374513575991246
-0.015881121067475655
0.008889045457149638
-0.015558186007232418
-0.009344618279013039
-0.021393476132015563
-0.0068208774986090685
0.018058958628309807
0.03319480776691082
0.03240989144824487
-0.0098707168065124
0.01713479561797534
0.0062500162710453855
0.011289780885471204
0.02194147076706479
-0.019915520708982167
-0.018464199050710336
-0.040661579975120286
0.016174237326815628
-0.006417721043028425
-0.017581644886769252
-0.00801146971528394
-0.0006748580444650528
-0.03370763444869012
-0.01901499595829089
-0.043499627321829604
0.018234585925686175
-0.004964426476014438
-0.0021453581339449922
-0.02226380904207435
-0.0007490860775856498
-0.006966915354115563
-0.0061760344533042045
-0.06783501023111507
0.02499081877059732
-0.03706625107329285
-0.19366604229119008
0.02066581949051957
0.048402832912540314
0.003622629714959429
0.035151337744324336
0.0628485611266138
0.021510670826012945
-0.007011607497820912
-0.016230323990696235
-0.0033847539276264937
0.02272451399483845
-0.014729164055978353
0.025373855019277112
0.025458478467793016
0.06827286081598596
0.031417159843979255
-0.021860374187225518
0.005606165756817578
-0.040720004739343695
0.004715245249463733
0.018229417286658122
0.0186929753838534
-0.07976532489881073
-0.06200925018795914
0.015100145622075303
0.02110182081805201
0.050193584739312104
-0.03634458068879636
0.017944788266233743
-0.012839046190712885
0.030988267806950038
0.01523578954162017
-0.02368093181393484
-0.028331471580703427
0.03332839103357634
-0.005562795399786272
-0.034648445202696936
0.003171665925079442
0.11955764590892455
-0.019180198200954353
-0.022758084101021224
0.04429440710922679
0.03552472273459648
0.01530411478944806
0.017283566082575107
-0.008719709752844477
-0.10251999911376056
-0.015389821405684052
-0.0012562358413163333
-0.012051074700092349
0.0007578737323145523
0.017849300409432778
-0.006707559400791855
-0.029839429003947125
-0.05060531013317993
-0.03388656276178472
-0.009857019024937342
-0.022059464208017705
0.012230161070409107
0.015692743172170228
0.0425367240585376
-0.019271610044357967
0.004372571842315633
-0.026443773788380087
0.020959338915158405
0.059389721879760486
-0.0008808024250640275
0.002802346561930027
0.006601435887689136
0.016542009453051294
0.005438880293207595
-0.018380095197446794
-0.004423421615418422
0.03492327900899002
0.10859834723678202
-0.04225323755980147
0.013217207985683257
0.011553818830478908
0.008346258440980546
-0.02754136397702156
-0.029320344868325656
-0.010406702360183625
0.004460857308294165
0.003943044191670235
0.008466863710075294
-0.009504071996789513
0.0001378829769932637
-0.03943581453603385
0.021404762084715534
-0.11942768039502946
-0.11572167578192526
0.04356262282518491
0.12143079199642011
0.02003257688902711
-0.0731182819400754
0.01777868645814418
-0.02333256900647187
-0.02925883811865023
-0.008143166493624496
-0.00012554559742291067
-0.00459873405434381
0.05694651051995723
-0.01869689946474545
-0.024967374254840184
-0.040189057398420325
0.028747753812491762
0.014348760259593193
0.01673488247565476
-0.0001222718971259339
-0.005532543157929986
0.05318379227772948
0.029499663447920984
0.044237140264974335
0.02179535323151299
0.00536514992843023
-0.029181820750384932
-0.014915675923695177
0.02269907098124245
0.008318731172743081
-0.02344499035837827
-0.006493455621600473
0.030861908207600368
0.02232250468288857
0.004921407372331101
-0.012012357113535703
-0.0045774052452717375
-0.014103219376434781
-0.026578228213535247
0.046137895590846
0.03851142048838727
0.009480666495041748
0.024277111027238545
0.005335678571650614
0.0022488709639824503
0.011305866559015283
-0.012189412808307348
-0.04402263988680969
-0.022584788241935362
0.005564953750673537
-0.02323886714473873
-0.006131431191435245
0.01733073589722613
-0.03456014606500955
-0.018891834675330274
0.009125058267049738
-0.05964907886801238
-0.01904674293053225
-0.0020542043732323092
-0.009766122474576285
-0.10675089258410694
-0.02584677378464921
-0.0066856205459993046
-0.02672954739797193
-0.021086662122643075
0.05144053764685335
0.19624604076003033
0.045804330032827204
0.030192608753925765
-0.009475896607230238
-0.0011833437755178697
0.018705856565563197
0.021081748383200347
0.009762434383505873
-0.003146344954968225
-0.018607871630025447
-0.0012707064684238753
-0.0997326865580168
0.01574483754217691
0.015775527597501067
-0.02389962021772464
-0.070122737176577
-0.05930242281706614
0.04354709967085181
0.006854176293891076
-0.011370593464066448
-0.014702526348417755
-0.0017684814018985601
0.021791605974131267
0.034293709473103715
0.036735998976835396
0.003583969171051128
-0.04070224432442474
-0.03795337279815287
0.0032179036554744168
0.000971122598130047
0.018138708050908895
-0.02695427978790796
0.03978765077036577
-0.005204714953888776
0.017749713999023253
0.037199669716096256
-0.020956582376123307
0.0030009347733624997
0.03260079429681869
0.007114310373082625
0.06254330187604065
0.01211715277356586
0.01106666679252455
-0.014355931218509171
-0.019531772521790596
-0.007859114804365843
-0.013845760841869252
0.007547799016930443
-0.019623016160112174
0.0010768241591014537
0.02435008306354509
0.0011824718252554834
0.007133654091417857
-0.009143435025063689
-0.003492917933674376
0.042915665267065604
0.06326087500852495
-0.03683605315822085
-0.05891380255633092
-0.06944247051124582
-0.03481881882778687
-0.0016946962793270668
-0.04463052320412867
-0.03951469427115813
0.024530100761372554
0.0259485501543196
0.0014878882474890398
-0.01921087036420796
-0.029602430604873463
-0.0066125135107980085
0.023996662506064033
-0.0007153258667280561
-0.022056063704955928
0.022201666697062902
0.015282364175120145
-0.019841159363148873
-0.0034105630789006097
-0.0064808939042186086
0.007185970407652397
-0.0043557631418761665
0.0017232158109142476
0.03446739462812239
0.042272793982465084
0.12673048883453478
0.011990296691320703
-0.036218821429537
0.04171213973770753
0.0703027522896962
0.031594067106537976
0.0072701904257383276
-0.021476655830294858
0.016314612521022523
0.01707088881951051
0.01601598700518512
-0.012394671770189462
-0.04267644380306733
0.0060366654676437745
0.0265408610203104
-0.01603053649209795
-0.031963599458339
-0.0015112476990126538
0.024078488585640132
0.015005600646116711
-0.12300751766306689
-0.17323000382392023
0.02179448515534008
-0.009929467377605302
0.008053631514423114
-0.0012228506657598907
0.015906138245355004
0.019163046289421615
-0.027451291803806604
0.012085521439086519
0.002908642920180142
-0.04932742101102296
0.05372068821623335
0.02938923244765315
-0.09785790354462287
0.028604756960471493
0.01589391493366535
0.0023441649198368414
0.002328072718747944
-0.12775930787432133
-0.013784169057524567
0.002501333149374413
0.1618123494339408
0.0337499999848682
-0.0005928508724747792
0.02232871120636968
0.01496692207843505
0.025466298893830588
-0.012745889855720926
0.04340569531411731
0.017494597880042782
-0.011945241259062989
-0.0483764353847244
-0.10783492617233932
0.016947254286276525
-0.029851628881657585
-0.057002669683687675
-0.031054664223398816
0.010101427885079218
