,0
0.0,-0.021880891615737523
0.007040369478590236,-0.07336199285476688
0.014080738957180473,-0.11068912799112411
0.021121108435770707,-0.1318649671850381
0.028161477914360945,-0.1418775414522595
0.03520184739295118,-0.14301381848149777
0.042242216871541415,-0.13603152638261976
0.049282586350131656,-0.12542280899341327
0.05632295582872189,-0.11843464925659442
0.06336332530731213,-0.11898302595107209
0.07040369478590236,-0.1268224373260408
0.0774440642644926,-0.14134111172730718
0.08448443374308283,-0.1576886135954482
0.09152480322167307,-0.16397006674604353
0.09856517270026331,-0.152093612858435
0.10560554217885354,-0.1274992175738776
0.11264591165744378,-0.10445682900145495
0.11968628113603401,-0.09336094944797088
0.12672665061462426,-0.09270950430421186
0.1337670200932145,-0.09452980076592352
0.14080738957180472,-0.09420986805475451
0.14784775905039496,-0.09134709217564412
0.1548881285289852,-0.08685944441140887
0.16192849800757542,-0.08435873678838059
0.16896886748616566,-0.0895379245738499
0.1760092369647559,-0.1022895266986716
0.18304960644334614,-0.11381523758997045
0.19008997592193638,-0.11620991494029724
0.19713034540052662,-0.10996505269182522
0.20417071487911687,-0.10090662455486599
0.21121108435770708,-0.09423892879747653
0.21825145383629732,-0.08952904390615667
0.22529182331488756,-0.08048262656734197
0.2323321927934778,-0.06407949756747192
0.23937256227206802,-0.04634223113189723
0.2464129317506583,-0.036633668539097775
0.25345330122924853,-0.04164975612456394
0.26049367070783874,-0.05990733700698184
0.267534040186429,-0.07969073921757124
0.2745744096650192,-0.09105282272782315
0.28161477914360944,-0.09475771864129162
0.2886551486221997,-0.09464820912807144
0.2956955181007899,-0.09201705785197657
0.30273588757938014,-0.08892037046939587
0.3097762570579704,-0.08841040049447291
0.3168166265365606,-0.09155832143252055
0.32385699601515083,-0.09627514410832662
0.3308973654937411,-0.09739538534611289
0.3379377349723313,-0.09084049151475539
0.3449781044509216,-0.07742805485824875
0.3520184739295118,-0.059563288795031095
0.359058843408102,-0.04116765165817592
0.3660992128866923,-0.03064831303685498
0.3731395823652825,-0.03269862631857027
0.38017995184387277,-0.04092823392942251
0.38722032132246303,-0.04622906217453178
0.39426069080105325,-0.046814526513644796
0.40130106027964346,-0.0477503694719703
0.40834142975823373,-0.05359815387730932
0.41538179923682395,-0.06340800146078024
0.42242216871541416,-0.07414503035495584
0.42946253819400443,-0.08536843805025746
0.43650290767259464,-0.09695281064000025
0.4435432771511849,-0.10259195217576635
0.4505836466297751,-0.09026248914983188
0.45762401610836534,-0.05451681798149687
0.4646643855869556,-0.007481897637973972
0.4717047550655458,0.025784181533171968
0.47874512454413604,0.02749475997408884
0.4857854940227263,0.0025324740044431384
0.4928258635013166,-0.029173735362289732
0.4998662329799068,-0.0507616789755103
0.5069066024584971,-0.0582270430329583
0.5139469719370873,-0.056942092956778885
0.5209873414156775,-0.051012075570402465
0.5280277108942677,-0.04054436885975646
0.535068080372858,-0.02818700881334768
0.5421084498514482,-0.021000403193433645
0.5491488193300385,-0.026862859233795403
0.5561891888086287,-0.05205661427731656
0.5632295582872189,-0.09698163788220311
0.5702699277658092,-0.14612472046896366
0.5773102972443994,-0.1684849927708456
0.5843506667229896,-0.14661853656705073
0.5913910362015798,-0.09681063144252972
0.5984314056801701,-0.04818722995626826
0.6054717751587603,-0.019526369295034828
0.6125121446373506,-0.012815970460502181
0.6195525141159408,-0.01188716127355836
0.626592883594531,0.0068728410971352644
0.6336332530731212,0.05523722206213464
0.6406736225517115,0.11499183047873524
0.6477139920303017,0.14117382376818735
0.654754361508892,0.10840732835245379
0.6617947309874822,0.043727104602964244
0.6688351004660724,-0.00909174698922302
0.6758754699446626,-0.03316103157725043
0.6829158394232528,-0.036414638124187236
0.6899562089018432,-0.03189037566004104
0.6969965783804334,-0.028125218122969316
0.7040369478590236,-0.02789304840477245
0.7110773173376138,-0.029692049019408098
0.718117686816204,-0.03201639510090619
0.7251580562947942,-0.03521107771322983
0.7321984257733846,-0.038696367764698515
0.7392387952519748,-0.04043318923428968
0.746279164730565,-0.03979625721986319
0.7533195342091553,-0.03963246727443043
0.7603599036877455,-0.042509745350652536
0.7674002731663359,-0.04369441284799703
0.7744406426449261,-0.033409969396378365
0.7814810121235163,-0.008191661588613229
0.7885213816021065,0.022874134753496405
0.7955617510806967,0.0454598757586747
0.8026021205592869,0.056455779329396036
0.8096424900378772,0.06728446050236545
0.8166828595164675,0.08152068604905492
0.8237232289950577,0.0816898476921512
0.8307635984736479,0.05708171257173214
0.8378039679522381,0.02898305954906234
0.8448443374308283,0.028368359781869943
0.8518847069094186,0.06506047963336423
0.8589250763880089,0.12514627898430075
0.8659654458665991,0.17826348117851545
0.8730058153451893,0.1884390299937899
0.8800461848237795,0.1426601094736592
0.8870865543023698,0.06935954499702685
0.89412692378096,0.010067573030244192
0.9011672932595503,-0.018569364465903054
0.9082076627381405,-0.025574784894212235
0.9152480322167307,-0.024232118007888357
0.9222884016953209,-0.01977088092609987
0.9293287711739112,-0.013241899007732602
0.9363691406525014,-0.008167184177703233
0.9434095101310916,-0.008755529611272298
0.9504498796096819,-0.014581827897254679
0.9574902490882721,-0.022372561743243015
0.9645306185668624,-0.03185798132457104
0.9715709880454526,-0.044521550437046156
0.9786113575240428,-0.058043800014147356
0.9856517270026331,-0.06513015260237714
0.9926920964812233,-0.05759813607981903
0.9997324659598136,-0.034558540306823295
1.0067728354384038,-0.007326799487797951
1.0138132049169941,0.008886989780584139
1.0208535743955842,0.009236774641237865
1.0278939438741745,0.0024207249142141627
1.0349343133527646,-0.0007430787926636204
1.041974682831355,0.0005455250201556461
1.049015052309945,-0.0006223485189445861
1.0560554217885354,-0.006975111925342463
1.0630957912671257,-0.014677214749009005
1.070136160745716,-0.02111132747693419
1.0771765302243062,-0.026275180987245846
1.0842168997028965,-0.028129133620853793
1.0912572691814866,-0.023725172812457025
1.098297638660077,-0.013132801721586563
1.105338008138667,0.00031568187217809554
1.1123783776172573,0.01079732045955727
1.1194187470958474,0.013764273720432216
1.1264591165744378,0.01179493566546555
1.1334994860530279,0.009923988149948805
1.1405398555316184,0.006881376028068377
1.1475802250102085,-0.000668364000436154
1.1546205944887988,-0.010112147687945433
1.161660963967389,-0.0147697899691428
1.1687013334459793,-0.012337245078030034
1.1757417029245694,-0.00907878813546985
1.1827820724031597,-0.013740808509862213
1.1898224418817498,-0.027628142987527794
1.1968628113603401,-0.04038987953450559
1.2039031808389304,-0.03875115426770386
1.2109435503175205,-0.021194814953145676
1.2179839197961109,0.00013705434786278562
1.2250242892747012,0.009787068329422452
1.2320646587532915,-0.003754304801977223
1.2391050282318816,-0.04796191520937916
1.246145397710472,-0.12229410450011464
1.253185767189062,-0.20153776271307358
1.2602261366676524,-0.23580624614228562
1.2672665061462425,-0.19895191883876726
1.2743068756248328,-0.1220328407236594
1.281347245103423,-0.05110242203755484
1.2883876145820132,-0.002468204733927187
1.2954279840606033,0.0268690752242897
1.3024683535391939,0.03890755353514432
1.309508723017784,0.03444242325549942
1.3165490924963743,0.0191995122384439
1.3235894619749644,0.004547790684983704
1.3306298314535547,0.0017956943165871224
1.3376702009321448,0.015467543765389606
1.3447105704107352,0.040457685095555786
1.3517509398893253,0.0626995686386089
1.3587913093679156,0.0656978623734041
1.3658316788465057,0.046310126826935485
1.372872048325096,0.02171213126339743
1.3799124178036863,0.01249260027734774
1.3869527872822767,0.025067341589251994
1.3939931567608668,0.05102644722743204
1.401033526239457,0.07264362482080533
1.4080738957180472,0.07111785337593488
1.4151142651966375,0.04044267727506581
1.4221546346752276,-0.005771795371386071
1.429195004153818,-0.04401799699661605
1.436235373632408,-0.055353231060211235
1.4432757431109984,-0.035706105585031775
1.4503161125895885,0.0017960791632113892
1.457356482068179,0.03925658849007736
1.4643968515467691,0.06928360037572652
1.4714372210253595,0.09536488108094496
1.4784775905039496,0.11757015295716343
1.4855179599825399,0.12274678876204773
1.49255832946113,0.10060639227339495
1.4995986989397203,0.06183477294110354
1.5066390684183106,0.025162825760857998
1.5136794378969007,-0.0013408665373139316
1.520719807375491,-0.019386308671310342
1.5277601768540812,-0.032237096252727415
1.5348005463326717,-0.039609356274060904
1.5418409158112618,-0.03801390790125891
1.5488812852898521,-0.025390514790615243
1.5559216547684422,-0.004386503706864128
1.5629620242470326,0.018070420317227723
1.5700023937256227,0.03314230959124304
1.577042763204213,0.034700089828123434
1.584083132682803,0.023957289983800957
1.5911235021613934,0.007602507304787158
1.5981638716399835,-0.007443586785943996
1.6052042411185738,-0.015419328567836134
1.6122446105971642,-0.01021083490474591
1.6192849800757545,0.0139088727049826
1.6263253495543446,0.05378482647129511
1.633365719032935,0.09195878777612539
1.640406088511525,0.1116008036164773
1.6474464579901154,0.1115928378574884
1.6544868274687055,0.09732623207418066
1.6615271969472958,0.07013098988821365
1.6685675664258859,0.03274706913997766
1.6756079359044762,-0.007268615767986304
1.6826483053830663,-0.04136991326015309
1.6896886748616566,-0.06261540920693211
1.696729044340247,-0.06795104608445711
1.7037694138188373,-0.058547408218736344
1.7108097832974274,-0.03780233713409191
1.7178501527760177,-0.012547899042817442
1.7248905222546078,0.008202082853183813
1.7319308917331981,0.020667872439687394
1.7389712612117882,0.027552277656803646
1.7460116306903786,0.029650318361662438
1.7530520001689687,0.02185088150113059
1.760092369647559,0.0009235604668215167
1.767132739126149,-0.02581270224991872
1.7741731086047396,-0.04324746505898088
1.7812134780833297,-0.04224474200254415
1.78825384756192,-0.028656458042649224
1.7952942170405102,-0.015284629158343215
1.8023345865191005,-0.010207265309202181
1.8093749559976908,-0.013320025084795708
1.816415325476281,-0.017833820634947928
1.8234556949548713,-0.016385103318835904
1.8304960644334614,-0.007498523390434693
1.8375364339120517,0.0032845626484664017
1.8445768033906418,0.008075744690689779
1.8516171728692323,0.004667413811942878
1.8586575423478224,-0.0018896821513237805
1.8656979118264128,-0.006795929693108132
1.8727382813050029,-0.010061541084028257
1.8797786507835932,-0.01381953369566505
1.8868190202621833,-0.01938088636405738
1.8938593897407736,-0.02587183727342818
1.9008997592193637,-0.029471707429913598
1.907940128697954,-0.024993018324725648
1.9149804981765441,-0.009806762354171912
1.9220208676551345,0.01346322476129455
1.9290612371337248,0.03704541652465399
1.9361016066123151,0.050416695613521356
1.9431419760909052,0.048002126803148415
1.9501823455694955,0.03394595062277985
1.9572227150480856,0.015597032139396439
1.964263084526676,-0.0009517297625478011
1.9713034540052663,-0.008881651371293159
1.9783438234838562,-0.003934572189111529
1.9853841929624465,0.008976972394283479
1.9924245624410368,0.017577935324796127
1.9994649319196272,0.012462582761795054
2.0065053013982173,-0.005161862016817375
2.0135456708768076,-0.025354430583138337
2.020586040355398,-0.03702370164777959
2.0276264098339882,-0.03316391542515597
2.034666779312578,-0.012289126355363795
2.0417071487911684,0.021386070090387975
2.0487475182697588,0.05765947222562537
2.055787887748349,0.08099062417107143
2.062828257226939,0.0757758361473408
2.0698686267055293,0.0362440261385054
2.0769089961841196,-0.026496638066059244
2.08394936566271,-0.08164475835689092
2.0909897351413,-0.08587279587765645
2.09803010461989,-0.019723885445681322
2.1050704740984805,0.07865405248907552
2.112110843577071,0.14326918857288753
2.119151213055661,0.14592849707382385
2.1261915825342514,0.11186287472165021
2.1332319520128418,0.07493824877208664
2.140272321491432,0.044756050988047996
2.1473126909700224,0.017425252129156757
2.1543530604486123,-0.005512007204686357
2.1613934299272026,-0.015704980278365723
2.168433799405793,-0.0076874815594659305
2.1754741688843833,0.015130074223240423
2.182514538362973,0.042163496874974386
2.1895549078415635,0.06249088876660407
2.196595277320154,0.07159347749350432
2.203635646798744,0.07096980768797155
2.210676016277334,0.06378647095652741
2.2177163857559243,0.052575117214520475
2.2247567552345147,0.039432041983311863
2.231797124713105,0.027220366994368528
2.238837494191695,0.0170482091825502
2.245877863670285,0.006992229927041473
2.2529182331488755,-0.0017671688819521944
2.259958602627466,-0.005172162677846798
2.2669989721060557,-0.003308650023317103
2.274039341584646,0.0008587014400180282
2.281079711063237,0.00444838398598036
2.288120080541827,0.003886627326348138
2.295160450020417,-0.0026936001048469536
2.3022008194990073,-0.012946135442748079
2.3092411889775977,-0.02229080939904785
2.316281558456188,-0.02769552899948863
2.323321927934778,-0.02828819946731212
2.330362297413368,-0.023510106847806068
2.3374026668919585,-0.01516197280996591
2.344443036370549,-0.009897949887480237
2.3514834058491387,-0.012900422909702456
2.358523775327729,-0.02104409753615912
2.3655641448063194,-0.027752074483107944
2.3726045142849097,-0.02935731214990457
2.3796448837634996,-0.024225838620969477
2.38668525324209,-0.0134815417526861
2.3937256227206802,-0.003432525184551824
2.4007659921992706,-0.0003377357020618349
2.407806361677861,-0.004110006186542631
2.4148467311564508,-0.011389575393978592
2.421887100635041,-0.020145150192837843
2.4289274701136314,-0.030503129322834624
2.4359678395922217,-0.04755445446017137
2.443008209070812,-0.07906321897203501
2.4500485785494024,-0.11710020006606668
2.4570889480279927,-0.13148344256406663
2.464129317506583,-0.10442915589151205
2.471169686985173,-0.05532328052229063
2.4782100564637632,-0.012538186075097746
2.4852504259423536,0.016937121832535464
2.492290795420944,0.04230531762700329
2.4993311648995338,0.06702477962237902
2.506371534378124,0.07951473462379328
2.5134119038567144,0.07241917430867453
2.5204522733353047,0.05800097100356792
2.5274926428138946,0.04962597407046519
2.534533012292485,0.04483087384257314
2.5415733817710753,0.03712093087168546
2.5486137512496656,0.030071415596012962
2.5556541207282555,0.030753182584790345
2.562694490206846,0.03568080367741964
2.569734859685436,0.034371907748066664
2.5767752291640265,0.025539750996480197
2.5838155986426163,0.01815619327653127
2.5908559681212067,0.01685940811835745
2.5978963375997974,0.017717039007737908
2.6049367070783878,0.01704928531191988
2.6119770765569776,0.013776989947448179
2.619017446035568,0.007008788809297507
2.6260578155141583,-0.0017934606881866559
2.6330981849927486,-0.009737965435542131
2.6401385544713385,-0.016885602822665286
2.647178923949929,-0.02471746828923609
2.654219293428519,-0.032206842253994984
2.6612596629071095,-0.03658476025536141
2.6683000323856993,-0.03469917702786221
2.6753404018642897,-0.02537673334753653
2.68238077134288,-0.014277755305398973
2.6894211408214703,-0.009851266791819729
2.69646151030006,-0.015768212655799647
2.7035018797786505,-0.0355869793662164
2.710542249257241,-0.07471395412466962
2.717582618735831,-0.12389271580651445
2.7246229882144215,-0.15260707486676306
2.7316633576930114,-0.14000201167682813
2.7387037271716017,-0.100027226265222
2.745744096650192,-0.05812395478612311
2.752784466128783,-0.023357809840952995
2.7598248356073727,0.007254076462071475
2.766865205085963,0.036010798014329694
2.7739055745645533,0.058819217992616565
2.7809459440431437,0.06584449597422233
2.7879863135217335,0.051237729395161705
2.795026683000324,0.021716833829424527
2.802067052478914,-0.008374980467357334
2.8091074219575045,-0.026427619749653578
2.8161477914360944,-0.025121090929687128
2.8231881609146847,-0.00412266294251378
2.830228530393275,0.028251584173512638
2.8372688998718654,0.05803133284644353
2.8443092693504552,0.07435959356559835
2.8513496388290456,0.07420579615944457
2.858390008307636,0.06042603494358148
2.8654303777862262,0.04201953610340127
2.872470747264816,0.03138869262681704
2.8795111167434064,0.03319894817838848
2.8865514862219968,0.03908103743400006
2.893591855700587,0.040196443312396496
2.900632225179177,0.04019420912548188
2.9076725946577673,0.046457982060446094
2.914712964136358,0.05573537593562235
2.9217533336149484,0.05722204401134646
2.9287937030935383,0.04263713352452259
2.9358340725721286,0.007475879641549398
2.942874442050719,-0.0475292806812574
2.9499148115293092,-0.10576020895010553
2.956955181007899,-0.13603962795431024
2.9639955504864894,-0.12156754494345164
2.9710359199650798,-0.07829019391194728
2.97807628944367,-0.0322850391072445
2.98511665892226,0.004490331036864804
2.9921570284008503,0.03162160694721988
2.9991973978794406,0.05143908257018715
3.006237767358031,0.06313348162106766
3.0132781368366213,0.06072842938194947
3.020318506315211,0.04010026911992241
3.0273588757938015,0.0023385342564657572
3.034399245272392,-0.050819943275343046
3.041439614750982,-0.11261866202043053
3.048479984229572,-0.16375980493902287
3.0555203537081623,-0.18105529369193177
3.0625607231867527,-0.15270449122150137
3.0696010926653434,-0.0870193220298224
3.0766414621439333,-0.012536469721698508
3.0836818316225236,0.03712446978414182
3.090722201101114,0.043922098387115596
3.0977625705797043,0.012296533871263891
3.104802940058294,-0.035100309392132496
3.1118433095368845,-0.06769023923485423
3.118883679015475,-0.0688707051788654
3.125924048494065,-0.049062212556947496
3.132964417972655,-0.02825598038406514
3.1400047874512453,-0.01538844621699489
3.1470451569298357,-0.009882077874092244
3.154085526408426,-0.010209336497554783
3.161125895887016,-0.013731363623156672
3.168166265365606,-0.015181419227511168
3.1752066348441965,-0.01079518911243435
3.182247004322787,-0.0009492216950768782
3.1892873738013767,0.010560982631543684
3.196327743279967,0.018999102710386843
3.2033681127585574,0.023470069883291155
3.2104084822371477,0.0268716183616129
3.2174488517157376,0.029826156959175773
3.2244892211943283,0.02840010034970143
3.2315295906729187,0.019483087244555004
3.238569960151509,0.006203999048119808
3.245610329630099,-0.003804503088850676
3.252650699108689,-0.004211914300842378
3.2596910685872795,0.005538573736512491
3.26673143806587,0.02151478187205272
3.2737718075444597,0.04137908365291904
3.28081217702305,0.06234783108599028
3.2878525465016404,0.07410211368568939
3.2948929159802307,0.06735421578933615
3.3019332854588206,0.046772947043127615
3.308973654937411,0.024000149028793508
3.3160140244160012,0.0047877415134476775
3.3230543938945916,-0.010016640095257325
3.330094763373182,-0.018584610109868182
3.3371351328517718,-0.0186428570661629
3.344175502330362,-0.00993581925116632
3.3512158718089524,0.006191000200803987
3.3582562412875427,0.026330232941216936
3.3652966107661326,0.043960282599405175
3.372336980244723,0.052641895353498426
3.3793773497233133,0.051025205137713504
3.386417719201904,0.04436508670725937
3.393458088680494,0.03956670767111596
3.4004984581590842,0.03678774689074971
3.4075388276376746,0.029485533889140093
3.414579197116265,0.014405834753169379
3.4216195665948548,-0.003692304553250589
3.428659936073445,-0.01834453618183639
3.4357003055520354,-0.02687284442343662
3.4427406750306258,-0.029250325104698452
3.4497810445092156,-0.026865316476333678
3.456821413987806,-0.021908843228047058
3.4638617834663963,-0.015390531556386132
3.4709021529449866,-0.0073189133446352125
3.4779425224235765,0.0022083571137791027
3.484982891902167,0.01168307961516528
3.492023261380757,0.01622849948607614
3.4990636308593475,0.012436960865665633
3.5061040003379373,0.004093833439014361
3.5131443698165277,-0.0030799576987444012
3.520184739295118,-0.008832457161310231
3.5272251087737083,-0.020137120027577983
3.534265478252298,-0.04852701659871083
3.541305847730889,-0.09488507109943209
3.5483462172094793,-0.13222854532842632
3.5553865866880696,-0.12678064171885578
3.5624269561666595,-0.07990472204536225
3.56946732564525,-0.02486363759876501
3.57650769512384,0.009517718922390624
3.5835480646024305,0.015289564659010402
3.5905884340810204,0.0006250130064144321
3.5976288035596107,-0.018985614557797625
3.604669173038201,-0.030001532405789576
3.6117095425167913,-0.027928230776745958
3.6187499119953817,-0.01739305355941183
3.6257902814739715,-0.005871760337822103
3.632830650952562,0.0025498817200935897
3.639871020431152,0.008191233583743343
3.6469113899097425,0.013402416182345969
3.6539517593883324,0.019642372583263706
3.6609921288669227,0.024178399264863107
3.668032498345513,0.022556221036238607
3.6750728678241034,0.015373055020664767
3.6821132373026932,0.008438417294461164
3.6891536067812836,0.008394168728870121
3.6961939762598743,0.017621773712509545
3.7032343457384647,0.030133828106155454
3.7102747152170545,0.037572387197398784
3.717315084695645,0.03917408330580557
3.724355454174235,0.04165243630729174
3.7313958236528255,0.05210124368209434
3.7384361931314154,0.06728462244471681
3.7454765626100057,0.07053953155252689
3.752516932088596,0.053003593398955
3.7595573015671864,0.02835010727265008
3.7665976710457763,0.012181629530358045
3.7736380405243666,0.005070992891033074
3.780678410002957,0.0019281835993022805
3.7877187794815472,-0.000551163023981226
3.794759148960137,-0.005637609627515649
3.8017995184387274,-0.01388165281323969
3.8088398879173178,-0.02161860572891453
3.815880257395908,-0.02711957896152564
3.822920626874498,-0.03133673900015485
3.8299609963530883,-0.032196107608119626
3.8370013658316786,-0.02689883324054153
3.844041735310269,-0.01659611413726731
3.8510821047888593,-0.0035555812565957875
3.8581224742674496,0.009481309468228396
3.86516284374604,0.01734874843186152
3.8722032132246302,0.01743160539115865
3.87924358270322,0.013379732049365814
3.8862839521818104,0.010999953565133655
3.8933243216604008,0.013738743512906743
3.900364691138991,0.019651922500623236
3.9074050606175814,0.021176209928949582
3.9144454300961713,0.01250806970694009
3.921485799574762,-0.002824632042282774
3.928526169053352,-0.01554473298148741
3.935566538531942,-0.01960813163831584
3.9426069080105326,-0.014748132947305082
3.9496472774891225,-0.00523018160484079
3.9566876469677124,0.0008139293108856806
3.963728016446303,-0.0021986929497942323
3.970768385924893,-0.010491548221985558
3.9778087554034838,-0.01535861042554537
3.9848491248820737,-0.009029343414645338
3.9918894943606635,0.014972174924077033
3.9989298638392543,0.05713725880522827
4.005970233317845,0.10185833494105018
4.0130106027964345,0.11925593379110054
4.020050972275025,0.09324426099894956
4.027091341753615,0.04245958645695082
4.034131711232206,-0.0016535381805719875
4.041172080710796,-0.02430772793678201
4.048212450189386,-0.028549162224984218
4.0552528196679765,-0.022662150620675475
4.062293189146566,-0.011924635820820862
4.069333558625156,-8.398572863789347e-05
4.076373928103747,0.005963528802140824
4.083414297582337,-0.0002805246256151178
4.090454667060928,-0.017484700254548978
4.0974950365395175,-0.036191362256454314
4.104535406018107,-0.04550006362918722
4.111575775496698,-0.04146587811810165
4.118616144975288,-0.02935070998104665
4.125656514453878,-0.016459738123958248
4.132696883932469,-0.00702987532277474
4.139737253411059,-0.004532198170840204
4.146777622889649,-0.011549309371960659
4.153817992368239,-0.02502583978263189
4.160858361846829,-0.03688365368338177
4.16789873132542,-0.04150950628994938
4.17493910080401,-0.039344266407101675
4.1819794702826,-0.03326178301645678
4.18901983976119,-0.024787104291331123
4.19606020923978,-0.014657015594067969
4.203100578718371,-0.0049745483920267414
4.210140948196961,0.0018422941467631888
4.217181317675551,0.005166786094997971
4.224221687154142,0.005064473974779869
4.2312620566327315,0.0005020329007535791
4.238302426111322,-0.009551642100460842
4.245342795589913,-0.023560485703137804
4.252383165068503,-0.036774338260023645
4.259423534547094,-0.04370069390170669
4.2664639040256835,-0.04228036332844715
4.273504273504273,-0.03546606936809882
4.280544642982864,-0.027505082080418564
4.287585012461454,-0.02095390490454934
4.294625381940045,-0.017756418662286326
4.301665751418635,-0.018711860001605563
4.308706120897225,-0.021841056131159935
4.315746490375815,-0.023282617232921774
4.322786859854405,-0.020524976173297124
4.329827229332995,-0.01599292881778374
4.336867598811586,-0.014810612556357308
4.343907968290176,-0.01867019195000568
4.3509483377687665,-0.024308452643890217
4.357988707247356,-0.025492400691651283
4.365029076725946,-0.016211548159215862
4.372069446204537,0.005512422108787633
4.379109815683127,0.03561459775400682
4.386150185161717,0.06307578328032012
4.393190554640308,0.07361483359856551
4.4002309241188975,0.060834538922540524
4.407271293597488,0.03372164304076075
4.414311663076078,0.010994777101799996
4.421352032554668,0.008282157288656779
4.428392402033259,0.025844325128172696
4.435432771511849,0.04570406407325209
4.4424731409904386,0.04944447567560906
4.449513510469029,0.037525067407642006
4.456553879947619,0.022884045616453186
4.46359424942621,0.015245935515217331
4.4706346189048,0.015659465681716275
4.47767498838339,0.017443766085261523
4.4847153578619805,0.01482981168060775
4.49175572734057,0.010795286286843252
4.49879609681916,0.01069573791152835
4.505836466297751,0.012724481252581103
4.512876835776341,0.00881745002816993
4.519917205254932,-0.004658828521161517
4.526957574733522,-0.020007512546769232
4.533997944212111,-0.02677351276256015
4.541038313690702,-0.02182204653831609
4.548078683169292,-0.0088994629073221
4.555119052647883,0.005393203403849306
4.562159422126474,0.014617669519347624
4.5691997916050635,0.014115994256244444
4.576240161083654,0.004280304499800073
4.583280530562244,-0.005790920718570908
4.590320900040834,-0.0024431840115393616
4.597361269519425,0.021794457988315034
4.604401638998015,0.05701873035352413
4.6114420084766055,0.0770777645375094
4.618482377955195,0.06511484744043375
4.625522747433785,0.03200823958945592
4.632563116912376,-0.0034912674740317003
4.639603486390966,-0.0365065437447757
4.646643855869556,-0.06643269197689183
4.6536842253481465,-0.08372425528459664
4.660724594826736,-0.0815345109925358
4.667764964305327,-0.0683785196108899
4.674805333783917,-0.05424100569899816
4.681845703262507,-0.03693651590490891
4.688886072741098,-0.012096406654683754
4.695926442219688,0.016142451800548477
4.7029668116982775,0.038858411442928384
4.710007181176868,0.0470667448808051
4.717047550655458,0.03442898673960867
4.724087920134049,0.005323634093465402
4.731128289612639,-0.024942618402197313
4.738168659091229,-0.04359829621867545
4.745209028569819,-0.04761446139316984
4.752249398048409,-0.037881029095588666
4.759289767526999,-0.012171725492132364
4.76633013700559,0.03299617387347314
4.77337050648418,0.08958539793860554
4.780410875962771,0.13312040975018563
4.7874512454413605,0.142842446686121
4.79449161491995,0.12043892854961191
4.801531984398541,0.08202978769286226
4.808572353877131,0.04209734625242933
4.815612723355722,0.008050251193071331
4.822653092834312,-0.018027578801850477
4.8296934623129015,-0.03594945442765898
4.836733831791492,-0.04249852150106152
4.843774201270082,-0.029499735670323896
4.850814570748672,0.01169609783066674
4.857854940227263,0.08179178423758268
4.864895309705853,0.15778933339429213
4.8719356791844435,0.19257201497312634
4.878976048663034,0.16037549514349544
4.886016418141624,0.09029775683095774
4.893056787620215,0.028913959600855584
4.900097157098805,-0.005521739802696242
4.907137526577395,-0.020307986276413528
4.914177896055985,-0.025357500870147452
4.921218265534575,-0.02249373078549101
4.928258635013166,-0.01034049801012095
4.935299004491756,0.006665307550757635
4.942339373970346,0.01791411417689472
4.949379743448937,0.01764584820655813
4.9564201129275265,0.011607567439069327
4.963460482406116,0.007430539044486301
4.970500851884707,0.005350284694357718
4.977541221363297,0.0018703938950295068
4.984581590841888,-0.003727956551778016
4.991621960320478,-0.008521571866520429
4.9986623297990675,-0.009468718977402764
5.005702699277658,-0.008085728411474587
5.012743068756248,-0.012399876130768329
5.019783438234838,-0.0334678425799003
5.026823807713429,-0.07795067733144337
5.033864177192019,-0.1368114625715446
5.0409045466706095,-0.1816946587695997
5.047944916149199,-0.1862836679531711
5.054985285627789,-0.15059285527889119
5.06202565510638,-0.09903201368208925
5.06906602458497,-0.06179084450746438
5.07610639406356,-0.05268192432636161
5.083146763542151,-0.058236255705939925
5.09018713302074,-0.056762946610221604
5.097227502499331,-0.04405065099029881
5.104267871977921,-0.030321313381757125
5.111308241456511,-0.02318049411305215
5.118348610935102,-0.02229518062024422
5.125388980413692,-0.023611141986258202
5.132429349892282,-0.02507392420519788
5.139469719370872,-0.028160599985908304
5.146510088849462,-0.03489538627147139
5.153550458328053,-0.04522810029604678
5.160590827806643,-0.055789973494509565
5.167631197285233,-0.059581713682660103
5.1746715667638234,-0.04650335695929485
5.181711936242413,-0.00514346497402363
5.188752305721004,0.06963891975171911
5.195792675199595,0.15778743893393932
5.202833044678185,0.20935356669803065
5.2098734141567755,0.1895825691028886
5.216913783635365,0.1191774755671527
5.223954153113955,0.045329572558476625
5.230994522592546,-0.003700152603287583
5.238034892071136,-0.02657940760048517
5.245075261549727,-0.03509636710314036
5.252115631028317,-0.0391985670810198
5.2591560005069065,-0.03927832811144444
5.266196369985497,-0.027095039505420623
5.273236739464087,0.007429226600854976
5.280277108942677,0.06658596972177806
5.287317478421268,0.13032103741557602
5.294357847899858,0.15568421529203497
5.301398217378448,0.11964797618328804
5.308438586857038,0.05151150466481526
5.315478956335628,-0.0037175498314640613
5.322519325814219,-0.027976145203780847
5.329559695292809,-0.02713079294757542
5.336600064771399,-0.015004431575184654
5.3436404342499895,-0.003839760938384996
5.350680803728579,0.00012924942775600348
5.35772117320717,-0.005162404119976182
5.36476154268576,-0.018709883055146537
5.37180191216435,-0.03762095420408946
5.378842281642941,-0.060856853775117487
5.3858826511215305,-0.08199303208400506
5.39292302060012,-0.07999396072625328
5.399963390078711,-0.03667959042857569
5.407003759557301,0.033757681774569295
5.414044129035892,0.08771504426452409
5.421084498514482,0.09355565554753005
5.428124867993072,0.060621701710257214
5.435165237471662,0.02063397300508081
5.442205606950252,-0.004938711250878553
5.449245976428843,-0.014997318645765942
5.456286345907433,-0.01841945556177772
5.463326715386023,-0.020074542537101052
5.4703670848646135,-0.018905648147614914
5.477407454343203,-0.014182617646368169
5.484447823821793,-0.008517281304087715
5.491488193300384,-0.006378983197664074
5.498528562778974,-0.009373810444777905
5.505568932257566,-0.012761894722456714
5.5126093017361555,-0.008560386870525311
5.519649671214745,0.005562580712864569
5.526690040693336,0.02120208457190637
5.533730410171926,0.029302504382551185
5.540770779650516,0.031747862304683086
5.547811149129107,0.03201129618996458
5.5548515186076965,0.02381364375734885
5.561891888086287,0.003678724117381195
5.568932257564877,-0.017646641212082266
5.575972627043467,-0.029239894867846263
5.583012996522058,-0.03359952667103127
5.590053366000648,-0.040755027861094646
5.597093735479238,-0.056753834963445805
5.604134104957828,-0.07555437512365021
5.611174474436418,-0.08059103816961878
5.618214843915009,-0.06245409382834738
5.625255213393599,-0.03297674123284391
5.632295582872189,-0.011999725988421927
5.63933595235078,-0.00616436240574952
5.646376321829369,-0.009222782025295894
5.653416691307959,-0.0131454851085292
5.66045706078655,-0.013227938817884881
5.66749743026514,-0.010797478784083527
5.674537799743731,-0.011632462688556897
5.681578169222321,-0.018374341261970926
5.6886185387009105,-0.027506643191693853
5.695658908179501,-0.033335969356686784
5.702699277658091,-0.032326451866558324
5.709739647136682,-0.025891261568314325
5.716780016615272,-0.020031583508984332
5.723820386093862,-0.018965650776910127
5.7308607555724524,-0.01937196583859645
5.737901125051042,-0.014423294555313625
5.744941494529632,-0.002048941845522091
5.751981864008223,0.012098540307543896
5.759022233486813,0.01923743626240461
5.766062602965404,0.0172376040460979
5.7731029724439935,0.012156081658626538
5.780143341922583,0.008082074436702245
5.787183711401174,0.0034977137712494445
5.794224080879764,-0.00346017091357949
5.801264450358354,-0.011798342702526896
5.808304819836945,-0.018150598674937138
5.815345189315535,-0.01966072473633574
5.822385558794126,-0.014411933984389218
5.829425928272716,-0.00048189215180741716
5.836466297751306,0.018642117028595584
5.843506667229897,0.030758227308238212
5.850547036708487,0.02629632034749418
5.8575874061870765,0.009936335307360381
5.864627775665667,-0.006196606636730145
5.871668145144257,-0.014962604419327704
5.878708514622848,-0.01481616261184931
5.885748884101438,-0.004560724267054005
5.892789253580028,0.016699153604075735
5.8998296230586185,0.043109800020209546
5.906869992537208,0.06025771209668693
5.913910362015798,0.059956303320085454
5.920950731494389,0.0521663908160537
5.927991100972979,0.050370672351717986
5.93503147045157,0.054434817443125685
5.9420718399301595,0.05692502120026705
5.949112209408749,0.05398627155351365
5.95615257888734,0.043355428692169476
5.96319294836593,0.023437667362115427
5.97023331784452,-0.0014358128612133644
5.977273687323111,-0.022071285139505615
5.984314056801701,-0.0313588209901815
5.991354426280291,-0.0289032948396691
5.998394795758881,-0.019595354520429355
6.005435165237471,-0.008230543280401535
6.012475534716062,0.001811389026298231
6.019515904194652,0.006303019346248644
6.0265562736732425,0.0022189114746758954
6.033596643151832,-0.008999666058309383
6.040637012630422,-0.02284581298702962
6.047677382109013,-0.03411610746861216
6.054717751587603,-0.03836453984462207
6.061758121066193,-0.03384008218529691
6.068798490544784,-0.021323481367505445
6.0758388600233735,-0.003028616415968115
6.082879229501964,0.014355797509330005
6.089919598980554,0.019703013014919696
6.096959968459144,0.00885179016120341
6.104000337937735,-0.00943357039405387
6.111040707416325,-0.024167725481275985
6.1180810768949145,-0.02993112627635324
6.125121446373505,-0.025251435826917586
6.132161815852096,-0.011734692919365046
6.139202185330687,0.006790529075401828
6.146242554809277,0.025170434127062255
6.153282924287867,0.03883451339207921
6.160323293766457,0.04522047502094837
6.167363663245047,0.0419217574378037
6.174404032723637,0.03136998417638164
6.181444402202228,0.025153845723117702
6.188484771680818,0.030493918986436854
6.1955251411594086,0.03643272442666704
6.202565510637998,0.02627836317961624
6.209605880116588,-0.002028477688348825
6.216646249595179,-0.038207847558585493
6.223686619073769,-0.07133459521708244
6.230726988552359,-0.09054586357167385
6.23776735803095,-0.08149292477586034
6.2448077275095395,-0.029490539014312037
6.25184809698813,0.06547112530504112
6.25888846646672,0.17102575739379855
6.26592883594531,0.2302266766836042
6.272969205423901,0.2082789448752356
6.280009574902491,0.12845741223258542
6.287049944381081,0.04377926645218316
6.294090313859671,-0.012288313545961615
6.301130683338261,-0.03537666505091405
6.308171052816852,-0.03504081842918598
6.315211422295442,-0.023825001345511826
6.322251791774032,-0.011379276208490993
6.3292921612526225,-0.0014946549635914798
6.336332530731212,0.007261891219388748
6.343372900209803,0.016694142658854806
6.350413269688393,0.02331678819115204
6.357453639166983,0.021259181260700248
6.364494008645574,0.010498463026848776
6.371534378124164,-0.0026420143209693703
6.3785747476027534,-0.012848164319118185
6.385615117081344,-0.019950322695832176
6.392655486559934,-0.025473248321177956
6.399695856038525,-0.02925447750726214
6.406736225517115,-0.030699075151857994
6.413776594995705,-0.03008435293277132
6.420816964474295,-0.027463625171417063
6.427857333952885,-0.022092057404170688
6.434897703431475,-0.014862532493494073
6.441938072910066,-0.011464616583594751
6.448978442388657,-0.02035512773608664
6.4560188118672475,-0.04448116493090365
6.463059181345837,-0.0740297253165409
6.470099550824427,-0.09187032797128489
6.477139920303018,-0.09319259609535928
6.484180289781608,-0.09148787542484677
6.491220659260198,-0.09401406910612584
6.4982610287387885,-0.08721651533659759
6.505301398217378,-0.06040087246103999
6.512341767695969,-0.024678760566022282
6.519382137174559,0.003954737019227991
6.526422506653149,0.022636879430566467
6.53346287613174,0.03520301247504007
6.54050324561033,0.040689412361212464
6.5475436150889195,0.03467720864102268
6.55458398456751,0.01802079414232316
6.5616243540461,-0.0008361292716896271
6.568664723524691,-0.012091879798236999
6.575705093003281,-0.011433203410436939
6.582745462481871,-0.0027268863348955167
6.589785831960461,0.006277901310184063
6.596826201439051,0.011801341383004586
6.603866570917641,0.014436845187186447
6.610906940396232,0.013971238960470275
6.617947309874822,0.009159075106593232
6.624987679353413,-0.00015731593700942697
6.6320280488320025,-0.01254702543821564
6.639068418310592,-0.02420442216911756
6.646108787789183,-0.031038658589130123
6.653149157267773,-0.03311017733593624
6.660189526746364,-0.03331275478108968
6.667229896224954,-0.03219077654227585
6.6742702657035435,-0.028078221008350047
6.681310635182134,-0.020328427672544457
6.688351004660724,-0.010771011184545784
6.695391374139314,-0.004076395554949064
6.702431743617905,-0.00499063045291916
6.709472113096495,-0.013176922194520544
6.7165124825750855,-0.022891470807721158
6.723552852053675,-0.02929220337301299
6.730593221532265,-0.031122318230150138
6.737633591010856,-0.02518839927463876
6.744673960489446,-0.005998352438350173
6.751714329968036,0.022899466385883804
6.7587546994466265,0.0458043814884573
6.765795068925217,0.053676331145621224
6.772835438403808,0.05663992419118576
6.779875807882398,0.06631108049391596
6.786916177360988,0.07584683508122213
6.793956546839579,0.06912833567044985
6.8009969163181685,0.043417297184868774
6.808037285796758,0.012103945308035928
6.815077655275349,-0.010054053754038363
6.822118024753939,-0.017350019089686298
6.82915839423253,-0.014789222515337928
6.83619876371112,-0.011366439431280236
6.8432391331897096,-0.011302560755415983
6.8502795026683,-0.013958606899259665
6.85731987214689,-0.01714793935133175
6.86436024162548,-0.018533804629930515
6.871400611104071,-0.018417813324629616
6.878440980582661,-0.019842760251024966
6.8854813500612515,-0.02270843178999194
6.892521719539841,-0.02159961009838342
6.899562089018431,-0.01343991629831174
6.906602458497022,-0.003441874626775315
6.913642827975612,0.00034902928463057415
6.920683197454203,-0.0031937755517295425
6.927723566932793,-0.0024502446235079396
6.9347639364113824,0.023090414063368155
6.941804305889973,0.08544454570128632
6.948844675368563,0.16497263817547528
6.955885044847153,0.21036492116218225
6.962925414325744,0.18728034379408334
6.969965783804334,0.11793026979583596
6.977006153282924,0.04877332035453563
6.984046522761514,0.004849774168078578
6.991086892240104,-0.013431655438351798
6.998127261718695,-0.014828582984654021
7.005167631197285,-0.006180022241373381
7.012208000675875,0.009179890182733496
7.0192483701544655,0.02673666992870835
7.026288739633055,0.03716158258419511
7.033329109111646,0.027335723526767556
7.040369478590236,-0.0068028853753270965
7.047409848068826,-0.04525028157128151
7.054450217547417,-0.06319602895510724
7.0614905870260065,-0.06271881168605754
7.068530956504596,-0.05726815493558096
7.075571325983187,-0.0455332124284555
7.082611695461778,-0.02544208589649987
7.089652064940369,-0.006252077361746293
7.096692434418959,0.005572033388018044
7.1037328038975485,0.013048532192487267
7.110773173376139,0.01984994833198563
7.117813542854729,0.023116546385276073
7.124853912333319,0.017291588339435553
7.13189428181191,0.004062013162611391
7.1389346512905,-0.008380411692180446
7.14597502076909,-0.015301296954553612
7.15301539024768,-0.01773562910494349
7.16005575972627,-0.017344078872791158
7.167096129204861,-0.01455175726779465
7.174136498683451,-0.011332724586777244
7.181176868162041,-0.011445766705968901
7.1882172376406315,-0.01566350666477739
7.195257607119221,-0.020320967886576353
7.202297976597812,-0.0215983677710531
7.209338346076402,-0.017692647657755443
7.216378715554992,-0.008333878603737743
7.223419085033583,0.004328182381049685
7.2304594545121725,0.015158399761950684
7.237499823990763,0.019588640421337015
7.244540193469353,0.01778659969934919
7.251580562947943,0.011213971657006048
7.258620932426534,-0.0028833755536562746
7.265661301905124,-0.02485550868633195
7.272701671383714,-0.042727350767416364
7.279742040862304,-0.04264924414342676
7.286782410340894,-0.027444861704847605
7.293822779819485,-0.01117095713079848
7.300863149298075,-0.0021202942705272976
7.307903518776665,-0.0027173243536331585
7.3149438882552555,-0.016186547997129
7.321984257733845,-0.04387752010787186
7.329024627212435,-0.07771114155716105
7.336064996691026,-0.09858302830255533
7.343105366169616,-0.09237512457066592
7.350145735648207,-0.06732449320856015
7.357186105126797,-0.0438355745893028
7.3642264746053865,-0.033255168422680025
7.371266844083977,-0.03290051294362628
7.378307213562567,-0.03350331019758508
7.385347583041158,-0.02803042575254721
7.392387952519749,-0.01637941400051399
7.3994283219983386,-0.004911127072421764
7.406468691476929,-0.0009828401314597441
7.413509060955519,-0.005573594019396732
7.420549430434109,-0.013075587517615846
7.4275897999127,-0.01750394903175546
7.43463016939129,-0.015623002045922478
7.44167053886988,-0.007494293613026855
7.44871090834847,0.0023788196921803086
7.45575127782706,0.00756766958868873
7.462791647305651,0.005154057646482742
7.469832016784241,-0.0025128305704446496
7.476872386262831,-0.009763536666594897
7.483912755741422,-0.011767180871894413
7.490953125220011,-0.008253742970038589
7.497993494698601,-0.0019466158578136047
7.505033864177192,0.003840879592399815
7.512074233655782,0.006597162392426643
7.519114603134373,0.008375153101744274
7.526154972612963,0.01491527379503914
7.5331953420915525,0.02910616172086953
7.540235711570143,0.04792113526136319
7.547276081048733,0.06399254714254546
7.554316450527324,0.07149750133503366
7.561356820005914,0.07003173984410083
7.568397189484504,0.05844991743734449
7.5754375589630945,0.03263431358255465
7.582477928441684,-0.00624356168796323
7.589518297920274,-0.04519553711446595
7.596558667398865,-0.06348910751479277
7.603599036877455,-0.052466403149286904
7.610639406356046,-0.0251064079927707
7.6176797758346355,0.007150278708959574
7.624720145313225,0.049978957723459734
7.631760514791816,0.10773300902496784
7.638800884270406,0.15897420071077387
7.645841253748996,0.15842495917214966
7.652881623227587,0.08085592021333413
7.659921992706177,-0.03791490212348154
7.666962362184767,-0.12715109782413933
7.674002731663357,-0.1456280349528598
7.681043101141947,-0.10508470012340092
7.688083470620538,-0.03941075413747761
7.695123840099128,0.02461694232891074
7.7021642095777185,0.0685450713030018
7.709204579056309,0.08238473883800786
7.716244948534899,0.06975981387985253
7.72328531801349,0.043574580069495446
7.73032568749208,0.016139586323362345
7.73736605697067,-0.005293392102067881
7.7444064264492605,-0.01565864538750499
7.75144679592785,-0.011140257829044565
7.75848716540644,0.007475407910357723
7.765527534885031,0.03509450465008395
7.772567904363621,0.061391931960538555
7.779608273842212,0.06984891709080064
7.7866486433208015,0.05114333007825928
7.793689012799391,0.014635026688297748
7.800729382277982,-0.021998835303074015
7.807769751756572,-0.04612580450057452
7.814810121235163,-0.05429240963059127
7.821850490713753,-0.05250703911434329
7.828890860192343,-0.0489197925136842
7.8359312296709325,-0.0449781869691298
7.842971599149524,-0.03811809647407569
7.850011968628114,-0.02839362688244812
7.857052338106704,-0.018561084754405315
7.864092707585294,-0.011902902933150493
7.871133077063884,-0.010354277893725153
7.8781734465424735,-0.012442401693731195
7.885213816021065,-0.014307001473022954
7.892254185499655,-0.013758652716429835
7.899294554978245,-0.012817842743079648
7.906334924456835,-0.01662942879502189
7.913375293935425,-0.02897827042200808
7.920415663414016,-0.04538873037445003
7.927456032892606,-0.052673229844320005
7.934496402371196,-0.042815762261158324
7.941536771849786,-0.02341738522442058
7.948577141328376,-0.006451189720380156
7.9556175108069676,0.004466797194301421
7.962657880285557,0.009916257001845254
7.969698249764147,0.00919213110804765
7.976738619242737,0.0033389408416288294
7.983778988721327,-0.003237395839415477
7.990819358199917,-0.006187201879117064
7.997859727678509,-0.004318966925106859
8.0049000971571,0.000933309797358747
8.01194046663569,0.008649728327819956
8.01898083611428,0.0188403687543209
8.026021205592869,0.02844509022068504
8.03306157507146,0.02985069539004343
8.04010194455005,0.01830706396379107
8.04714231402864,0.000838913306672932
8.05418268350723,-0.007052964140090176
8.06122305298582,0.005747812238839834
8.068263422464412,0.0353722775766608
8.075303791943002,0.06414643669049586
8.082344161421592,0.07722177702814705
8.089384530900182,0.07331908737002446
8.096424900378771,0.05528362490135849
8.103465269857361,0.025073961162699752
8.110505639335953,-0.009621253635999461
8.117546008814543,-0.0381644523322304
8.124586378293133,-0.05572868694020794
8.131626747771723,-0.0624914629803757
8.138667117250312,-0.05941843929971748
8.145707486728904,-0.04913096121501878
8.152747856207494,-0.036113652284049766
8.159788225686084,-0.024328982668319767
8.166828595164674,-0.015710073768359763
8.173868964643264,-0.010631927683507934
8.180909334121855,-0.009434016015118323
8.187949703600445,-0.010902060180832451
8.194990073079035,-0.011502453925651293
8.202030442557625,-0.010009392119027054
8.209070812036215,-0.008354634361034445
8.216111181514806,-0.006629337730723651
8.223151550993396,-0.0017776337212057295
8.230191920471986,0.00932498164041311
8.237232289950576,0.027047526470623383
8.244272659429166,0.046648436740744446
8.251313028907756,0.059205729246453995
8.258353398386348,0.06032315728531698
8.265393767864937,0.0535164948109252
8.272434137343527,0.04097061001849396
8.279474506822117,0.02384608791175064
8.286514876300707,0.009965001302648326
8.293555245779299,0.006725426727003042
8.300595615257889,0.013954838573361421
8.307635984736478,0.02924309940347541
8.314676354215068,0.04831041546894028
8.321716723693658,0.06092573762309421
8.32875709317225,0.058202939161978294
8.33579746265084,0.04223760318782602
8.34283783212943,0.02197783785672496
8.34987820160802,0.0030015606359972565
8.35691857108661,-0.012567650775084614
8.3639589405652,-0.01948927037033267
8.370999310043791,-0.012931916534890276
8.37803967952238,0.0029286663090417413
8.38508004900097,0.01837378826936765
8.39212041847956,0.02782141921446317
8.39916078795815,0.031918641601008296
8.406201157436742,0.031864026780429856
8.413241526915332,0.02424207482781208
8.420281896393922,0.0031089514093400245
8.427322265872512,-0.0321478894248385
8.434362635351102,-0.06902767345348614
8.441403004829693,-0.08620092893976762
8.448443374308283,-0.07435614484752269
8.455483743786873,-0.04601386168866088
8.462524113265463,-0.018726678133192294
8.469564482744053,8.338074297996366e-05
8.476604852222644,0.010759076048766433
8.483645221701234,0.014664336501193365
8.490685591179826,0.010959705639754964
8.497725960658416,-0.0008705479376299942
8.504766330137006,-0.015798065356718006
8.511806699615596,-0.027098367589139895
8.518847069094187,-0.03328288477598901
8.525887438572777,-0.03534907586979645
8.532927808051367,-0.033945403425315636
8.539968177529957,-0.030310454777011882
8.547008547008547,-0.024568871551684433
8.554048916487138,-0.016819081910638533
8.561089285965728,-0.009892730427831993
8.568129655444318,-0.005159389289363854
8.575170024922908,0.0004532985712358564
8.582210394401498,0.008545894130197086
8.58925076388009,0.015708896016127627
8.59629113335868,0.016149561830215597
8.60333150283727,0.004927713403823112
8.61037187231586,-0.016227974636573904
8.61741224179445,-0.03705247625215949
8.624452611273039,-0.04832642292982432
8.63149298075163,-0.050145127785672344
8.63853335023022,-0.047196465908837915
8.64557371970881,-0.04049378760491145
8.6526140891874,-0.028342149487913287
8.65965445866599,-0.011536081519025038
8.666694828144582,0.006507311482695326
8.673735197623172,0.023077047968232324
8.680775567101762,0.03761813301722026
8.687815936580352,0.048908441528245306
8.694856306058941,0.05404016059803206
8.701896675537533,0.053520701741281866
8.708937045016123,0.05293983483835395
8.715977414494713,0.05426279371202839
8.723017783973303,0.050052746182421864
8.730058153451893,0.034286033581856334
8.737098522930484,0.013139118497513449
8.744138892409074,-0.001455284226061327
8.751179261887664,-0.0026146523220095543
8.758219631366254,0.00752726086977844
8.765260000844844,0.019638721116374325
8.772300370323434,0.02403122536008244
8.779340739802025,0.016772084951867286
8.786381109280615,0.0012282062421616123
8.793421478759205,-0.0129317970317479
8.800461848237795,-0.014028605377980365
8.807502217716385,0.004666245164881684
8.814542587194977,0.03695363180785735
8.821582956673566,0.061844355536050125
8.828623326152156,0.06110931061307098
8.835663695630746,0.03880466875415917
8.842704065109336,0.013439767487005466
8.849744434587928,-0.001527650995431952
8.856784804066518,-0.0035950059015322747
8.863825173545107,0.0024003134523880223
8.870865543023697,0.009927651531539282
8.877905912502287,0.015849402585824065
8.884946281980877,0.019268825521823563
8.891986651459469,0.017712371845966326
8.899027020938059,0.009485225484243928
8.906067390416649,-0.0032822966091726503
8.913107759895238,-0.016095407803483203
8.920148129373828,-0.0238492322791337
8.92718849885242,-0.023902878315981424
8.93422886833101,-0.01905071318005826
8.9412692378096,-0.014425537183731548
8.94830960728819,-0.011905557750899234
8.95534997676678,-0.00920384497560266
8.962390346245371,-0.003880180698188805
8.969430715723961,0.0025315864020546853
8.97647108520255,0.005053527826768179
8.98351145468114,-0.0010150669196027347
8.99055182415973,-0.01679578611779437
8.99759219363832,-0.037810972680670955
9.004632563116912,-0.05526794148797778
9.011672932595502,-0.06060685588560694
9.018713302074092,-0.05107743996570755
9.025753671552682,-0.03177880346303016
9.032794041031272,-0.010845065378217465
9.039834410509863,0.005231569603002502
9.046874779988453,0.012810455329346554
9.053915149467043,0.01320553291125259
9.060955518945633,0.012718992155860946
9.067995888424223,0.01690022221479934
9.075036257902815,0.02497238680393208
9.082076627381404,0.03142661693504015
9.089116996859994,0.03154662128103462
9.096157366338584,0.024253014750824368
9.103197735817174,0.012316896081605584
9.110238105295766,0.0007308870738024185
9.117278474774356,-0.0067089389425366575
9.124318844252947,-0.008690298952626232
9.131359213731537,-0.004822053801859666
9.138399583210127,0.0038916328340452607
9.145439952688717,0.012499826456761311
9.152480322167309,0.013277031447588274
9.159520691645898,0.0023791238145318434
9.166561061124488,-0.01517721549106009
9.173601430603078,-0.029768682730448987
9.180641800081668,-0.03613366446809394
9.18768216956026,-0.0361515394508065
9.19472253903885,-0.03375825426294305
9.20176290851744,-0.03000733869248328
9.20880327799603,-0.024210205458452805
9.21584364747462,-0.017273177358780957
9.222884016953211,-0.011932672895349713
9.2299243864318,-0.01102478806843553
9.23696475591039,-0.013489719464798223
9.24400512538898,-0.011504055442394618
9.25104549486757,0.0025976981990930904
9.25808586434616,0.02483212108618724
9.265126233824752,0.03981305489973498
9.272166603303342,0.03708647166687064
9.279206972781932,0.02252121771533308
9.286247342260522,0.008062055314575755
9.293287711739112,-0.0014528152422438078
9.300328081217703,-0.010236406578714125
9.307368450696293,-0.03046517597740502
9.314408820174883,-0.0743224554147946
9.321449189653473,-0.13261169578320212
9.328489559132063,-0.16833488332261562
9.335529928610654,-0.15395080898025054
9.342570298089244,-0.10378360574091929
9.349610667567834,-0.051151662148702745
9.356651037046424,-0.014636765013065687
9.363691406525014,0.004834021390321771
9.370731776003606,0.012922969083143963
9.377772145482195,0.013853960123655267
9.384812514960785,0.009859977061776421
9.391852884439375,0.006488521502543017
9.398893253917965,0.014772494035693657
9.405933623396555,0.04424537347464433
9.412973992875147,0.09424231102226174
9.420014362353736,0.1472724256287645
9.427054731832326,0.17038718605851255
9.434095101310916,0.1440753109355601
9.441135470789506,0.08637293685098675
9.448175840268098,0.030004042148208215
9.455216209746688,-0.006546729424476171
9.462256579225278,-0.021222007585271898
9.469296948703867,-0.022785884940707775
9.476337318182457,-0.022878183771259865
9.483377687661049,-0.026490961562183245
9.490418057139639,-0.0306797846289046
9.497458426618229,-0.030943522860442448
9.504498796096819,-0.025798084329270388
9.511539165575408,-0.01630187407512278
9.518579535053998,-0.004816652199891999
9.52561990453259,0.005936216754849056
9.53266027401118,0.015445279242037356
9.53970064348977,0.02692533418665005
9.54674101296836,0.042091044565121756
9.55378138244695,0.05313444534197635
9.560821751925541,0.04822204594583207
9.567862121404131,0.02840857579224953
9.574902490882721,0.00858121181078638
9.58194286036131,0.00017644227621350364
9.5889832298399,0.001091564102913797
9.596023599318492,-0.00031495556707933684
9.603063968797082,-0.015164013717795773
9.610104338275672,-0.04237661269393363
9.617144707754262,-0.06635395603247629
9.624185077232852,-0.07372557296249818
9.631225446711444,-0.06772084666901167
9.638265816190033,-0.05840468198980871
9.645306185668623,-0.04963544938088344
9.652346555147213,-0.040027316505996335
9.659386924625803,-0.02779444371361875
9.666427294104393,-0.014079775800658273
9.673467663582985,-0.0030783275687077992
9.680508033061574,0.0023402807576907896
9.687548402540164,0.0034354154160619642
9.694588772018754,0.0029666204746773795
9.701629141497344,0.0020102435704937097
9.708669510975936,0.0014048041266092463
9.715709880454526,0.0034605991724497723
9.722750249933116,0.010387175120178112
9.729790619411705,0.023605867043222664
9.736830988890295,0.04005519394857412
9.743871358368887,0.04663831053299885
9.750911727847477,0.029299423315009107
9.757952097326068,-0.010392752594352872
9.764992466804658,-0.05319932881838377
9.772032836283248,-0.07431061236374907
9.779073205761838,-0.0626722522600211
9.78611357524043,-0.030839973610445277
9.79315394471902,-0.0004970132340519698
9.80019431419761,0.016206632869726414
9.8072346836762,0.02087695841458307
9.81427505315479,0.020664099799587977
9.821315422633381,0.018121147884397677
9.82835579211197,0.014125452731309725
9.83539616159056,0.013777756485805873
9.84243653106915,0.019612704696768152
9.84947690054774,0.02749455711862307
9.856517270026332,0.032287522473136515
9.863557639504922,0.030569329348950226
9.870598008983512,0.021433400589372886
9.877638378462102,0.0077792706003383455
9.884678747940692,-0.005407023766902847
9.891719117419282,-0.012610114507836672
9.898759486897873,-0.009280688699937454
9.905799856376463,0.004819186829889159
9.912840225855053,0.023325716054367205
9.919880595333643,0.03528583098537577
9.926920964812233,0.032423225772507586
9.933961334290824,0.014503991867989128
9.941001703769414,-0.013008367588027907
9.948042073248004,-0.04279447724588767
9.955082442726594,-0.0652158190989714
9.962122812205184,-0.06947124744972867
9.969163181683776,-0.052845828883108556
9.976203551162365,-0.024418011788970424
9.983243920640955,0.003293008075829426
9.990284290119545,0.019438545740466173
9.997324659598135,0.019031729997125123
10.004365029076727,0.006900915351092576
10.011405398555317,-0.008953657258872484
10.018445768033907,-0.023086805638644074
10.025486137512496,-0.03179402424559102
10.032526506991086,-0.033352073636156616
10.039566876469676,-0.027646691429140467
10.046607245948268,-0.016395141147928286
10.053647615426858,-0.004347348941307327
10.060687984905448,0.0038900965382591465
10.067728354384037,0.008629464775149219
10.074768723862627,0.015077362664426476
10.081809093341219,0.027599056664847552
10.088849462819809,0.04191357405692434
10.095889832298399,0.04604469774720678
10.102930201776989,0.03471498298945469
10.109970571255579,0.017198714468801203
10.11701094073417,0.00699535817623506
10.12405131021276,0.009840131159782507
10.13109167969135,0.021694602014445202
10.13813204916994,0.03602764305461952
10.14517241864853,0.04837977596800867
10.15221278812712,0.05227412730919307
10.159253157605711,0.04355904855070374
10.166293527084301,0.028854827085498774
10.173333896562891,0.019151746844869623
10.18037426604148,0.018082813402928895
10.18741463552007,0.019459998200645624
10.194455004998662,0.0163457649481148
10.201495374477252,0.010086157713153696
10.208535743955842,0.00411753429333859
10.215576113434432,-0.005392467689556999
10.222616482913022,-0.024551513014263435
10.229656852391614,-0.05153682551520289
10.236697221870203,-0.0742581020822204
10.243737591348793,-0.07882655410254538
10.250777960827383,-0.0673501268111882
10.257818330305973,-0.06302102219072635
10.264858699784565,-0.08495131878873102
10.271899069263155,-0.1202964365500415
10.278939438741745,-0.1318730479422779
10.285979808220334,-0.10150653372988049
10.293020177698924,-0.05317857915476015
10.300060547177514,-0.018992590277130864
10.307100916656106,-0.005013500856178179
10.314141286134696,-0.0012397724516785714
10.321181655613286,-0.0010824531104409445
10.328222025091875,-0.003507685613534078
10.335262394570465,-0.007513854663131275
10.342302764049057,-0.009460552109254259
10.349343133527647,-0.005931048587215878
10.356383503006237,0.001030634154552385
10.363423872484827,0.005290726542377003
10.370464241963418,0.004315085532750798
10.377504611442008,0.0003629720489688607
10.3845449809206,-0.005641771487809272
10.39158535039919,-0.014717778788426936
10.39862571987778,-0.02395862842823234
10.40566608935637,-0.02276075575862961
10.41270645883496,0.005093535699640879
10.419746828313551,0.06883065112279943
10.426787197792141,0.14799252369980614
10.43382756727073,0.19158863008449592
10.44086793674932,0.16712411940237987
10.44790830622791,0.0980191382956477
10.454948675706502,0.029131031452695435
10.461989045185092,-0.01709828476487256
10.469029414663682,-0.039432534136145315
10.476069784142272,-0.0428815979918996
10.483110153620862,-0.03405254196228564
10.490150523099453,-0.022381448399117484
10.497190892578043,-0.017876737625746437
10.504231262056633,-0.0235997693432045
10.511271631535223,-0.034825705974166496
10.518312001013813,-0.04618767251053275
10.525352370492405,-0.05433126703148618
10.532392739970994,-0.05566172616585897
10.539433109449584,-0.046280433419649214
10.546473478928174,-0.02483761142838313
10.553513848406764,0.00199209015757874
10.560554217885354,0.019348309105586263
10.567594587363946,0.018065139161721734
10.574634956842536,0.00433663462207347
10.581675326321125,-0.010436154561340533
10.588715695799715,-0.02107420722909846
10.595756065278305,-0.028559489126520326
10.602796434756897,-0.03538104427939317
10.609836804235487,-0.042198223461804435
10.616877173714077,-0.04879476930004915
10.623917543192666,-0.05525979634181579
10.630957912671256,-0.06042521570081612
10.637998282149848,-0.062255992093113395
10.645038651628438,-0.05900451007708986
10.652079021107028,-0.04892329823912198
10.659119390585618,-0.03248754648204455
10.666159760064208,-0.015313327917787193
10.673200129542797,-0.004915324225216041
10.680240499021389,-0.0037379230453895057
10.687280868499979,-0.00933136948881708
10.694321237978569,-0.020609053482000157
10.701361607457159,-0.0373877718644661
10.708401976935749,-0.05575056955341468
10.71544234641434,-0.06995333238810349
10.72248271589293,-0.07571636978843442
10.72952308537152,-0.06778398743454747
10.73656345485011,-0.03770811511617803
10.7436038243287,0.020264520365345873
10.750644193807291,0.0967448648324315
10.757684563285881,0.16082021225963866
10.764724932764471,0.17828887364104412
10.771765302243061,0.14575450282904656
10.778805671721651,0.09327705423867452
10.78584604120024,0.048437946670914014
10.792886410678832,0.015653331568533217
10.799926780157422,-0.009433329864351692
10.806967149636012,-0.023984526567736378
10.814007519114602,-0.020843364960517845
10.821047888593192,0.0015135509649884366
10.828088258071784,0.03531102653343316
10.835128627550374,0.06877162542196051
10.842168997028963,0.09515954714782428
10.849209366507553,0.11633407482877492
10.856249735986143,0.14112659101709285
10.863290105464735,0.1695253583514248
10.870330474943325,0.17527554620101876
10.877370844421915,0.1358742573287539
10.884411213900504,0.07103361843288687
10.891451583379094,0.02095468982398694
10.898491952857686,0.008259775602676322
10.905532322336276,0.02941266903968908
10.912572691814866,0.06369357637685569
10.919613061293456,0.09416063440843034
10.926653430772046,0.12177354303050497
10.933693800250635,0.1449928877512887
10.940734169729227,0.13964039784929724
10.947774539207817,0.09288671284244132
10.954814908686407,0.03912778820364168
10.961855278164997,0.02848569727932948
10.968895647643587,0.07802829765192917
10.975936017122178,0.15646840934284897
10.982976386600768,0.20075727179002337
10.990016756079358,0.17292885339993466
10.997057125557948,0.09753469147577591
11.00409749503654,0.01890103519205273
11.011137864515131,-0.04737163859130068
11.018178233993721,-0.10729687419370129
11.025218603472311,-0.15930740100113713
11.0322589729509,-0.1826513717776589
11.03929934242949,-0.16316830544433225
11.04633971190808,-0.11867623234871008
11.053380081386672,-0.07804486781832803
11.060420450865262,-0.052086810744675666
11.067460820343852,-0.03545003014833678
11.074501189822442,-0.020740669481567987
11.081541559301032,-0.0065324745277390225
11.088581928779623,0.0028739258538554814
11.095622298258213,0.003710745805802954
11.102662667736803,-0.002675917560978158
11.109703037215393,-0.010867096880321392
11.116743406693983,-0.015176944478479983
11.123783776172575,-0.014349475052885655
11.130824145651165,-0.012003854543954112
11.137864515129754,-0.008906506804295297
11.144904884608344,-0.0005480456342378047
11.151945254086934,0.01140204477689076
11.158985623565526,0.014918000846362408
11.166025993044116,0.003120304929217237
11.173066362522706,-0.015515264169449386
11.180106732001295,-0.02854517207311957
11.187147101479885,-0.03226982235207321
11.194187470958475,-0.029563611747159338
11.201227840437067,-0.022797948880553413
11.208268209915657,-0.011541019557914329
11.215308579394247,0.006146941996040658
11.222348948872837,0.026221928104146093
11.229389318351426,0.031605444894020396
11.236429687830018,0.004826160001311682
11.243470057308608,-0.0519344330980186
11.250510426787198,-0.112876421188957
11.257550796265788,-0.1406606667249329
11.264591165744378,-0.11861978230910045
11.27163153522297,-0.07136890588713818
11.27867190470156,-0.034105538272012244
11.285712274180149,-0.018263441151345195
11.292752643658739,-0.01653723724994473
11.299793013137329,-0.018385255091889922
11.306833382615919,-0.01615608993566992
11.31387375209451,-0.008191688588532439
11.3209141215731,0.0014618988634695594
11.32795449105169,0.009513281202183387
11.33499486053028,0.017017985640577483
11.34203523000887,0.02306862312397377
11.349075599487461,0.021188244726188347
11.356115968966051,0.00800279539387099
11.363156338444641,-0.010700422561406757
11.370196707923231,-0.02613446149245735
11.377237077401821,-0.03311804125947937
11.384277446880413,-0.03160042485754672
11.391317816359003,-0.02565803001069332
11.398358185837592,-0.019455724287719797
11.405398555316182,-0.014241062277425021
11.412438924794772,-0.010136132725909254
11.419479294273364,-0.008989013189947302
11.426519663751954,-0.013167542182247617
11.433560033230544,-0.020624226507502223
11.440600402709133,-0.0236057788188989
11.447640772187723,-0.014555481413116893
11.454681141666313,0.006171072140001586
11.461721511144905,0.028281062408202252
11.468761880623495,0.039424163654297024
11.475802250102085,0.034602028074011935
11.482842619580675,0.016833016442124798
11.489882989059264,-0.00665513744415208
11.496923358537856,-0.026680791074852335
11.503963728016446,-0.03524085104991264
11.511004097495036,-0.03135574560528289
11.518044466973626,-0.022398069070464405
11.525084836452216,-0.017033440565926653
11.532125205930807,-0.0183658468305835
11.539165575409397,-0.023320018723121616
11.546205944887987,-0.026339803950268883
11.553246314366577,-0.023005035949694885
11.560286683845167,-0.010617746624984426
11.567327053323757,0.010190152523374045
11.574367422802348,0.029756928322318577
11.581407792280938,0.03235601726477336
11.588448161759528,0.01462845557888951
11.595488531238118,-0.005886329034277035
11.602528900716708,-0.006308777841840552
11.6095692701953,0.026592182765690447
11.61660963967389,0.091670280350235
11.62365000915248,0.16283203240461366
11.63069037863107,0.1919722583363851
11.63773074810966,0.1548167699581588
11.644771117588252,0.08213787895914733
11.651811487066842,0.020923365265280228
11.658851856545432,-0.009194115923795071
11.665892226024022,-0.011951366874357276
11.672932595502612,0.0022916794744520493
11.679972964981202,0.022428280256673105
11.687013334459794,0.037952896937337256
11.694053703938383,0.041241296655837055
11.701094073416973,0.03297638384394916
11.708134442895563,0.024622249268395416
11.715174812374153,0.026788265020300225
11.722215181852745,0.03430823780629889
11.729255551331335,0.03384152637315027
11.736295920809924,0.022769991758990117
11.743336290288514,0.008577653046638864
11.750376659767104,-0.003737647876752543
11.757417029245696,-0.014437510798156979
11.764457398724286,-0.023760886817189037
11.771497768202876,-0.03007636052508279
11.778538137681466,-0.03263365768777679
11.785578507160055,-0.03179794446034889
11.792618876638647,-0.027018987568804657
11.799659246117237,-0.01841847260700831
11.806699615595827,-0.009846624002662237
11.813739985074417,-0.00626983656846219
11.820780354553007,-0.008496247464272584
11.827820724031596,-0.013585940876924356
11.834861093510188,-0.018534976338632148
11.841901462988778,-0.020421226159541738
11.848941832467368,-0.015406879152811383
11.855982201945958,-0.0027964183223561953
11.863022571424548,0.011203481548521894
11.87006294090314,0.018576120387714754
11.87710331038173,0.017624325754553388
11.884143679860319,0.01238782893823753
11.891184049338909,0.0053869218153652
11.898224418817499,-0.0035202947206907317
11.90526478829609,-0.013709300020083054
11.91230515777468,-0.023307377432447828
11.91934552725327,-0.026925944872217705
11.92638589673186,-0.014941072624911258
11.93342626621045,0.01655497024406768
11.94046663568904,0.053925993096011336
11.947507005167632,0.0710344890090302
11.954547374646221,0.052384522314458
11.961587744124811,0.00660599435201309
11.968628113603401,-0.04288504301646127
11.975668483081991,-0.07155155381776152
11.982708852560583,-0.06811215296786619
11.989749222039173,-0.04314937621152155
11.996789591517762,-0.015531979650692952
12.003829960996352,0.0033884852411629664
12.010870330474942,0.009936842008727628
12.017910699953534,0.00637131344611248
12.024951069432124,6.96049954233835e-06
12.031991438910714,-0.002626376614321057
12.039031808389304,0.000529339741630376
12.046072177867893,0.010058888008783072
12.053112547346485,0.028401863237903023
12.060152916825075,0.05571519123644377
12.067193286303665,0.08304574064841923
12.074233655782255,0.09750085511217758
12.081274025260845,0.0919706334307844
12.088314394739434,0.06533616618511037
12.095354764218026,0.02355137926814462
12.102395133696616,-0.01860832760977292
12.109435503175206,-0.04672290229754037
12.116475872653796,-0.05683850971413965
12.123516242132386,-0.05376990674317818
12.130556611610977,-0.04282907895216429
12.137596981089567,-0.027706621889366952
12.144637350568157,-0.015201617570470796
12.151677720046747,-0.014593481989617626
12.158718089525337,-0.028985244463348842
12.165758459003928,-0.04958419820336082
12.172798828482518,-0.06176421101002556
12.179839197961108,-0.05949654510937837
12.186879567439698,-0.049259676586262485
12.193919936918288,-0.038238335467242424
12.200960306396878,-0.028023135412926517
12.20800067587547,-0.017955410523095936
12.21504104535406,-0.007537056505420774
12.22208141483265,0.0008679052953539561
12.22912178431124,0.0026792386248706665
12.236162153789829,-0.0017262043356194305
12.24320252326842,-0.005460896445845723
12.25024289274701,-0.004474722905453537
12.2572832622256,-0.004089181575341634
12.264323631704192,-0.014451219652818023
12.271364001182782,-0.044098201037087184
12.278404370661374,-0.0945790697696368
12.285444740139964,-0.1468780980206103
12.292485109618553,-0.16139656098500166
12.299525479097143,-0.1202826722735575
12.306565848575733,-0.05430032778409613
12.313606218054323,-0.005530508273842981
12.320646587532915,0.007211711231093562
12.327686957011505,-0.016028943628962525
12.334727326490095,-0.05927493168540725
12.341767695968684,-0.09093291909262756
12.348808065447274,-0.08775796382115791
12.355848434925866,-0.05676704172919813
12.362888804404456,-0.02055075672132816
12.369929173883046,0.005985860789390807
12.376969543361636,0.018974025972306637
12.384009912840225,0.021453556390474436
12.391050282318817,0.019168381111914077
12.398090651797407,0.014136209704755756
12.405131021275997,0.001951679986833414
12.412171390754587,-0.02299114806980857
12.419211760233177,-0.060168369399540546
12.426252129711768,-0.09501337655973074
12.433292499190358,-0.09858784520274322
12.440332868668948,-0.0539806588677048
12.447373238147538,0.018785314859556604
12.454413607626128,0.0808443993239055
12.461453977104718,0.10657525295193009
12.46849434658331,0.0954708253852311
12.4755347160619,0.06707042905562807
12.48257508554049,0.04204842606987321
12.489615455019079,0.025884460511885442
12.496655824497669,0.012762489207849368
12.50369619397626,-0.001464098150711037
12.51073656345485,-0.015092734791045639
12.51777693293344,-0.02413529741997677
12.52481730241203,-0.02436029080630363
12.53185767189062,-0.012947744973807036
12.538898041369212,0.007726643159074283
12.545938410847802,0.028310508626098935
12.552978780326391,0.036508543177282644
12.560019149804981,0.02742395022322363
12.567059519283571,0.009275875797703411
12.574099888762161,-0.005571811864075733
12.581140258240753,-0.011600578498410143
12.588180627719343,-0.01089449814873438
12.595220997197933,-0.009311151340728156
12.602261366676522,-0.012910330167621822
12.609301736155112,-0.022728618764408487
12.616342105633704,-0.031841825314492665
12.623382475112294,-0.031340222438783275
12.630422844590884,-0.019472843126114785
12.637463214069474,-0.005864087752630124
12.644503583548063,-0.004932240526761719
12.651543953026655,-0.018561467716025196
12.658584322505245,-0.03208163273964308
12.665624691983835,-0.03246920338956252
12.672665061462425,-0.020264352269377485
12.679705430941015,-0.004169018450929971
12.686745800419606,0.00712028426540047
12.693786169898196,0.009488500929408832
12.700826539376786,0.004466630154988704
12.707866908855376,-0.0037437567028343484
12.714907278333966,-0.012006405448363655
12.721947647812556,-0.019596009489744014
12.728988017291147,-0.02732544494225239
12.736028386769737,-0.03458849823807768
12.743068756248327,-0.03789218789292292
12.750109125726917,-0.035052989534344756
12.757149495205507,-0.02794938974272007
12.764189864684099,-0.018518673077473468
12.771230234162688,-0.007302850060590319
12.778270603641278,0.003526054398695928
12.785310973119868,0.01075396530063278
12.792351342598458,0.012717214894009716
12.79939171207705,0.009845391793791267
12.80643208155564,0.004494809333749857
12.81347245103423,0.0007238929681540533
12.82051282051282,0.002693116217307449
12.82755318999141,0.010411800995523907
12.83459355947,0.017707729802934814
12.84163392894859,0.018451020170214612
12.84867429842718,0.013730106444068545
12.85571466790577,0.009265026481307783
12.86275503738436,0.008783527715224632
12.86979540686295,0.012922076521810946
12.876835776341542,0.020020612223331145
12.883876145820132,0.025978783497670604
12.890916515298724,0.026657939761852153
12.897956884777313,0.021161469323673125
12.904997254255903,0.012146999490311224
12.912037623734495,0.004250702086545502
12.919077993213085,0.0030724971536104473
12.926118362691675,0.013052616793917964
12.933158732170265,0.032848386977315444
12.940199101648854,0.05149158818659728
12.947239471127446,0.05317641838924292
12.954279840606036,0.03401138044411606
12.961320210084626,0.009375830366787661
12.968360579563216,-0.00374925438434674
12.975400949041806,-0.002978719117399685
12.982441318520396,0.0039030475412210374
12.989481687998987,0.008865179580535227
12.996522057477577,0.008708960018674942
13.003562426956167,0.005761924698268726
13.010602796434757,0.0037663749051488754
13.017643165913347,0.0037780420769407542
13.024683535391938,0.004692209538442936
13.031723904870528,0.005853358263230255
13.038764274349118,0.007598263929813682
13.045804643827708,0.0090781345257708
13.052845013306298,0.006931047826821594
13.05988538278489,-0.0013496791910889495
13.06692575226348,-0.011969456395882441
13.07396612174207,-0.015149926935057711
13.08100649122066,-0.0027089966895027795
13.088046860699249,0.02285288906428592
13.095087230177839,0.04693238519663171
13.10212759965643,0.055201049476567746
13.10916796913502,0.04652978688708994
13.11620833861361,0.029016311926717494
13.1232487080922,0.00966569223179842
13.13028907757079,-0.0048773869089386735
13.137329447049382,-0.007918775868297858
13.144369816527972,-0.0006190139349333032
13.151410186006562,0.007573669332914406
13.158450555485151,0.00852511253036526
13.165490924963741,0.0035184984390967
13.172531294442333,0.0005272182581460118
13.179571663920923,0.0020079093670287516
13.186612033399513,0.001151551562678894
13.193652402878103,-0.007558134174149304
13.200692772356692,-0.01990165779782681
13.207733141835282,-0.02453191788038623
13.214773511313874,-0.00945154585228184
13.221813880792464,0.03285206587525735
13.228854250271054,0.0991223659254902
13.235894619749644,0.16599893940037924
13.242934989228234,0.19360267881445048
13.249975358706825,0.15950781218036508
13.257015728185415,0.08173760892258712
13.264056097664005,-0.009111833977954202
13.271096467142595,-0.09854375386236731
13.278136836621185,-0.17691558297515914
13.285177206099776,-0.22123224015091833
13.292217575578366,-0.20743264519108218
13.299257945056956,-0.14383122564006723
13.306298314535546,-0.0700248904342513
13.313338684014136,-0.014934458430752619
13.320379053492728,0.019644996166134857
13.327419422971317,0.03810412584509816
13.334459792449907,0.03860276474700612
13.341500161928497,0.02196946472185876
13.348540531407087,-0.00047763619731006415
13.355580900885677,-0.014756515886457877
13.362621270364269,-0.01621710463732375
13.369661639842858,-0.011901872286514818
13.376702009321448,-0.012237051148182018
13.383742378800038,-0.020319721603347957
13.390782748278628,-0.03178800707896838
13.39782311775722,-0.04244289816546039
13.40486348723581,-0.04929958551143241
13.4119038567144,-0.04693987947438109
13.41894422619299,-0.028830465558286337
13.42598459567158,0.008018733727985169
13.433024965150171,0.057079747997304774
13.44006533462876,0.09767423268091696
13.44710570410735,0.1066215607846229
13.45414607358594,0.08193352863190498
13.46118644306453,0.043517648617838675
13.46822681254312,0.010354818247435239
13.475267182021712,-0.008884964807769898
13.482307551500302,-0.012549821236967289
13.489347920978892,-0.007488828097301379
13.496388290457482,-0.002231881670346686
13.503428659936072,0.004502120823315893
13.510469029414663,0.01890472014377473
13.517509398893253,0.04332595468431763
13.524549768371845,0.07673527171917209
13.531590137850435,0.11188142245618383
13.538630507329025,0.13267586828423533
13.545670876807616,0.12573113820996726
13.552711246286206,0.09324451072040202
13.559751615764796,0.0497955132149517
13.566791985243386,0.010841651786485716
13.573832354721976,-0.014445367959299843
13.580872724200567,-0.025082021505839835
13.587913093679157,-0.02509469929423145
13.594953463157747,-0.018065785778591407
13.601993832636337,-0.007401349861158849
13.609034202114927,0.0004222376344285672
13.616074571593517,0.0005504231430881509
13.623114941072108,-0.0028239995706959304
13.630155310550698,-0.0011553721749328076
13.637195680029288,0.007403995344507624
13.644236049507878,0.016816549746575843
13.651276418986468,0.018617046741440442
13.65831678846506,0.004886344816239036
13.66535715794365,-0.02928681168780596
13.67239752742224,-0.07764948146772963
13.67943789690083,-0.11529197424652393
13.686478266379419,-0.11722209940858963
13.69351863585801,-0.08693748677230732
13.7005590053366,-0.04843116186728948
13.70759937481519,-0.019164213530815842
13.71463974429378,-0.0023211926706863044
13.72168011377237,0.005745722311404187
13.72872048325096,0.007942180834729218
13.735760852729552,0.005067520946808993
13.742801222208142,-0.0005910344191284197
13.749841591686732,-0.0034781255740259868
13.756881961165321,0.0014214633221618918
13.763922330643911,0.014940388211873209
13.770962700122503,0.031858754783866246
13.778003069601093,0.041729809860964695
13.785043439079683,0.038692917908639116
13.792083808558273,0.026740156245585546
13.799124178036863,0.01128354563011583
13.806164547515454,-0.005142381140246384
13.813204916994044,-0.019070367828748495
13.820245286472634,-0.02527624902105491
13.827285655951224,-0.020204548885565044
13.834326025429814,-0.0054247967402218
13.841366394908405,0.013803656290533338
13.848406764386995,0.0315988247118756
13.855447133865585,0.03968158923520232
13.862487503344175,0.029966668163239844
13.869527872822765,0.005086621649137867
13.876568242301355,-0.02021411194761705
13.883608611779946,-0.032208382885422014
13.890648981258536,-0.029696441430526768
13.897689350737126,-0.021291766754000574
13.904729720215716,-0.014407056185947684
13.911770089694306,-0.010154325721918291
13.918810459172898,-0.006324128339425627
13.925850828651487,-0.0009129564409337116
13.932891198130077,0.0053661052292089464
13.939931567608667,0.008977629361832875
13.946971937087257,0.007368296387074617
13.954012306565849,0.0008737807945955143
13.961052676044439,-0.006700570521271173
13.968093045523029,-0.008327809572765346
13.975133415001618,9.961503611221538e-05
13.982173784480208,0.01662876513720716
13.989214153958798,0.034960287607734765
13.99625452343739,0.04390946471015001
14.00329489291598,0.03603805811515942
14.01033526239457,0.016865826553950768
14.01737563187316,-0.00626831266040975
14.02441600135175,-0.03425562528407631
14.031456370830341,-0.06556409019571179
14.038496740308931,-0.08733760366720983
14.04553710978752,-0.087323945168336
14.05257747926611,-0.06765078687992682
14.0596178487447,-0.03995292771688523
14.066658218223292,-0.014819159387695638
14.073698587701882,0.0008177645787153598
14.080738957180472,0.0036602504245390856
14.087779326659062,-0.004531205503592023
14.094819696137652,-0.01621403110745121
14.101860065616242,-0.02171454442501186
14.108900435094833,-0.017485384496334182
14.115940804573423,-0.011026365025019386
14.122981174052013,-0.015196714295896023
14.130021543530603,-0.03616738624797873
14.137061913009193,-0.0657571406804802
14.144102282487784,-0.0818905079815037
14.151142651966374,-0.05731887476293396
14.158183021444966,0.018811750410159582
14.165223390923556,0.11690240078176262
14.172263760402146,0.17668330771647212
14.179304129880737,0.16300412808021256
14.186344499359327,0.10118154190450084
14.193384868837917,0.04113004295861909
14.200425238316507,0.008824508954823484
14.207465607795097,0.0002090849568338848
14.214505977273689,0.00043047882924001377
14.221546346752278,-0.000861636850813678
14.228586716230868,-0.006931713435896811
14.235627085709458,-0.01533008737669359
14.242667455188048,-0.021111314914462782
14.249707824666638,-0.02208852861006626
14.25674819414523,-0.018560880263419087
14.26378856362382,-0.010463797365674238
14.27082893310241,0.0011483780944851552
14.277869302581,0.011792461979802797
14.28490967205959,0.015785054478061552
14.29195004153818,0.01075926309337567
14.29899041101677,-0.00023361579667131632
14.30603078049536,-0.010562285940493731
14.31307114997395,-0.013834612456922163
14.32011151945254,-0.0067506431879487405
14.327151888931132,0.008264990961528726
14.334192258409722,0.022318052929099958
14.341232627888312,0.025932412660987787
14.348272997366902,0.01627651845964622
14.355313366845492,-0.0024241216200893024
14.362353736324081,-0.021853373895589123
14.369394105802673,-0.03340147605943553
14.376434475281263,-0.03448954652512194
14.383474844759853,-0.029928057990792133
14.390515214238443,-0.025490100587051673
14.397555583717033,-0.02319587412636421
14.404595953195624,-0.022238185717636937
14.411636322674214,-0.021712749267483348
14.418676692152804,-0.020454456117109436
14.425717061631394,-0.014792329612633527
14.432757431109984,-0.00040575163521988666
14.439797800588575,0.02066787436647717
14.446838170067165,0.02985177754072149
14.453878539545755,-0.00485682726787256
14.460918909024345,-0.08625436987525596
14.467959278502935,-0.15817161228660737
14.474999647981527,-0.16478190400259285
14.482040017460116,-0.11534465163136146
14.489080386938706,-0.055034238158421164
14.496120756417296,-0.013236139011676308
14.503161125895886,0.003335196349323814
14.510201495374476,0.0004827343114566312
14.517241864853068,-0.007922699480646814
14.524282234331658,-0.003105867072640752
14.531322603810247,0.025081281680677536
14.538362973288837,0.06331550195135892
14.545403342767427,0.08423123081516198
14.552443712246019,0.0726102767659241
14.559484081724609,0.03636175273063509
14.566524451203199,-0.00719290222436897
14.573564820681788,-0.046258297663764755
14.580605190160378,-0.07243549742671333
14.58764555963897,-0.07879794975635063
14.59468592911756,-0.06492451470840538
14.60172629859615,-0.029219003032690913
14.60876666807474,0.037121950195300596
14.61580703755333,0.13101308992656394
14.62284740703192,0.21931957976786615
14.629887776510511,0.252799113814898
14.636928145989101,0.2085742107241181
14.64396851546769,0.11635999511316789
14.65100888494628,0.027511668494309197
14.65804925442487,-0.029077504475422133
14.665089623903462,-0.05164599119224052
14.672129993382052,-0.0506872082270707
14.679170362860642,-0.0383901435553622
14.686210732339232,-0.02272031258230523
14.693251101817822,-0.006527451619006605
14.700291471296413,0.011408419484674444
14.707331840775003,0.034849969547238485
14.714372210253593,0.06246953278454503
14.721412579732183,0.08277994938271022
14.728452949210773,0.08608790657042956
14.735493318689365,0.07469942388439281
14.742533688167955,0.05506664490486391
14.749574057646544,0.03223161155380393
14.756614427125134,0.012792874125003307
14.763654796603724,0.0032934672972436707
14.770695166082316,0.004059232973081253
14.777735535560906,0.007193739210462787
14.784775905039497,0.004622889715530304
14.791816274518087,-0.00401384073456111
14.798856643996677,-0.013321353092073714
14.805897013475267,-0.0170019288404027
14.812937382953859,-0.013055049107986785
14.819977752432449,-0.005881377644169332
14.827018121911038,0.000717184930656989
14.834058491389628,0.008645170756557848
14.841098860868218,0.018365573896018485
14.84813923034681,0.022357879473302696
14.8551795998254,0.01445604397147241
14.86221996930399,0.0008298694299274205
14.86926033878258,-0.006945559675980128
14.87630070826117,-0.005310301036534555
14.88334107773976,-0.0006982763354211725
14.89038144721835,-0.0002592180354427157
14.89742181669694,-0.00363576038645124
14.90446218617553,-0.005175024131678105
14.91150255565412,-0.000641486881552387
14.91854292513271,0.009213664470888654
14.925583294611302,0.018564675353346927
14.932623664089892,0.020240488227054817
14.939664033568482,0.011586147804778998
14.946704403047072,-0.0027615079095817943
14.953744772525662,-0.015124579505173392
14.960785142004253,-0.021384429217186668
14.967825511482843,-0.021978598348378304
14.974865880961433,-0.019146480568542575
14.981906250440023,-0.014495509086449351
14.988946619918613,-0.0077642856365054014
14.995986989397203,0.0012057894033992273
15.003027358875794,0.010052458248468569
15.010067728354384,0.014341942435106765
15.017108097832974,0.009785604172271355
15.024148467311564,-0.0032885346750355796
15.031188836790154,-0.01651378640894166
15.038229206268745,-0.01803733077828416
15.045269575747335,-0.003027477054527685
15.052309945225925,0.01944866747809903
15.059350314704515,0.03199391009015195
15.066390684183105,0.026480163170068162
15.073431053661697,0.012763032604176668
15.080471423140287,0.004295736613890535
15.087511792618876,0.0022951641395797333
15.094552162097466,-0.0017993842004302135
15.101592531576056,-0.013802264733013651
15.108632901054648,-0.029999163726887
15.115673270533238,-0.0429145240350466
15.122713640011828,-0.04905846277630538
15.129754009490417,-0.04795789647622168
15.136794378969007,-0.03968705888761775
15.143834748447597,-0.025668664821030203
15.150875117926189,-0.00857150436701214
15.157915487404779,0.007687237878275472
15.164955856883369,0.01816011436570577
15.171996226361959,0.019670928552598
15.179036595840548,0.013207331233175962
15.18607696531914,0.003067122852803598
15.19311733479773,-0.0058582388126588916
15.20015770427632,-0.01020928056431321
15.20719807375491,-0.010001416471323644
15.2142384432335,-0.008353377480016584
15.221278812712091,-0.006803020197277233
15.228319182190681,-0.0032063436805692277
15.235359551669271,0.004729302064625204
15.242399921147861,0.017382484128829256
15.24944029062645,0.03220286417025986
15.25648066010504,0.043454928999670926
15.263521029583632,0.04778536636367079
15.270561399062222,0.04554395799284908
15.277601768540812,0.03458390803892176
15.284642138019402,0.013742553805744864
15.291682507497992,-0.010300224684694523
15.298722876976584,-0.02903096753611299
15.305763246455173,-0.03922005492317172
15.312803615933763,-0.04065362762787266
15.319843985412353,-0.03310316138534092
15.326884354890943,-0.019308975734663267
15.333924724369535,-0.005429571437619229
15.340965093848125,0.0062373563509511495
15.348005463326714,0.017989907170921624
15.355045832805304,0.026956706096193432
15.362086202283894,0.021747704156136777
15.369126571762486,-0.007300374295766231
15.376166941241076,-0.05478072960904145
15.383207310719666,-0.09736611134640134
15.390247680198256,-0.10955741067466424
15.397288049676845,-0.08754387869575614
15.404328419155437,-0.051390235255971535
15.411368788634029,-0.02263711970827532
15.418409158112619,-0.010167443150740708
15.425449527591208,-0.012791396493866429
15.432489897069798,-0.02276602708842287
15.439530266548388,-0.029836252924392303
15.44657063602698,-0.027979832494784924
15.45361100550557,-0.018333411091331287
15.46065137498416,-0.006116732485650473
15.46769174446275,0.0041878022791747216
15.47473211394134,0.0100318344322431
15.481772483419931,0.009145205719552286
15.488812852898521,0.0012406143092755758
15.49585322237711,-0.009171119444275106
15.5028935918557,-0.016548054841343713
15.50993396133429,-0.02045562076362534
15.51697433081288,-0.023778357617412173
15.524014700291472,-0.026403237395724664
15.531055069770062,-0.025038652414482672
15.538095439248652,-0.01808196712650418
15.545135808727242,-0.008564465561798199
15.552176178205832,-0.002719044160104561
15.559216547684423,-0.004852155838406143
15.566256917163013,-0.012758420299036292
15.573297286641603,-0.01897244755053146
15.580337656120193,-0.017272528034423737
15.587378025598783,-0.007206915953479972
15.594418395077374,0.0066576583723490105
15.601458764555964,0.01762745536920108
15.608499134034554,0.021494553846321318
15.615539503513144,0.01974494997509923
15.622579872991734,0.017169270060774046
15.629620242470326,0.01741673799851902
15.636660611948916,0.019187357838925882
15.643700981427505,0.01724894640461262
15.650741350906095,0.009345292186459176
15.657781720384685,-0.0016305593779782708
15.664822089863275,-0.011393638246494496
15.671862459341865,-0.016317174642278845
15.678902828820455,-0.014244049144367874
15.685943198299048,-0.0065419677005871535
15.692983567777638,-0.0001957674325900956
15.700023937256228,-0.006858427816867145
15.707064306734818,-0.0385574583234017
15.714104676213408,-0.09867208554558905
15.721145045691998,-0.16392549708687323
15.728185415170588,-0.18464665895336174
15.735225784649177,-0.13655049952470838
15.742266154127767,-0.05735469497772536
15.749306523606357,0.001566765464385481
15.756346893084947,0.026302409138904904
15.76338726256354,0.027705735644297735
15.77042763204213,0.019225071943546775
15.77746800152072,0.012838023271419752
15.78450837099931,0.016334295204137823
15.7915487404779,0.029626317498632652
15.79858910995649,0.04448677855923208
15.80562947943508,0.05254100745222901
15.81266984891367,0.051856061077917535
15.81971021839226,0.04367946064498995
15.82675058787085,0.030422528928642553
15.83379095734944,0.014889391391853163
15.840831326828033,-0.0016284154208691453
15.847871696306623,-0.015195090035296684
15.854912065785213,-0.01928309414019028
15.861952435263802,-0.014203996682944059
15.868992804742392,-0.007306931596642868
15.876033174220982,-0.002582628869297917
15.883073543699572,0.002596726188704778
15.890113913178162,0.012454368741117345
15.897154282656752,0.028758635214341886
15.904194652135342,0.04939365302883461
15.911235021613935,0.06918331412862855
15.918275391092525,0.08245629103342754
15.925315760571115,0.083728855815537
15.932356130049705,0.06869202571099478
15.939396499528295,0.0398946855841989
15.946436869006885,0.00839661423247958
15.953477238485474,-0.014821068006279622
15.960517607964064,-0.025906570143425598
15.967557977442654,-0.026168797722206896
15.974598346921244,-0.018319854141146896
15.981638716399834,-0.006077312864890092
15.988679085878427,0.006656532345999331
15.995719455357017,0.01837537800083128
16.002759824835607,0.028577044048567715
16.0098001943142,0.03456693648881876
16.016840563792787,0.0341834098041232
16.02388093327138,0.02974650386403201
16.030921302749967,0.024057156250972208
16.03796167222856,0.01520535865011347
16.045002041707146,0.0021703077784799335
16.052042411185738,-0.010066160823356898
16.05908278066433,-0.017416337439001374
16.06612315014292,-0.02092974015354615
16.07316351962151,-0.02229792777483447
16.0802038891001,-0.021972881627277445
16.08724425857869,-0.020860992653813488
16.09428462805728,-0.019062228419073513
16.10132499753587,-0.01278336984939218
16.10836536701446,0.003520893798409073
16.11540573649305,0.027964201941552285
16.12244610597164,0.0464789134344524
16.12948647545023,0.044747776352256526
16.136526844928824,0.023063733584370718
16.143567214407412,-0.006585692786802993
16.150607583886003,-0.03152477151584117
16.15764795336459,-0.042712189020010574
16.164688322843183,-0.03654479262854149
16.17172869232177,-0.01626264861186999
16.178769061800363,0.008268098009945248
16.18580943127895,0.02211388756965215
16.192849800757543,0.016605736853244877
16.19989017023613,0.0011434782901877435
16.206930539714723,-0.0075828201582490255
16.213970909193314,-0.001979611411937548
16.221011278671906,0.0173199070250718
16.228051648150494,0.04517170024643525
16.235092017629086,0.07109515865560603
16.242132387107674,0.08256036924798822
16.249172756586265,0.0723632914385254
16.256213126064853,0.04710637467750599
16.263253495543445,0.02421218042019217
16.270293865022033,0.012734904685051958
16.277334234500625,0.005976643516048255
16.284374603979217,-0.004147806187289867
16.291414973457808,-0.016715971730050665
16.298455342936396,-0.024922996583214126
16.305495712414988,-0.022463341438425974
16.312536081893576,-0.009632274851390699
16.319576451372168,0.004918746816779989
16.326616820850756,0.01246647610816848
16.333657190329347,0.012195911770221887
16.340697559807936,0.00824670518806589
16.347737929286527,0.003226488018948188
16.35477829876512,-0.0028047286289595227
16.36181866824371,-0.008703262753557742
16.368859037722302,-0.010437334916153462
16.37589940720089,-0.004413848620492375
16.382939776679482,0.008360280806947885
16.38998014615807,0.021189911368304844
16.39702051563666,0.02555802667695227
16.40406088511525,0.018588492463846105
16.41110125459384,0.004704544996056963
16.41814162407243,-0.010502462175160735
16.42518199355102,-0.023431602511908012
16.432222363029613,-0.03181022772860569
16.439262732508205,-0.037393336147149785
16.446303101986793,-0.04636953865459049
16.453343471465384,-0.05994560139372609
16.460383840943972,-0.06755911324754847
16.467424210422564,-0.058140345203753795
16.474464579901152,-0.03438274274257985
16.481504949379744,-0.009298583145979379
16.488545318858332,0.006119118396915794
16.495585688336924,0.0106178968133236
16.50262605781551,0.010109912044275207
16.509666427294107,0.007954007311904068
16.516706796772695,0.0038877266737453557
16.523747166251287,-0.0006952993459196097
16.530787535729875,-0.004185372666619716
16.537827905208466,-0.006824651338133764
16.544868274687055,-0.0068476955484989615
16.551908644165646,0.0021112989391113314
16.558949013644234,0.024641159742026904
16.565989383122826,0.05271190092515246
16.573029752601414,0.06739561327603591
16.58007012208001,0.058413072912002366
16.587110491558597,0.034821205067993403
16.59415086103719,0.011437544466772254
16.601191230515777,-0.00407289733127504
16.60823159999437,-0.010541474114105718
16.615271969472957,-0.01069987280775729
16.62231233895155,-0.009376034814574897
16.629352708430137,-0.011022443799653819
16.63639307790873,-0.017958997084316395
16.643433447387316,-0.028322740536368074
16.650473816865908,-0.03604283248860262
16.6575141863445,-0.03598520627822534
16.66455455582309,-0.028382138704823735
16.67159492530168,-0.016849958245927523
16.67863529478027,-0.004740104876148722
16.68567566425886,0.005623473116872797
16.69271603373745,0.01280723044662164
16.69975640321604,0.016234848990115444
16.70679677269463,0.016076481436527467
16.71383714217322,0.014510006856000915
16.72087751165181,0.01520215890557489
16.7279178811304,0.018267898277989546
16.734958250608994,0.019929418522051177
16.741998620087582,0.01927678178347864
16.749038989566174,0.018968087272217993
16.75607935904476,0.02006746360178477
16.763119728523353,0.02148115126475448
16.77016009800194,0.022119375963858684
16.777200467480533,0.021744996973753317
16.78424083695912,0.021531084096334748
16.791281206437713,0.023494939031682524
16.7983215759163,0.027285040182085295
16.805361945394896,0.026672031638574747
16.812402314873484,0.01033921016390159
16.819442684352076,-0.031029787680606224
16.826483053830664,-0.08887500555830731
16.833523423309256,-0.13238981702987962
16.840563792787844,-0.1455441029512183
16.847604162266435,-0.15287782593191823
16.854644531745024,-0.1754299251523386
16.861684901223615,-0.18842104702393978
16.868725270702203,-0.15449537846995767
16.875765640180795,-0.07875763079918127
16.882806009659387,-0.0038977384856766963
16.88984637913798,0.038144142099488555
16.896886748616566,0.047303325843870724
16.903927118095158,0.03944481384587856
16.910967487573746,0.027801127852836154
16.918007857052338,0.0165101868034326
16.925048226530926,0.0043769636916138705
16.932088596009518,-0.008953891766120815
16.939128965488106,-0.020627916350069834
16.946169334966697,-0.024902568497583422
16.95320970444529,-0.01726695829354169
16.96025007392388,0.0002482234930257902
16.96729044340247,0.020722553390226238
16.97433081288106,0.038623475865500925
16.981371182359652,0.05134345539862624
16.98841155183824,0.055542903182607614
16.995451921316832,0.04741521231064358
17.00249229079542,0.028196842679615076
17.00953266027401,0.005638095603116783
17.0165730297526,-0.010641292444943327
17.02361339923119,-0.016430375633739513
17.030653768709783,-0.016700877505674616
17.037694138188375,-0.017602745153525504
17.044734507666963,-0.015730766433510672
17.051774877145554,-0.0025856192552035236
17.058815246624143,0.020227654218096417
17.065855616102734,0.037491449686488154
17.072895985581322,0.03603698069250347
17.079936355059914,0.019433418002089496
17.086976724538502,0.003322284033370512
17.094017094017094,-0.001405896466450238
17.101057463495682,0.0018852919358219172
17.108097832974277,0.003908547650844296
17.115138202452865,0.0018767256986384798
17.122178571931457,-0.0014262266423515407
17.129218941410045,-0.004227804669625612
17.136259310888637,-0.006834582629266433
17.143299680367225,-0.009222270875389552
17.150340049845816,-0.010366497989104584
17.157380419324404,-0.010284519046385866
17.164420788802996,-0.009570019691825214
17.171461158281584,-0.006140309105422301
17.17850152776018,0.0031258799162906525
17.185541897238767,0.015808839398042198
17.19258226671736,0.022666309740564612
17.199622636195947,0.01613811606642471
17.20666300567454,0.0004503833832455173
17.213703375153127,-0.009130346559230593
17.22074374463172,0.0036878556216902512
17.227784114110307,0.04930303888979837
17.2348244835889,0.12221382004894613
17.241864853067487,0.19365821767108346
17.248905222546078,0.23785732809505628
17.25594559202467,0.2525881783042914
17.26298596150326,0.2334571856390174
17.27002633098185,0.17400121630745846
17.27706670046044,0.09538884981692755
17.28410706993903,0.029101764488017455
17.29114743941762,-0.01278031664435619
17.29818780889621,-0.032385648437614815
17.3052281783748,-0.035546229662946856
17.31226854785339,-0.030011924122147534
17.31930891733198,-0.022541268409354855
17.326349286810572,-0.015540349297636114
17.333389656289164,-0.008387366201851596
17.340430025767752,-0.0013110719298029283
17.347470395246344,0.005217643789905235
17.35451076472493,0.012370010533478904
17.361551134203523,0.019137086120073248
17.36859150368211,0.019598230704235758
17.375631873160703,0.008704340727998562
17.38267224263929,-0.010323728115797444
17.389712612117883,-0.026235908348305456
17.39675298159647,-0.02851896186978716
17.403793351075066,-0.017270202650641955
17.410833720553654,-0.0018381970485263762
17.417874090032246,0.011065402487427222
17.424914459510834,0.021712972950232244
17.431954828989426,0.029936024197866798
17.438995198468014,0.029935086621822954
17.446035567946605,0.01424585385472577
17.453075937425194,-0.01607644317850122
17.460116306903785,-0.0471710934737318
17.467156676382373,-0.06301001955523242
17.47419704586097,-0.05784827505033679
17.481237415339557,-0.03859750838483143
17.48827778481815,-0.019296637400463147
17.495318154296736,-0.010164405635844594
17.502358523775328,-0.011201964566135019
17.509398893253916,-0.01640019890540084
17.516439262732508,-0.018804736399516467
17.523479632211096,-0.014485187894279515
17.530520001689688,-0.005706537796302086
17.537560371168276,0.0037515232454141917
17.544600740646867,0.011021164943314754
17.55164111012546,0.008575079681528298
17.55868147960405,-0.008995282713710598
17.56572184908264,-0.03233901318220358
17.57276221856123,-0.047014806032438364
17.57980258803982,-0.0495485043419082
17.58684295751841,-0.044194223963633164
17.593883326997,-0.035279445834838365
17.60092369647559,-0.02714772013310371
17.60796406595418,-0.023218871133626116
17.61500443543277,-0.02456790995905536
17.62204480491136,-0.02932667693337503
17.629085174389953,-0.031040317398704807
17.636125543868545,-0.022298756765703913
17.643165913347133,-0.003426553487969007
17.650206282825724,0.015522130186611886
17.657246652304313,0.023262938015875815
17.664287021782904,0.015672568268841825
17.671327391261492,-0.0036283358684755474
17.678367760740084,-0.027358685124700226
17.685408130218672,-0.04984433836414528
17.692448499697264,-0.06884437325412314
17.699488869175855,-0.08031762531282823
17.706529238654447,-0.07746834708433324
17.713569608133035,-0.061512055991623564
17.720609977611627,-0.04413695155144722
17.727650347090215,-0.03303961963193112
17.734690716568807,-0.025380955610918417
17.741731086047395,-0.016699390097045696
17.748771455525986,-0.006448703146636712
17.755811825004574,0.0033471675048763225
17.762852194483166,0.009055381873496424
17.769892563961754,0.007787393410010571
17.77693293344035,-0.0007055497735419258
17.783973302918938,-0.0169979465765157
17.79101367239753,-0.04225519867367399
17.798054041876117,-0.0703731386421827
17.80509441135471,-0.08495183917658652
17.812134780833297,-0.07426940339738773
17.81917515031189,-0.047539535507400525
17.826215519790477,-0.027551499127664116
17.83325588926907,-0.03035084585742653
17.840296258747657,-0.05526822874505306
17.84733662822625,-0.08590976896586372
17.85437699770484,-0.09858929579662501
17.86141736718343,-0.08088698525164989
17.86845773666202,-0.04336638653799779
17.87549810614061,-0.007703783862369368
17.8825384756192,0.009636386131191334
17.88957884509779,0.0013452119556263851
17.89661921457638,-0.03175204767413272
17.90365958405497,-0.08061786848905175
17.91069995353356,-0.12443336623731228
17.91774032301215,-0.13452349451275838
17.924780692490742,-0.10052229822710722
17.931821061969334,-0.04617866314640863
17.938861431447922,-0.003941952677925863
17.945901800926514,0.01288440994920931
17.9529421704051,0.009353901805426055
17.959982539883693,-0.0014173619061554612
17.96702290936228,-0.004507052912188633
17.974063278840873,0.011926602721568785
17.98110364831946,0.05447059184328714
17.988144017798053,0.12259119104490665
17.99518438727664,0.19457898801991147
18.002224756755236,0.22326423868649628
18.009265126233824,0.1807833994935896
18.016305495712416,0.09632523337886871
18.023345865191004,0.02022418922607226
18.030386234669596,-0.02274919468839256
18.037426604148184,-0.033677691161333075
18.044466973626776,-0.023294097989514026
18.051507343105364,-0.003094095279969605
18.058547712583955,0.016837011016171168
18.065588082062543,0.027905764446368265
18.07262845154114,0.02596850026351477
18.079668821019727,0.015258564310391708
18.08670919049832,0.00809038452211613
18.093749559976906,0.017472063708829887
18.100789929455498,0.0464890670608351
18.107830298934086,0.08162191023931624
18.114870668412678,0.09791714718598514
18.121911037891266,0.08345810988451692
18.128951407369858,0.056508450467523084
18.135991776848446,0.043193928925274294
18.143032146327037,0.046942539285950304
18.15007251580563,0.05038412880049368
18.15711288528422,0.03991791913720774
18.16415325476281,0.01920017577443261
18.1711936242414,-0.0016164090301847246
18.17823399371999,-0.0171984167136578
18.18527436319858,-0.02564544035682924
18.19231473267717,-0.02603564682867121
18.19935510215576,-0.01790331382827101
18.206395471634348,-0.00277365826612475
18.21343584111294,0.01362831067722596
18.22047621059153,0.025211768278579287
18.227516580070123,0.029312816869758698
18.23455694954871,0.023737711837506892
18.241597319027303,0.006409200624057105
18.248637688505895,-0.01901683429491202
18.255678057984483,-0.04002224185081223
18.262718427463074,-0.03770352633359857
18.269758796941662,0.006080201881770924
18.276799166420254,0.09676271704101266
18.283839535898842,0.20861130298581348
18.290879905377434,0.28193748683560005
18.297920274856025,0.2714313355016784
18.304960644334617,0.19541654639993508
18.312001013813205,0.11030675389200044
18.319041383291797,0.0513448053182706
18.326081752770385,0.010940363777387612
18.333122122248977,-0.035194846603805036
18.340162491727565,-0.08564930938547352
18.347202861206156,-0.1101969327489746
18.354243230684745,-0.09247473508879576
18.361283600163336,-0.051924882067276225
18.368323969641928,-0.017809822307894786
18.37536433912052,-0.004296718577733801
18.382404708599108,-0.010376774565818092
18.3894450780777,-0.02653486309434794
18.396485447556287,-0.04175007068688743
18.40352581703488,-0.04983460551913871
18.410566186513467,-0.05058667956389246
18.41760655599206,-0.0464631671226761
18.424646925470647,-0.039258159765272
18.43168729494924,-0.029770672372629422
18.438727664427827,-0.01940620201056876
18.445768033906422,-0.010603832320703194
18.45280840338501,-0.005393053544740645
18.4598487728636,-0.004192324227309212
18.46688914234219,-0.006282336677956732
18.47392951182078,-0.010476540186898996
18.48096988129937,-0.014147282390654027
18.48801025077796,-0.014108943234240293
18.49505062025655,-0.010618436922529385
18.50209098973514,-0.006520770627595025
18.50913135921373,-0.0016532976389423788
18.51617172869232,0.006209610613865215
18.523212098170912,0.015228554466813232
18.530252467649504,0.01986492794411745
18.537292837128092,0.016444228321056804
18.544333206606684,0.005340337787794493
18.551373576085272,-0.009646010975396184
18.558413945563863,-0.022741632368198976
18.56545431504245,-0.0293024272162306
18.572494684521043,-0.02744272319410843
18.57953505399963,-0.017738337709382143
18.586575423478223,-0.0034402528576016815
18.593615792956815,0.011064374681365632
18.600656162435406,0.022926312731041967
18.607696531913994,0.02987607564890793
18.614736901392586,0.029036166177973655
18.621777270871174,0.019511469004205154
18.628817640349766,0.003776711023991618
18.635858009828354,-0.013305305853685293
18.642898379306946,-0.02625036216324085
18.649938748785534,-0.0322868469141272
18.656979118264125,-0.03217007071541268
18.664019487742713,-0.02745308748959149
18.67105985722131,-0.019721439880439996
18.678100226699897,-0.011736018976918528
18.68514059617849,-0.006772814966805687
18.692180965657077,-0.007147990259719715
18.699221335135668,-0.012518849846702209
18.706261704614256,-0.01822178097896981
18.713302074092848,-0.01776196150109721
18.720342443571436,-0.008393106800609576
18.727382813050028,0.004852287296981292
18.734423182528616,0.011302468444541256
18.74146355200721,0.0060744755246319206
18.7485039214858,-0.004247217692479232
18.75554429096439,-0.012922757545216141
18.76258466044298,-0.021499643686375386
18.76962502992157,-0.03223645557636517
18.77666539940016,-0.039990428346375596
18.78370576887875,-0.037713005865394084
18.79074613835734,-0.02761670214441698
18.79778650783593,-0.019565009597946652
18.804826877314518,-0.018541173345634324
18.81186724679311,-0.021579085821234585
18.8189076162717,-0.024840883099135867
18.825947985750293,-0.026078200304294537
18.83298835522888,-0.02344049526908104
18.840028724707473,-0.016598662144765845
18.84706909418606,-0.006728389946966078
18.854109463664653,0.004111650206611108
18.861149833143244,0.010993251712631354
18.868190202621832,0.008011812545067713
18.875230572100424,-0.004376456168573538
18.882270941579012,-0.018998132121309387
18.889311311057604,-0.029262737181431277
18.896351680536196,-0.03144547547759936
18.903392050014787,-0.02371523822575501
18.910432419493375,-0.007647193157541173
18.917472788971967,0.011737792846117413
18.924513158450555,0.026498774014333235
18.931553527929147,0.028821513472103426
18.938593897407735,0.017533533091266117
18.945634266886326,-0.0021485921135377846
18.952674636364915,-0.0227240817909065
18.959715005843506,-0.03639274066331926
18.966755375322098,-0.040287684917258176
18.97379574480069,-0.0381943737917445
18.980836114279278,-0.03360179171271304
18.98787648375787,-0.026899586078274078
18.994916853236457,-0.019927721497627233
19.00195722271505,-0.01709396721871985
19.008997592193637,-0.02042945698155801
19.01603796167223,-0.026289226679253007
19.023078331150817,-0.028033618803884917
19.03011870062941,-0.019612129179691355
19.037159070107997,0.004014045130633999
19.044199439586592,0.047986175241160625
19.05123980906518,0.115056122664947
19.05828017854377,0.18814863718622485
19.06532054802236,0.22062276236143283
19.07236091750095,0.1800763662884208
19.07940128697954,0.09279940020774288
19.08644165645813,0.010986814713714557
19.09348202593672,-0.03876067611623709
19.10052239541531,-0.05733475282821066
19.1075627648939,-0.054116580027698306
19.114603134372494,-0.037195245401682744
19.121643503851082,-0.011031228143602242
19.128683873329674,0.02002111943171208
19.135724242808262,0.04510017544794184
19.142764612286854,0.046953046166772976
19.149804981765442,0.018393668727744235
19.156845351244034,-0.02085382439140754
19.16388572072262,-0.04213538910945808
19.170926090201213,-0.03983973766857396
19.1779664596798,-0.02750972835228302
19.185006829158393,-0.015605627732478344
19.192047198636985,-0.006448004165991646
19.199087568115576,-0.0005325685437083199
19.206127937594164,0.0009771897045485693
19.213168307072756,4.352173785425613e-06
19.220208676551344,0.0016276694530411807
19.227249046029936,0.0057098753048320725
19.234289415508524,0.0031213147446519924
19.241329784987116,-0.0129612877870876
19.248370154465704,-0.035146997375619486
19.255410523944295,-0.04844083067544086
19.262450893422887,-0.04650950201137588
19.26949126290148,-0.03563752817821831
19.276531632380067,-0.023660664875650623
19.28357200185866,-0.0110427794718404
19.290612371337247,0.005448530204025434
19.29765274081584,0.02508917886730671
19.304693110294426,0.04164556129709522
19.311733479773018,0.048230259851921906
19.318773849251606,0.044004980348457894
19.325814218730198,0.034028179747917275
19.332854588208786,0.021061408897441642
19.33989495768738,0.004694810754782311
19.34693532716597,-0.010771089404718815
19.35397569664456,-0.018084873788183128
19.36101606612315,-0.016633204474153257
19.36805643560174,-0.012296632019388243
19.37509680508033,-0.010620453784916346
19.38213717455892,-0.01599790752797518
19.38917754403751,-0.0327979827587581
19.3962179135161,-0.05844331088479174
19.40325828299469,-0.0782464274122376
19.41029865247328,-0.07937007082454002
19.41733902195187,-0.0647753834787913
19.424379391430463,-0.043711388592676675
19.43141976090905,-0.02201198193500869
19.438460130387643,-0.005811090138224747
19.44550049986623,6.602687156783066e-05
19.452540869344823,-0.002367298670634025
19.45958123882341,-0.0068222652117219005
19.466621608302002,-0.007663137975917463
19.47366197778059,-0.0018567352241768793
19.480702347259182,0.00981882919108659
19.487742716737774,0.021748165644025267
19.494783086216366,0.026373650105096316
19.501823455694954,0.024571622765359624
19.508863825173545,0.027052317941111566
19.515904194652137,0.03700309634302131
19.522944564130725,0.04312442128155582
19.529984933609317,0.03533825943754878
19.537025303087905,0.016265220179586325
19.544065672566497,-0.004072008690624571
19.551106042045085,-0.01744638939253117
19.558146411523676,-0.021697618331122628
19.565186781002268,-0.019645737966468294
19.57222715048086,-0.013434216295322736
19.579267519959448,-0.00246122703440369
19.58630788943804,0.009948725922845576
19.593348258916627,0.01362698495675563
19.60038862839522,0.0020145422506175612
19.607428997873807,-0.018221169825828967
19.6144693673524,-0.03429653993327072
19.621509736830987,-0.03988790010457317
19.62855010630958,-0.03596347321777321
19.63559047578817,-0.025440090753771155
19.642630845266762,-0.011694899312524952
19.64967121474535,0.0014734311920545716
19.65671158422394,0.011799221666298931
19.66375195370253,0.0191678557202873
19.67079232318112,0.022138946628583407
19.67783269265971,0.01683117274236657
19.6848730621383,0.002993282347407461
19.69191343161689,-0.012136828007836442
19.69895380109548,-0.01937512134155991
19.70599417057407,-0.015066875710984159
19.713034540052664,-0.0029430966612272623
19.720074909531252,0.008992482657740379
19.727115279009844,0.01414725577753114
19.734155648488432,0.012737590763111224
19.741196017967024,0.0103806003707039
19.748236387445612,0.010153341992329196
19.755276756924204,0.010426322170655462
19.76231712640279,0.009716965893273696
19.769357495881383,0.007753898201265986
19.77639786535997,0.0038821845672513755
19.783438234838563,-0.0015482047554754386
19.790478604317155,-0.0068327854517160475
19.797518973795746,-0.011412437084633792
19.804559343274335,-0.015776329031711604
19.811599712752926,-0.01902588108092662
19.818640082231514,-0.019248715109312874
19.825680451710106,-0.016193103328258962
19.832720821188694,-0.012018945310398078
19.839761190667286,-0.008855282403910203
19.846801560145874,-0.0072252642601096035
19.853841929624465,-0.00682647948465858
19.860882299103057,-0.005704407175611401
19.86792266858165,-0.0005203047764390032
19.874963038060237,0.008585807538712261
19.88200340753883,0.015487386459023067
19.889043777017417,0.012954835009835538
19.89608414649601,0.00031700789235255666
19.903124515974596,-0.01411940834971298
19.910164885453188,-0.02056784703244709
19.917205254931776,-0.01764794447946043
19.924245624410368,-0.01122578636919379
19.931285993888956,-0.005051122476766444
19.93832636336755,0.002269866488048479
19.94536673284614,0.011597636847774413
19.95240710232473,0.02039180802641518
19.95944747180332,0.027758815843298555
19.96648784128191,0.03654120478811768
19.9735282107605,0.04716390322215363
19.98056858023909,0.053876964960796525
19.98760894971768,0.051667176501459265
19.99464931919627,0.045789133755828715
20.00168968867486,0.0485847067646509
20.008730058153454,0.06615933963095433
20.01577042763204,0.0913213118413135
20.022810797110633,0.1091490851449926
20.02985116658922,0.11005338004485138
20.036891536067813,0.09821922428736413
20.0439319055464,0.08346563787220691
20.050972275024993,0.06750982234472881
20.05801264450358,0.04731693940368067
20.065053013982173,0.025294898148279184
20.07209338346076,0.007645676594060707
20.079133752939352,0.00013682609674647947
20.086174122417944,0.005705861580256099
20.093214491896536,0.019357774842785076
20.100254861375124,0.029109625573621317
20.107295230853715,0.028362171662751536
20.114335600332303,0.023388662247095564
20.121375969810895,0.02140431116366053
20.128416339289487,0.018578544171349475
20.135456708768075,0.009336282934770271
20.142497078246667,-0.002358937417048645
20.149537447725255,-0.009619463391205806
20.15657781720385,-0.012524079239778203
20.163618186682438,-0.02057808124422496
20.17065855616103,-0.05061740856127008
20.177698925639618,-0.1139821497884285
20.18473929511821,-0.19161896301056797
20.191779664596798,-0.23188308936219798
20.19882003407539,-0.20316427689575292
20.205860403553977,-0.13289688745287317
20.21290077303257,-0.0667691569125474
20.219941142511157,-0.023208242282893157
20.22698151198975,-0.0008105380428163498
20.23402188146834,0.006700254751346004
20.241062250946932,0.010553596570523023
20.24810262042552,0.02248856004185235
20.25514298990411,0.042648569346487024
20.2621833593827,0.05773151417070782
20.26922372886129,0.05611137335525488
20.27626409833988,0.040311745000466165
20.28330446781847,0.021527303176312483
20.29034483729706,0.007972168398600502
20.29738520677565,0.000752078533272374
20.30442557625424,-0.0031277225665243195
20.311465945732834,-0.0061863531594928516
20.318506315211422,-0.010161507142133581
20.325546684690014,-0.016641500343643263
20.332587054168602,-0.023811466281333415
20.339627423647194,-0.025790455092119708
20.346667793125782,-0.01824224943284537
20.353708162604374,-0.0041756182299985765
20.36074853208296,0.00920462045102021
20.367788901561553,0.021461483119657013
20.37482927104014,0.040948419931999845
20.381869640518737,0.07322018976527198
20.388910009997325,0.10794087372633474
20.395950379475916,0.11913299188996034
20.402990748954505,0.09206340055732326
20.410031118433096,0.04679281525397483
20.417071487911684,0.015538878081389824
20.424111857390276,0.005981053582712125
20.431152226868864,0.002457726067948407
20.438192596347456,-0.0075068672742983665
20.445232965826044,-0.021428769999888887
20.452273335304636,-0.030558886878113405
20.459313704783227,-0.027759793925768925
20.46635407426182,-0.008696633848941558
20.473394443740407,0.025087049726957314
20.480434813219,0.059409435595698334
20.487475182697587,0.07002357493058073
20.49451555217618,0.044885052482330906
20.501555921654766,-0.00220639799171074
20.508596291133358,-0.05107633494147354
20.515636660611946,-0.09737993991840242
20.522677030090538,-0.14754010039188353
20.52971739956913,-0.19268560428285844
20.53675776904772,-0.1987094720407547
20.54379813852631,-0.14547838045494166
20.5508385080049,-0.0606251803085253
20.55787887748349,0.012247374478304476
20.56491924696208,0.054419732872152175
20.57195961644067,0.06738641862045043
20.57899998591926,0.05489438299664223
20.58604035539785,0.023259408318568403
20.59308072487644,-0.011917093785237243
20.60012109435503,-0.032348980241408094
20.607161463833624,-0.03154480955257041
20.61420183331221,-0.018214031308612662
20.621242202790803,-0.006094760923537539
20.62828257226939,-0.0029787604142176094
20.635322941747983,-0.007065955408679301
20.64236331122657,-0.010311755230351117
20.649403680705163,-0.006290887301371751
20.65644405018375,0.003580522845736355
20.663484419662343,0.012660866086099561
20.67052478914093,0.01690862000883985
20.677565158619522,0.016854546314695098
20.684605528098114,0.013320483920982963
20.691645897576706,0.006035672787637386
20.698686267055294,-0.003653542398579971
20.705726636533885,-0.012472193756029575
20.712767006012474,-0.01676379976505787
20.719807375491065,-0.013318253757190993
20.726847744969653,-0.0027583127243392875
20.733888114448245,0.008382469872780112
20.740928483926837,0.012803791206216221
20.747968853405425,0.00832550706203118
20.755009222884016,-0.002227742587703313
20.762049592362608,-0.014237846582729871
20.7690899618412,-0.02243703043017952
20.776130331319788,-0.021219212694763942
20.78317070079838,-0.008595110348278189
20.790211070276968,0.009618278486799194
20.79725143975556,0.023499736109924688
20.804291809234147,0.02854218231742017
20.81133217871274,0.02849169202402543
20.818372548191327,0.0283217367869445
20.82541291766992,0.02664998166650938
20.83245328714851,0.016143930945681593
20.839493656627102,-0.004070616900217823
20.84653402610569,-0.019106089143815664
20.853574395584282,-0.012260476483582994
20.86061476506287,0.01565296066861907
20.86765513454146,0.04836252314499537
20.87469550402005,0.06872896506708297
20.88173587349864,0.06801880085884272
20.88877624297723,0.04673326200126936
20.89581661245582,0.011598470477299411
20.902856981934413,-0.02559736484362674
20.909897351413004,-0.05060903917108154
20.916937720891593,-0.05541397159853531
20.923978090370184,-0.04327609579830202
20.931018459848772,-0.02396226476573793
20.938058829327364,-0.007253039674953789
20.945099198805952,0.0013473399768251105
20.952139568284544,0.0025197477765186585
20.959179937763132,0.00012798191919754435
20.966220307241723,-0.0026600534557865174
20.97326067672031,-0.004405906465632275
20.980301046198907,-0.0054291464535090326
20.987341415677495,-0.006635611286478745
20.994381785156087,-0.009282985828414072
21.001422154634675,-0.016154096082169257
21.008462524113266,-0.027799906335114956
21.015502893591854,-0.03759939655669946
21.022543263070446,-0.038491739609501266
21.029583632549034,-0.0353152079953221
21.036624002027626,-0.04164510280031125
21.043664371506214,-0.06268689937709862
21.05070474098481,-0.08621115393099814
21.057745110463397,-0.09272429231706938
21.06478547994199,-0.07632197510202737
21.071825849420577,-0.05061932393548881
21.07886621889917,-0.031239139945198245
21.085906588377757,-0.022837338638795408
21.09294695785635,-0.0224655547075197
21.099987327334937,-0.02504713433240912
21.107027696813528,-0.02723802585387084
21.114068066292116,-0.028428831595824006
21.121108435770708,-0.027267049019734473
21.1281488052493,-0.019968873622963523
21.13518917472789,-0.0037819095358988765
21.14222954420648,0.01726170860059803
21.14926991368507,0.0317262653389233
21.15631028316366,0.031063681351364787
21.16335065264225,0.019144425588148627
21.17039102212084,0.006776240584431061
21.17743139159943,0.0016419170451675
21.18447176107802,0.005529166392899687
21.19151213055661,0.014792459094170351
21.1985525000352,0.024363660843128774
21.205592869513794,0.03264548236746789
21.21263323899238,0.04026278587887665
21.219673608470973,0.046808825147859626
21.22671397794956,0.05010273866793581
21.233754347428153,0.04753220960186319
21.24079471690674,0.03728769697503325
21.247835086385333,0.020651558042814357
21.25487545586392,0.004323944136151093
21.261915825342513,-0.004647669715322858
21.2689561948211,-0.0045509141265346695
21.275996564299696,0.002282100488926671
21.283036933778284,0.0107871570883818
21.290077303256876,0.015134823060614304
21.297117672735464,0.01413481669164102
21.304158042214056,0.01126994509176452
21.311198411692644,0.008272209835718353
21.318238781171235,0.0038645572644276675
