0
-0.00942637967898026
0.03303759857205828
0.05290775057489613
0.07390991483710742
-0.04433869060554997
-0.01246889012971776
-0.12803459370622294
-0.08077248265770523
0.022581720518709388
-0.0749316581852219
-0.017726091053637927
0.001431432677582227
0.013344791833614745
0.012401084680326748
-0.0035899391988487655
0.0693126513183719
0.04270997941930192
-0.01827321133416689
0.022124278923830353
-0.02081190102516779
0.02721009140691032
0.0170942071525963
0.04185960466588094
0.0022820279760405473
-0.00399111748158271
-0.005599400816729113
-0.015188253037318479
-0.004527272709890925
0.03067266733237585
-0.03591647812456199
-0.003246581082454463
-0.05430003420334611
-0.0049583393780262925
0.02763914875541133
0.01516358729100489
0.014841919316090593
-0.010629066650254931
-0.010507856568757034
0.017745887053204012
-0.015971131493153524
-0.008410862654859623
0.0050242711337059286
0.019429157274070394
0.03497831740549959
-0.0027463938966549362
-0.05963103099596153
-0.01286978357585835
0.048479444388450706
-0.016045752134605507
-0.018720479414065908
0.03471079889023851
0.03853128987549066
-0.007023402359174934
-0.006495795747676221
0.04708179679502571
-0.0005844244381990172
-0.046073367680495025
-0.020106612973415018
0.0014303395978302069
-0.012591312775120305
-0.027843340914937256
0.03781931112173772
0.004685573137275796
-0.0166660463391644
0.009573514721499303
0.005623498330080252
-0.0029490770878813346
-0.005721472566239586
-0.003765520042927838
0.010975289026823534
0.05491042561842699
0.0012308514901290114
-0.08182475362670681
-0.06343317115681013
0.07283180600642174
-0.020444695482149774
-0.09466369899588103
-0.0936325814680979
0.07933594209332175
0.036441882355404215
0.040517319069318415
0.03496392043370203
-0.027373286352991234
-0.00418960950730562
-0.0060966604016101785
-0.0024337289244104315
-0.04296085530428318
-0.0497635590700549
-0.04929397057808728
0.02621136908758928
0.0844406596230595
-0.017021028768024873
0.006485493661536499
0.0011858377541466068
-0.025601566835411805
-0.021660179279738973
-0.03372318973288655
0.017049353153380735
0.07044911590097777
-0.059514120012302336
-0.013371766816413907
-0.04747339202023147
-0.011175864884894623
-0.024156076561251225
0.12440648451995664
0.10655612648041053
-0.0023298876424933954
0.023829716400226332
0.12819234156312626
0.0762000424489167
-0.04030585866434894
0.02932764156515389
-0.018585401845810572
-0.019302333299011022
-0.006085134495515862
-0.04245753915546253
-0.06863233552088234
0.020906125891393863
-0.018071080278363464
-0.04991193784226519
0.04016727592020567
0.00016944953591161972
0.00945026908014178
0.054497751673534274
-0.0009837182613076064
-0.00010194551582122686
0.010643474309736356
0.07883394313226678
-0.01534943480726023
-0.04678166019709055
0.034873387468233825
-0.022129511439249672
-0.024958157168020797
0.045051294704008454
-0.017720292805011726
-0.015945363192146653
-0.013555930485133922
0.024926544986400873
-0.01403437761953929
0.002553493365698887
0.0025463525859592993
0.01990229368863768
-0.04326574604554458
-0.036990966068485044
-0.06593186653905024
-0.07979332103835945
-0.04652027694703579
0.0038762385116164143
-0.0013999763189204211
0.00038556858184779307
-0.010074706654912342
0.028994814357083537
-0.00024370114593770778
-0.008092188975775896
-0.041854383826635484
0.005763105794128928
-0.012320104063306138
-0.014172457731838124
0.06365377028279172
-0.020304200512372972
0.00583697294109543
0.01955992769549368
0.0442889836897824
-0.01810483312034458
0.03248036062475189
-0.06040441968373348
-0.04614603340154336
-0.029042382119214373
-0.03557826876774227
0.05317264375913023
0.022754076142412566
0.03140897937036301
-0.029214012982779924
0.0004387721820145941
-0.01658352914385928
-0.0017368865523325527
0.023982197795623668
-0.021154296605698217
0.031306580308003894
0.040181471873829165
0.008614352330201198
0.04793955527561851
0.040729131670107215
0.017508522078996714
0.016028010281903184
0.020767745232162436
0.10291540550477542
-0.06218596412641057
-0.039847042273926554
-0.034141805633867865
-0.023544700857073435
0.014525718629590288
-0.010172300251012734
-0.03309501007709912
0.002033173482544916
0.07221796764376079
-0.01332583966324899
-0.02236026444259335
-0.0019046031068604226
-0.009006811748812482
0.0033317372854520795
-0.013579415903733854
0.01347791920673995
-0.005829717573543778
0.05237212268466638
0.007742168889702084
0.01870726302409108
-0.006822040087402391
0.08450667358317586
0.08241550995219615
-0.007179191160571789
-0.03536434255819662
0.014507610570945904
-0.13405608177052936
-0.05812665036555975
0.07288318072510772
-0.03336796335269231
0.0014460479309915321
-0.017635030162412992
0.03309433655742646
-0.07427492678949524
-0.03176861000941368
-0.004146296634415889
-0.0006920160951035273
-0.028436554201421965
-0.06232546278912875
0.008977574854725489
-0.032247546423964414
-0.014619953539073093
-0.008500537247421976
0.0029495196880602505
0.01822676990776814
0.014909180452018682
0.04903643519444051
-0.057513447857004255
0.011134770205939585
0.03733129980781284
0.013573313765292814
0.010580757442284334
-0.030787061961791578
0.05044447271027465
0.010708964361209715
-0.025655410673964974
0.008255383750266118
0.07234131109796524
-0.019260676428506263
-0.0006902660303325201
-0.004493034040440059
-0.01409323435314873
0.035638941431229816
-0.021969089351102034
0.033583645348094104
-0.010623369509286572
-0.06292683052704112
0.025900423339784467
0.005200708879488108
0.019957584334396646
-0.010004486837399755
0.001777726080939503
0.009407161146850819
-0.00419817119160604
-0.0024604896705223956
0.006008713529414041
0.03174549436430077
0.04886694211594479
-0.010226502054020889
-0.014012366767025285
0.01786068248487974
-0.023804876786272213
-0.011335985839092143
-0.01755499072809577
-0.06150878285670227
0.01898654413524669
0.036507201529326475
0.005422888675247531
-0.0038954008397222937
-0.004429583033036208
-0.2193722568531749
-0.10924997643768788
0.007457117995315336
0.17243479165229897
0.10163859988581679
-0.0033452499070756314
0.17365273680470408
-0.0344539402358691
0.06312187569951022
-0.03882428019092047
0.01768324392220638
-0.03668679257638047
-0.03336778263981227
-0.08089846111137744
0.05182820896933832
0.02074655825804373
-0.008728778030884583
-0.03620663434063026
-0.00614428445638376
-0.043633468404373196
-0.061898633877078196
0.019858487922367694
-0.01686733570354868
0.01307701002075293
-0.004662197557707133
0.011719237522489061
-0.0014444845142063713
-0.012303606923755643
0.010638606154273015
0.03451867749307845
0.019481429502040522
-0.048792362005186427
-0.03682957637703262
0.004481023260198151
-0.023580070274979752
0.0018259033588902168
0.013652885956681089
-0.02134950897792168
-0.008096823160052152
-0.016200759443193827
-0.02233835791463874
-0.018095500886391492
0.08147926482668932
0.0403116039109079
0.0048184619037529046
0.0017514388971876748
-0.004458737088955027
-0.023577840213800588
0.03880585569636288
0.09732834577299518
0.03317724113321653
-0.03149836499179608
0.0024473998733647757
-0.05145102772425027
-0.04504053327131608
0.005085658704526576
-0.013876440219075178
-0.0065379987711330885
0.05916678477935114
0.028944222720513602
-0.04208213908751073
-0.03191753505930086
0.028051172497905015
-0.00896774103390414
-0.01177043557640544
0.0038053107835224025
0.024153248617098482
-0.052974067515300406
0.012565975848156127
-0.0020950776950885183
0.12868501857887563
0.07286495405587887
-0.05567080254674624
-0.03895245517558306
-0.03242209879400773
0.013643520705058277
-0.00820498647428733
-0.05957354716724116
-0.0029075927983594077
0.0028623598065653437
0.04392107333821812
-0.011770794996018517
-0.05003463267376991
-0.015331361649016913
0.06634419715058884
-0.001558903101279326
-0.008390992371029532
0.02433757971439344
-0.014460221471018261
-0.05868045498432615
0.11489907016938788
0.1688978178051341
-0.05746160118771588
-0.02902033405602126
-0.05685914820856968
-0.030852876116409394
-0.04181925428503749
0.022829318795103002
-0.029595078317014578
-0.023101369538339033
-0.05701794207254932
0.0003508129713324169
0.03767558670026753
-0.04938378831067968
0.01129245702814336
0.029938227235033053
-0.03766772376839581
-0.027773527485954616
0.027585058302759754
0.018035873880391417
-0.008256370247628273
-0.0380002953908594
-0.011139115561369647
-0.024150019717835723
-0.01314573914295523
-0.0005267119193314146
-0.0009393506605653097
-0.03126158500814836
0.13291173846608192
0.17022487869802644
-0.024203019344456834
0.054613904472755125
0.013658977237306592
-0.007734981810873205
-0.06258701430247693
-0.06402718156613783
-9.032806618635176e-05
0.06063570841548471
0.0008847491892353235
0.043203273302575874
0.03188666508801691
0.004221401769020675
-0.008218575979955836
0.010839069451288928
-0.062317478515182205
-0.02122578301071703
0.020794370180770214
-0.06435377442405349
-0.025315328099351293
-0.018858903067761966
-0.021544791654651004
-0.03876911476190735
-0.009395718785287556
0.0029260884961343353
0.017698085196720014
0.00565833422801132
-0.012562531127922324
-0.004414881550050306
-0.00865312803590563
-0.001333726470831142
-0.01758222772501059
0.009712008792817708
-0.01547109600758278
-0.004331200538068444
-0.013634944891757308
-0.02229013632698371
-0.008470265915340645
-0.004444464755669281
0.02469697608766217
0.01922191781688255
-0.017544498497418817
0.031122925264258073
0.002017196656831447
0.0019332131747627091
0.025597288787621963
-0.03952172777704406
0.06865952491999786
0.04498252579339844
0.0014108326550090029
0.07006994691859682
0.0014420183220436276
-0.003449427932117922
-0.007803271414550192
0.013971889770519342
-0.02299326922736874
0.02865026499342873
-0.0015487104032519167
-0.005850151950759699
-0.0326289815088803
-0.020130741447070798
-0.013426262916119303
-0.021093697683516863
-0.016998805808118893
-0.01367403871193903
-0.04423664225849111
0.0014165833678485608
0.004012518350078128
-0.013900372941567736
-0.016201616289124917
0.06234040990110842
0.07362621710094189
0.1410861072604882
-0.037674125144929495
0.0637251852316618
-0.1471916664160368
-0.20240996993376242
0.03994231956100166
0.013944724338046709
0.05218135691172329
0.030710671588999892
0.04289530849788211
-0.01378450554869303
0.03073622144046484
0.017650301059138597
-0.01224159984755907
-0.014159663986652693
-0.0049330451206432025
-0.006662045057100377
-0.013468915162536848
0.004633091516182912
-0.025096024128567467
-0.00023054048686430739
-3.607743282024662e-05
-0.010780454437661213
-0.04537393933002368
0.018196919700572602
0.03149360424093776
0.011043234429117805
0.019912091194248718
-0.018875191913359967
-0.02220964868021076
0.01756477160591446
0.00801442536847471
0.03345632060661814
-0.1315267636376678
-0.07232276822622821
0.06106741124469729
0.026848122649707495
0.06262567149951605
-0.02797032319688486
0.03606501348547766
0.020941279657392124
0.0665592731330297
-0.029268915375657772
-0.019888509476164145
0.020148521118585665
-0.047263493485622816
-0.006131615048910752
0.05971526839934073
-0.0115782512031139
-0.0038498925225037618
0.009614417073627868
-0.010558407403206287
-0.021467332618826638
-0.0074672849399447915
0.013814753945594465
0.007893916809515046
-0.05538485993804627
-0.12868460367695422
-0.09649832409496509
0.05735547631081136
0.06154738281652238
0.02462508921345648
-0.004192532112437787
0.029123212185918443
-0.007859820207202696
-0.01636826268221609
-0.020554256469498603
0.013436651923646601
0.006858658430888029
-0.016723367178512416
-0.020708931296837714
-0.004942640565858815
-0.004990941437248177
0.0035647372738583987
-0.014850284452044173
0.11930817610117891
0.0975976057661093
-0.03414516107372036
0.07384721883473
-0.00786097618248739
0.010087564025245693
0.01291826144164164
-0.010300920957923933
0.009952344067510777
0.1683978216077803
0.04037028795027179
0.03378120544654472
0.022081826965000568
-0.09125060474115347
-0.09649725975299084
-0.09231461078451579
0.0023343286953942193
-0.008447550939938478
-0.019480636840626744
-0.017227518290949796
0.014372195037762225
-0.026659858969087097
-0.06038861282793331
-0.15641832294589147
0.07714334499385388
0.036693501959552406
-0.011404011182601165
0.001279255682474946
-0.016622895889315717
-0.027822938408001593
0.037186033539557344
0.032051233640344026
-0.05239295572614221
-0.014619138809040444
0.042393765191026375
0.030326603803354526
-0.003924345819549499
0.016464684005217244
-0.09945707259888331
0.01494077623721498
0.01107372221654412
-0.03542836670801442
0.03008736002988123
0.04946229367407741
0.04351970499470626
-0.01806093653772111
0.00321556538673148
0.04752152683788041
0.02310996761387181
0.015044096228796369
-0.07025051603758661
-0.05170285466839206
0.010064561316234434
-0.022771335216714268
0.024798751261751552
0.011710590852568994
-0.0034080754696716405
0.007304033721555576
0.04308881653895874
-0.035134465136630835
-0.08619110194235444
0.0008497940915719688
0.014503182619533072
0.028397710346767215
-0.01188994268951178
-0.017303251058941108
0.008467607962029555
0.012588964801533126
-0.025072766246278688
0.021800328195579758
0.10969221632997478
0.06713874530487642
0.024547506362206352
0.030771161731269057
0.008335926866568678
-0.020631795940819958
-0.019866073562587128
0.023505412762284426
0.007702951796887424
-0.044397322900079125
0.03248188860082624
0.05540988610818112
0.03365535896388699
0.007002407818030757
-0.05625566880617403
-0.014013911737696533
-0.017434490069197194
-0.024600427587903612
-0.006062090883865868
-0.005345689445981896
-0.17031496072615673
-0.04947324564075646
0.030110216405475076
-0.022408558762855024
-0.030756305474822263
-0.010158167402290757
0.011535991663197109
-0.01274089714963261
-0.007197781637226245
-0.0003172877437800762
0.016718446322995833
-0.020672419085251866
0.03207644042324256
0.08738280559988706
0.019291176265765327
0.01900275335765139
0.030459590132958063
-0.0038738527833649034
0.026220665890828193
0.009765866247295791
-0.0771475544757442
-0.05832805684777537
0.06481998776354868
0.03295855215768245
0.008347489157262848
0.027400308620966648
-0.021807237735253074
-0.011960355779350215
0.03677152333674572
-0.035202455450995845
-0.031155482262229466
-0.01692754534234866
0.0033134978103563895
-0.0017735579728657453
0.025589766420106425
-0.01801537856214557
0.030005834692394553
0.06884391413158558
-0.036995435802392375
-0.00691767186041596
-0.007909275529263581
0.006839426821281096
-0.04393775180689945
0.017053786025935637
-0.06934607702234416
-0.2421534141347727
0.04509115122588371
0.013740457327451905
-0.03226310394392985
-0.04947535476514419
0.008917974936735183
-0.011928579903959272
0.08486767341094104
0.02977334858782541
0.04701086508043404
0.1758853847229227
0.010726837159472622
0.013885498926578655
-0.02510600588900185
0.01828098866961801
0.05167505513044187
-0.005793187901675844
0.009450732428195977
-0.03465476832999437
-0.005372092725616127
-0.006805877236661822
-0.017176647706616612
-0.024480014411086805
0.008504514979800247
0.0349567332472053
-0.03133078379093646
0.017181457885053198
0.06698241190338743
-0.016605842736055025
-0.03887566079764541
-0.020193103127154284
0.0165647111622176
-0.02146097617843198
0.0684168800270541
0.0512823259044137
-0.03059853656399244
0.062249021087941524
0.006741044067040809
0.004210155281367933
-0.00106639655246826
-0.030380420522163144
-0.11154126753835096
-0.036912919902197035
0.030741676676022584
0.01672222201812881
-0.04442829098821145
-0.07194843642344975
-0.05179672856542766
-0.020813851730195718
0.000435421653728382
0.008247852291463662
-0.027810975024682282
0.002433895745829085
0.14474273415222338
-0.08407830460141091
-0.025762251108388194
0.019007882775777547
0.008717313271519932
0.000327874821298428
-0.029253432934094357
-0.011533073656035094
0.02518895252435444
0.05085521384751173
0.151695972065237
0.009274187540715628
-0.018116765461135078
0.010720538221030881
-0.019416510537534265
-0.005629307683398493
-0.013630096905434716
0.01344905988055538
0.023729318509724293
0.01621959438029253
0.013112573093073359
0.023679820578442326
0.026673779172070387
0.012062280463310369
-0.0014556790557247192
0.06262281219995103
-0.04778361785744577
-0.1554274323596005
-0.013986489667293212
0.00126929543744085
0.008691402752429557
0.004173896764404582
-0.007111992594524505
-0.03960986593980674
-0.048602503119551534
0.003056589503500109
-0.006288442347925863
-0.02877546550156268
-0.02301739041599033
-0.01489765917599683
0.0520581460275393
0.04964730222479863
-0.030284340902112437
-0.04460609480197837
-0.015084193551161244
0.031810124519936624
0.04008996207657654
-0.01814796857410598
0.03853251977614217
0.016758042087865622
-0.00014568908137425093
-0.01242806528396518
0.08290846177559386
0.025599540721298438
-0.019942901791997723
0.02164224967801001
-0.03580127405666491
-0.01698306037490121
-0.04217674519156836
0.040263834812217104
-0.017179852364147777
0.04657838238108056
-0.02871319280080726
-0.03127756101223382
-0.016281114804029665
-0.1705957617497719
-0.008341031509834352
0.07103490661443843
-0.019157371818652708
0.09906854070966242
0.023869739096260226
0.0031829130868409584
-0.038527381679912646
-0.13287522248753278
-0.020376273162956267
0.053505911031033436
0.06836678301110566
0.04346362367710818
0.020279998662812996
-0.03389488405010367
-0.03070634357922749
-0.000442108566716697
0.010164635763329061
-0.007426490155676327
0.017495345532379882
-0.03055478514954854
-0.01871620649563526
-0.03821446870298527
0.0023684074682301746
0.00702887920209761
-0.0005938805435870831
0.042026554897628576
0.022576632955225252
0.11830199613516512
0.08494080784546626
-0.0711771319472227
0.0034324253930482908
-0.029611448397613118
0.004068888904542017
-0.031593234389872805
-0.038855800689561446
-0.08780875517303008
0.022422231337595293
-0.03393547945156781
0.06921854001787868
0.14756119514723737
-0.007618204597492297
0.028523164999254624
-0.0026016484054806623
-0.005545538779201272
0.0358600235883002
0.03561066967296803
-0.0034353927920995836
0.06552804837477762
0.010833534123545601
-0.04538758833955408
-0.015564270630242317
-0.017307179114949722
0.010241230372855422
-0.012553587679868417
0.004009518592024601
-0.0024733902176430106
-0.01683478533955297
-0.02283929828078351
-0.024163690527606217
-0.04049876495979007
-0.02509268767708491
-0.028347511950002003
-0.0003921562889144342
-0.0013641167891194502
-0.021517183724117556
-0.0076745973774905414
-0.015844564898547988
-0.009467775459893656
-0.05122271155919783
0.035262724411536966
-0.027599152329747578
-0.002782009399689862
0.03508767989061337
-0.039700914704267905
-0.0576453700244174
-0.011802021086895122
-0.005611552903354134
-0.004613555295118719
0.05682102908337618
0.001449835761247691
-0.01008323738263189
-0.015767058665472643
-0.017821255157168578
0.009393041895959393
0.1388553853296165
-0.025156599504484223
-0.007931697337994127
0.049954475295410944
0.0333683968753981
0.005289985730583383
-0.028174465351087065
-0.006636004998399752
0.00618305127825325
0.002277464678288434
-0.0017470156033102934
-0.05253795965956745
-0.02335992821344102
-0.01317717840696521
-0.025394624164094663
-0.046266650573983874
0.09737748161451931
0.0643552324689185
-0.04272264548582083
0.018701149877271582
-0.024979386637430757
-0.011618669143318173
-0.031038189587927305
-0.010865466946981293
-0.004048934451086005
0.005837348788719477
-0.037213380097342104
0.10986554851694215
0.10970551555546955
-0.03534292938241437
-0.00419599365332598
-0.01970234118792443
0.021983790661548125
0.00648362283933873
-0.022678728865696184
0.032755259499911
0.03251199306452169
0.01937677282765255
0.013036300531220023
-0.03265618363577205
0.010217075416437616
0.005295082799772141
-0.11299492858712719
-0.02268486717944247
-0.050593299745874544
0.10645076809425982
0.062418747388114336
-0.12218905503701652
0.0013168379997288249
0.055401074499345365
0.022402822817834574
-0.013098207845983784
-0.019395396024094787
-0.009186492639436805
0.010364449921835097
-0.019966103730478427
-0.005831893278168215
-0.012738691745545835
-0.008202725873645027
0.010841967352653472
0.013804906288018354
-0.006301920783227151
0.026886098021417965
0.02340752688746359
0.004090637131918283
-0.0030575489803623315
-0.009729105303598991
-0.04216344757952608
-0.0327336884144213
-0.027910863732461703
-0.04853497379105912
-0.06132490965069246
0.0030148611962919794
-0.014275723491907089
0.028273196358454555
-0.03131470280988399
0.1371865483650053
0.0708549555834812
-0.005849443450444408
-0.005533480886347557
-0.037880361932834915
-0.003351247093909082
0.0028256812148474797
0.007929985682667765
-0.0027974049472432733
0.007987063704988853
0.027985183515868636
0.042853604638246445
-0.016611616610958647
0.010596897133017884
0.08770895477134186
0.036999882547323774
-0.002002214906752083
-0.023726383915614036
-0.00021506796387526188
0.02366483950179933
-0.016965129919733656
0.0224001323661131
-0.021449611207174115
-0.13082982954278854
0.029058883966417134
0.00166148741741795
-0.04336817567979303
0.041863084678803016
0.005132821716972053
-0.05258586902195393
-0.005227662129049404
0.025214491428052897
-0.031061564854916682
-0.052218551448074274
-0.023109775105512844
-0.011658646803111381
-0.019989584955362332
0.10594649536909961
0.019111539834141076
-0.0763072004192317
0.01564651615691905
-0.0023612320638127077
-0.05160066159746905
0.0451119331794588
0.020138549277412612
-0.010915029489924828
0.04145727377545432
-0.022321630119069083
0.01696142038968817
-0.018567104673249003
0.024092033127305026
-0.1039833714823758
-0.05006735766672027
0.03982867038484336
-0.013229346781195186
0.012115208522090824
-0.0007602653940091904
-0.015631606231328178
0.06518841078103538
0.05532690116754653
-0.02143180537603528
0.03140045556105305
-0.0011871421793674865
0.02366245029622484
-0.026037656404688265
-0.00011625418017482413
-0.0012378955713874538
0.01709969593860566
-0.012041396632068976
-0.00513275833131791
-0.01775260461206488
0.005761539834060331
-0.06973638448130354
-0.038222051305365184
0.012098511904537264
0.0029721297786091195
-0.003154929763150497
-0.037559356679220154
0.028862046378385135
0.002651821074217012
-0.025795044329134858
0.16231459849140614
0.006363004226757262
-0.008527811238889746
0.02735398898631575
-0.01565900365843516
-0.06785404688253421
-0.045933568420754856
0.027023617287412482
0.04551893571639548
0.04348719613687819
-0.031563468599299885
-0.011935937410251464
0.007548122940300432
0.07334099978934552
-0.00020672415977900774
0.05532596005409813
0.03776731300194033
0.025744918672623202
-0.037224495256593396
-0.002919577295631416
-0.01704376910356668
-0.0033628803414908173
0.004647935983428338
-0.07366100114419875
-0.007035444748372758
0.004444233186749189
-0.023704228538676587
-0.02792966325923644
0.032746846361809676
-0.023333560552900205
0.026939011969018663
-0.02101475696054253
0.02585829173501687
0.04672500609078852
-0.00992801724529457
0.024043626245323493
-0.021216745183761848
-0.020322439695714355
-0.024841861963358063
-0.023050140274328456
0.010288561818524626
0.05097792321415512
0.06234528053053404
-9.22143254836889e-05
-0.054702649792084966
-0.01680764821456173
0.03210081212831954
-0.010212514992700029
0.0029973040609447606
0.036391407314511626
-0.08123890712829156
-0.03039941267733348
0.0027677324530729097
0.03264589024302888
-0.026763625947872904
-0.058711277387563265
-0.006072792131505179
0.00015259880136921094
0.04613094295963199
-0.013892956521245696
-0.015867704700346357
0.055836660038800355
-0.02755917933186135
0.0033130705395286075
0.010304729163832033
-0.014908328561506212
-0.049677106027071836
-0.04970755791407012
-0.03193787200105299
0.0070225597802184465
0.017227857522955598
-0.0004092355251481589
-0.00522402210530709
0.04400964729270546
0.012025648748748957
0.048267629476353775
0.10421476090820309
-0.04811962483698948
-0.10106478854920414
0.010828952365218282
-0.0034965223039148466
0.0051558301323045355
-0.010497217589396868
0.04898136638930301
-0.012966550912814801
0.0032571148177015226
0.024555966556617993
0.004067914332201684
-0.04472965515748607
0.00583158598007374
0.01708717851000927
-0.02337054344202928
-0.007858447748386064
-0.013354617878135092
-0.00693950457475243
0.012827806969128745
0.031620678671137076
-0.023089130007505496
-0.014268191081346077
0.022792171872651524
0.019085389911822116
0.012950788208741149
0.03859482492940142
-0.01694264794569636
7.024563504349034e-05
-0.014676044897806632
0.021575164865621853
-0.004470663149827927
-0.016113241149620667
-0.009426764764727421
-0.0008886432615273397
-0.04007616185895037
0.010842185602180402
-0.045130388567920926
0.019018115727584946
0.02151276484525649
-0.03081638377842193
0.004419518592970968
0.048203277156404635
0.013809909536889368
-0.005482416720787536
-0.019236387387617186
-0.0005104884661697335
0.00872675482496369
-0.0684018896676701
-0.02257756158271859
0.04092788468154355
-0.029254925306431673
0.013831535138996105
0.000322226308744221
-0.049720623912225745
-0.0012627924799010048
0.01839767973500795
-0.013762894602362089
0.06462113897659522
0.017310091693062406
0.03904790348339795
0.0297053436650716
-0.021672326671158804
0.031139628000793902
-0.00015508445716291494
0.006061957341128005
0.00873286164283639
-0.006305651899992169
-0.0461488640760263
-0.05713608419518021
0.005388937036105221
-0.005968967230249325
-0.010645573250759448
-0.02695436801170178
-0.03676795617513495
-0.05271521911870683
0.10983840484517393
0.09098277689774228
0.019885366899123676
0.04055148257195929
0.02095714921126917
-0.01091738538628888
-0.00827380906974898
0.01671254583165008
-0.009443220587136657
-0.021529612641696512
-0.014632411606078434
0.003684685346271377
-0.006972112174980125
-0.0049812655648368235
-0.0040893331929519085
-0.028630970383745225
0.0023969149628030855
-0.013372369822981262
-0.027093779571213342
-0.03574085392543656
0.011930175381772802
0.13779415072456522
0.012984267521122465
-0.00670101271723323
-0.017101076496490356
-0.007103801935953032
-0.020065093419245034
-0.007662175412058349
0.00031470378356105827
-0.08196277526146348
0.043359252754083616
0.1134245596182142
0.016893418373078922
0.0008322799618180678
-0.007367383618331933
-0.012268578145107943
-0.007010886084977772
-0.004921276430610734
-0.0465226311114746
-0.07260444994981494
0.025920765939514565
0.0007580015745520086
-0.022692188259800208
-0.02821192100494105
-0.003750744360829282
-0.004553005301880183
0.07952044563201498
0.04278838875868853
0.05729505322563904
-0.012626360544116033
0.053425801962847075
-0.07957103207206914
-0.05718969453094403
0.0660277856141082
0.005771667404647684
-0.03853833217053966
-0.018421965347195916
0.053343140849329944
-0.016327652020339728
-0.022090205313891352
-0.0003934415266025416
0.011173768466476917
-0.027296428860420233
-0.003243555320196139
-0.061503082242757294
-0.03935456157599854
-0.005008272696679454
0.025585950782485434
0.02485421541632018
-0.04557818119344837
-0.064737167767695
0.008721384452666636
0.02478304900793256
0.0019160324307013724
-0.017115289311151725
-0.002927381884006112
-0.016522275568652642
-0.006045444155821034
-0.012078814518293757
0.04086293274536329
-0.02171006163539008
-0.0012296517912801144
0.008997601962754564
-0.0033806222767831916
0.0013811939324799454
-0.006709344845594384
-0.028947893870465077
0.13677355640208147
0.028674358793575945
-0.006939028951156523
0.00491075359237353
-0.0420887557284125
-0.007470481949431737
-0.022277949987040125
-0.012498956946806484
0.03600588839046462
0.029818704534616863
-0.07227109723975303
-0.024864497092412192
-0.020430511665997467
0.047820607573121884
0.12045509351104912
0.00781522064766103
-0.023846648292801774
0.015643618653866737
-0.037543674331930794
-0.006691722572634353
0.033192829109486725
-0.016206386047225036
-0.04272632757389449
-0.01910688096076805
0.01645758736399289
0.06679474931748233
0.005740032116796747
-0.012818984176647044
0.00861995948552622
-0.01940428627819931
-0.019588719238753428
-0.021393195125250068
-0.006577318237358324
-0.03763214007851591
-0.007406834381989578
0.017969694931702335
-0.039685245386740384
0.07192215549176442
0.07218256796597333
0.08674212902418016
9.955895153691415e-05
-0.007780060714250586
-0.033314708417987546
0.0075741019379617506
-0.04604780513217924
0.061247858141045025
0.012420400018112067
-0.04644994291044341
-0.036955939956136566
-0.0796712051787906
0.05809188204305572
0.0028846845449601996
-0.012744946321031323
0.04829109615532104
0.0039546019785698374
-0.004079475532696083
-0.019456497709127843
-0.009847986485239301
0.0034422661339713638
-0.02394448683540638
0.09772265314504157
0.014240616358340888
-0.005963140201411644
-0.0037248466668130566
-0.0038150477099050226
-0.0055405328093839894
0.0004733032089663138
-0.017453122054001645
0.011395473192304845
-0.1577826787343044
-0.037062822524125676
0.00932719738984986
-0.09113834229752726
-0.047437200545490235
0.02686140475575987
0.10877218057018202
-0.014801285892105063
-0.01883971478587553
-0.036860046525033684
0.03874038614710974
0.05647564394886984
-0.04090013394112434
-0.008089628767661533
0.02474555345454213
-0.014463533870248266
0.0739662171202193
0.11519711375128495
0.0036842334675079107
0.05741210833102111
-0.01699470664817051
-0.05150813646754883
0.0036840617699867733
-0.02690557442153059
-0.010488389691132811
0.026582762637939555
-0.03227296506877177
0.0123203002826294
-0.003207750993801245
-0.018372262122395146
-0.02599651924872278
-0.0010240766245733527
-0.002300037096256366
-0.009911333959092189
0.022722180639204902
-0.024405473159270302
0.0479660895693597
-0.044232890665361374
-0.06561544867781455
-0.02795518516181156
0.013458447893655167
0.05660171335035194
0.008992386558495762
-0.013778981428347093
0.03901853508247958
-0.015328671763949402
0.010766051020972847
-0.02219062988810025
-0.0034536908987033072
0.009601435154036293
-0.028041956986097346
-0.010836719524483717
0.00469299552634761
-0.015114942986398235
-0.04194382247380225
-0.008677140039905613
-0.014191812045247805
-0.062166119836224186
0.022308654518271374
-0.02152981104346273
0.0843055508730069
0.12879914407459725
0.04664020750171951
0.04671080401207436
0.027140796652407484
0.0016566528256017467
0.005715167627389566
0.06187238802545405
-0.038462773526662226
-0.1079197762075693
0.013656189092832645
-0.03267250668401631
-0.007729652950483779
-0.028098992947303517
0.11136547547986277
-0.07009916708465928
-0.12463650094874242
0.038050820423012
-0.02412610565329333
0.03081566775867536
-0.04021101548160599
0.005143653315276621
-0.02713328862395091
0.00625839241572816
0.03755654531280062
-0.013572395451140036
-0.03628169747616164
0.014016925783616647
0.1606132987329142
0.016417748585528524
-0.03354670491516969
0.007654525430198744
0.07029625410297888
-0.05750592218227615
-0.030846066410939926
0.023377365841832747
-0.03167820063891748
-0.006355141077286288
0.00030732802360146843
0.0036538174760070456
-0.005733186048955871
-0.03224168200166123
-0.038747581220521535
-0.024861385352332184
0.04525454838244253
0.04203818108144566
0.02324546378160706
0.04294272313341327
-0.08575401186482484
-0.003486135214940784
0.046611846886192805
0.011599878916831811
-0.005089938158202671
0.018459918244338677
-0.009696264063990108
-0.06256277766073516
-0.022851531601692864
0.05623090996743103
-0.01564542297698822
-0.05698274301148574
0.010760244406318132
-0.029713622762762255
-0.038733969283892916
0.015611893263238164
0.04361089044717408
-0.03212222627077295
0.0043995680458978215
0.021950967519822635
-0.0009067185410482775
0.009342538695119675
0.002200188848365643
0.009603587620405005
0.007155128159473524
0.062374466812093625
0.06430421323269876
0.006330859287931349
-0.0011063349278095803
-0.001292600859858439
-0.015538296555423815
-0.0037071755200682884
0.025727121166267623
-0.11516135678178929
-0.10573376988016937
0.06301905269348564
0.026561923133991184
-0.03862859405867514
0.013157570191123132
-0.005874499063229004
0.021507546541430094
-0.017381052976358932
-0.008775693519955616
-0.00380327753807332
0.021724978704788307
0.012294880097267685
