0
0.04617002002588804
0.024378198101926978
-0.029238692996260574
0.025974246495224267
-0.0025102313887518297
-0.0016040335862251458
0.02421446768059669
0.024214817348332706
0.07318578798327208
0.030333645290827434
0.0026949445117856715
0.011552673581550786
-0.011069260379513942
0.0037022548581254174
0.021139476156125707
-0.015420116764974706
-0.05940337937202773
-4.05189965187716e-05
-0.041460220716692316
0.0018272694907148096
0.04138110167949644
-0.00864669092151196
-0.08571533007842433
0.021826019884191937
-0.034680130777894676
0.04770499892979927
0.008810960817954619
-0.00024833564770425956
-0.0011198799026415894
0.01924559622399768
-0.01638552119258196
-0.04964769187731701
0.01425119812669612
-0.005624302041218449
0.0010964173660995941
0.02980941171691775
0.06836830523776366
-0.05095796205775163
0.04761665659328813
0.06576124835709866
-0.01314917363850443
0.03899096002699468
0.006558184924370595
-0.031800654978838765
0.003664272415997576
0.011260756239006011
-0.004450282803739872
-0.0030156295465153917
-0.06689370369959124
-0.17950721943083206
-0.006927208853987938
0.05641080778904647
0.030786502567081923
0.03464535815300956
0.007916262097948453
0.02810647046090544
0.034075369260662874
-0.003659554945674003
-0.009581241840154908
0.043550706561736804
0.02178452120536824
0.010009213943669928
-0.08221789166516434
-0.036281356431277
-0.11225537403249107
-0.04786851531158399
0.06668074022703951
-0.03838751562386311
0.01363432193562284
0.02068306399311001
-0.061345957765606494
-0.022898886616586477
0.026937820477160646
-0.008638881869070499
-0.009034344992746485
-0.05990960604555879
-0.013173858862501202
0.015785654209100414
0.02491275913735185
-0.017799826777065913
0.010209908240767252
0.01110462440030638
0.026960669114596048
0.03010699209531707
0.013810951843755045
-0.01682517176709143
0.04952785512573961
0.04922628947223187
0.01962540627806121
0.0710107070429527
0.028190944657844226
0.05427385791101883
-7.562038550828737e-06
-0.021889254931455382
-0.0223535089098478
0.007691135933499405
-0.018465961606842798
-0.044227000530675756
0.030632786124394535
0.011107347284988803
-0.007199274021168429
6.277639606582235e-05
-0.026518830349274974
0.0014060164047799226
0.012833045619441737
0.020529337292595328
-0.03406205053137672
0.015031384504799631
0.04515108161938272
-0.011656978462685666
-0.00886135690872627
-0.019489103309412104
-0.02406210704304988
0.005047725538676126
0.03903736018674504
-0.01934269921461428
0.03329627883538182
0.04959564998379941
-0.009124366512896442
-0.02143011417333313
0.008064448257354185
0.0029207437402303115
-0.03204199068577218
-0.041325553407521594
0.02889678820107023
-0.0018075723425163834
-0.08353777872977089
-0.04297617156887369
-0.0016307217196051508
0.03422172356865111
0.0074642647593121956
-0.02698324145251458
0.03744950422099179
0.049870718153202355
-0.044954024884324206
-0.010649777009451477
0.018251419991492105
-0.023362454874081055
-0.07798695969035571
0.012987715784887168
-0.021285995154002625
0.018263106179148544
0.003293169441741144
-0.057790691404511756
-0.07958211158821377
0.02117759130796852
0.015249843369754745
0.0034886008254840133
-0.012080230987911092
-0.007763274813526126
-0.005694363400141657
0.0717283951109534
0.014834906078595422
0.012481464681124259
0.02088134492078536
0.03140059495523659
0.027503470555343974
0.07081755135500806
0.06237977069980668
0.024542037635620056
-0.02279641955673622
-0.01342680032547737
-0.040540412887228774
-0.02535165043681197
-0.003908404213580728
-0.038614674477782586
0.009179664588302437
0.012594004410730778
0.03796343916435392
0.0006901042094833223
0.030894495077696774
-0.004146138816340954
-0.004153112080859379
-0.01991234375448017
-0.00658955257797069
-0.09773496989909791
-0.018598007523824643
-0.017670536798842413
-0.028217435769942525
0.015441036156786646
0.012026460465371432
0.0208529742237568
0.04460730566382654
0.01934630483560732
0.018660872068422287
-0.028376336679375648
0.039213299271897595
0.14850587458340733
0.008387311605400051
0.009544704020088664
-0.03762321814770356
0.02418283337928784
0.025563264796462582
-0.012200322061039978
0.01960080748646073
0.010655278070363417
-0.1482905294942348
-0.11014275495198751
0.0028448900121641764
-0.022387298999863987
-0.01050556582862571
0.0008600730327917674
-0.0003349946611070367
0.021711803076510584
-0.0009313939313940692
-0.016255608581185754
0.01022517828936609
-0.024513314135558732
-0.018505073062498448
-0.0016063080242605453
0.02617544261067389
0.0097005457182153
-0.01110722589749125
-0.008834596629165659
0.0981347594641604
-0.0835787895535972
-0.09071214433704719
0.035856862706633755
-0.05454504800117733
0.00623068519672864
0.010572014694623875
0.014070972320631961
0.009872207470301464
-0.03522286003950286
-0.06524485842190393
0.18735189418762582
0.16761377814154893
-0.055341123362934126
-0.021401616778583387
-0.040088435034614414
0.004304892279904541
0.022717547884925512
-0.029647529083573754
-0.07536114501232971
-0.019966411449477875
-0.008100109045085251
0.038685154730969326
0.054318928982190574
0.06736139319930858
0.023420059372486132
0.018183028080854216
0.023589414185340586
0.002078104289380413
-0.07399708405392398
-0.020093982525067625
0.011123472485831419
0.008547260950756462
-0.04135653626957707
0.002035988874569233
0.029575756333717014
-0.03441642051786518
-0.007288758610087286
0.017001074936149194
-0.01585719309149874
-0.01524934802328304
0.02138365503796351
0.03378401034938006
0.01584031275107029
-0.05772596199727028
0.007154982853460931
0.010968176050708418
0.04406301691070037
-0.01959950093213058
-0.018149541754684834
-0.048214702368391656
0.007697789160909673
-0.025118572008868897
-0.01607221332266763
0.02297439118449206
0.03782734474839438
-0.04141862909329866
-0.024652591172434443
-0.05183336105734464
-0.007675500427379805
0.133275769494366
-0.014959662597452657
-0.007046893773772117
0.006805655193848338
-0.03168415615189761
-0.007775593130571084
0.026287169826771015
-0.010155832130044274
-0.0013456906634901056
0.012896705860620847
-0.02191806947048629
-0.04456566863015568
-0.015243119895170016
0.0068119655909085735
-0.0364593174850169
0.018511578462638015
-0.007660879067700473
0.10990431244238373
0.06531079856422367
0.010754457818291476
0.011118247458293724
-0.04548857839506064
-0.014967698873558347
0.03870903694907699
0.012981361998906179
-0.08201826515384647
0.009186088888086004
-0.04230404129080599
-0.000394945057779951
-0.03852986387464189
0.007290775360152832
-0.032070967596297864
0.09166974325923592
-0.036650591836680874
-0.09243977600052018
0.12568412578474844
0.007773988243028786
0.00890364791036061
-0.03699470282315142
-0.022625873146354922
0.008915870800935666
0.09985960732459899
0.06982073417452289
0.024686787942083597
0.006835082594945457
-0.005735106551615379
0.004843216448700736
-0.036767467880595754
-0.012843132264711402
0.0180905431751176
0.007456273303227463
-0.10997893513914071
-0.011951465950785419
0.024938666837199558
0.032306576069513024
0.0014410140203491675
-0.04911902240247212
-0.021566908974438963
-0.01241431298297822
-0.019919693120684524
-0.001277754614433665
0.019015557761919506
0.0005696294076041977
0.02804556456075298
0.033406769879792894
0.013432561707527883
-0.030136004597248536
-0.031456675513469014
0.009746285673618977
0.009201448174214769
0.01800493536821474
-0.049667954065861365
-0.01866802651915376
0.04356799637698868
-0.002980898241769203
-0.015575840503716168
-0.03477633019302608
0.02750671712935214
-0.006348760452727025
0.03391846556822059
0.018400108817786802
0.030276608936889344
-0.06148720104166576
-0.039275071158948426
-0.018404391839733216
0.012097590689782004
0.06057308529199494
0.0019051861766335263
0.00947169199788179
-0.0071186392846069296
-0.010857713813663027
0.03867457902708853
0.009574433543932193
0.012145280342139003
-0.012591775205359809
-0.0012851485750721239
-0.0857519180833107
-0.1102022803079244
0.04946556311132645
-0.0004508812185302859
0.019112799049193073
-0.0273389292493945
-0.028920692605887893
-0.008154258285554456
0.03986476584460623
0.012015901659925264
0.0027380076386105197
-0.0010025156303524968
0.035059787531795984
-0.0034596041070213543
-0.019220275309737526
0.039308405981477904
-0.010820730370583502
-0.05115447863701634
0.004474380790319734
0.015596147167957344
0.018839158191179158
0.06418809581875706
0.020152014397530237
-0.03688152164169233
0.01547790094629727
0.026968611513706348
0.0009944772404890008
-0.0008883662053058719
-0.004640884102701692
0.007751760347761374
0.02367864456586442
-0.0014105860589501832
0.01009212442331623
0.002655515891055172
0.02510161434371428
-0.03476625948954214
0.04662219039729632
0.0031107173950274667
0.0200942953625665
-0.018699632430338675
-0.006460827876457231
-0.05496507630483499
-0.13133418776310474
0.0006497242686947349
-0.011895226973746117
-0.008378422560404181
-0.025395076154440366
-0.026115346514963694
0.011441444616198334
-0.012142224768084454
0.0025145480554102932
0.04686686087971844
0.03547049653439377
-0.03921524093458501
0.06859484789314499
0.013555313467890953
0.012895215413587017
-0.008799619376848205
-0.018712229380805794
-0.053151439037453556
-0.023772542887618212
-0.0050410521192049305
0.08125548579963908
0.04655143990507462
0.12366686969122906
0.021322537206852503
0.00358976524029045
-0.034006644221270574
-0.08434693312141506
0.04999257947870558
0.011618684940472988
-0.04988073039748273
0.00894747357305082
-0.030399148550355637
-0.041693771548734944
-0.03291594752251222
0.043030020500515194
0.03194294916916645
0.03536852777302411
0.03590272723623277
-0.03760432428514044
-0.007915548939829651
-0.01585231287290527
-0.013055507714486972
0.0006447169219284335
0.0027290198666392977
0.03037200463495752
-0.002370313946776344
-0.04198443195383329
0.008951909953489618
0.001759669945620759
0.029486319095644493
0.052102615129439755
0.03483169546166578
-0.030298930210262587
0.025243337687875574
-0.012609725196198218
-0.06768087748824639
0.005433508198399841
-0.018135850875494134
0.02363140498829535
0.03662052736902571
-0.021410422511514
-0.022399614335854107
0.007272316094752041
0.04447168416726894
-0.010271750158171772
-0.01237920976588043
0.026925885219173478
-0.0004015862616243834
-0.008273747504970633
-0.00452604220528986
-0.17281151935352343
0.0049284756033218784
0.03844673769146541
-0.042939599781982085
0.05506443028914746
-0.011221913669654455
-0.014688334545736632
-0.003969651168436727
-0.002350391900477127
-0.021327971857474363
0.03142030872384806
0.057094787123453845
-0.029470924918910225
-0.07442462784568213
-0.00890413238810909
-0.12173942931383527
0.037139781007234605
-0.03131094533872121
-0.035979703785500916
-0.01268567518182306
0.028946285391700032
-0.022019575138296592
-0.057841315579802474
-0.010859707706230692
0.017782238377237084
-0.025867236622906874
0.012540043809333197
-0.010988670212136235
0.013416673119482754
0.03396628990227607
0.1538283940890852
0.09728894871433541
-0.0057981598191759924
-0.009131195770196004
-0.0200852899018706
-0.06739033542248368
0.07921819191569969
0.1694693284700591
0.0275776449210987
-0.017596011427478908
-0.0008499861299017961
-0.010322821672645836
0.04377165991957761
-0.025138667763421028
-0.0007082317644511577
-0.015810455016770336
-0.010295866507426255
0.014170164654605836
0.015667218270428114
0.026240458298288822
0.03978561042590351
-0.0010490388461468559
-0.0399728881515115
0.0373075021048336
0.04794569004599772
-1.8580477379147505e-05
0.007966814773986726
-0.036165266291685955
-0.00475766725145159
-0.021511697204280596
-0.009274335843409321
-0.000305491619877745
-0.03867142954153961
-0.07520293840992602
-0.04244056582879853
-0.00396331642883586
-0.009449375609480502
-0.005930968987070307
-0.0364742119419037
-0.013906580118025449
0.013232651637273126
-0.018333614768655453
-0.013316195359952574
0.028141838083564727
0.00071971668896813
-0.043243167939418556
-0.01755860560176305
0.0037101613982452944
0.01983982909894876
-0.04849006784391968
0.022067801495526132
0.02797643239790334
-0.0015103937739136947
-0.008001713337438758
0.051393745787241346
0.020651115426785514
-0.010397040499545278
0.004465328988998281
-0.011659993268420552
-0.004397734192929748
-0.019805480798243135
-0.051855717048357564
-0.021111883730955548
-0.007048637077598766
0.0015830950571209326
-0.02027865478043799
0.030525074435321133
0.01973140070597916
0.03655456572494046
0.04347395419914221
0.023811675605049754
0.0390134900033214
0.0025733809249835135
0.0038093616885637996
-0.041795748207830524
-0.007244066530039162
-0.02709160549450252
0.027263129067655798
0.01674725336937318
-0.00487155433788444
-0.043058027493379496
0.019301562969230412
0.05094257643646608
-0.006859020612035028
-0.012368061683067977
-0.010708502146655446
-0.06815207509146308
0.03439138876188497
0.014004564114548345
0.004032840111886021
-0.005028945378505787
0.024042977909603473
0.023366563460535505
-0.003491602580708456
-0.0023723599446388707
-0.051194583667937624
-0.01665305241927845
0.0067872854199897805
-0.015829653551552147
0.007664286279412236
-0.06285163760588698
-0.011540852624165246
0.005265181111608698
0.0019783186907990436
0.07573709720666921
0.006156295046946584
0.08779852482289573
0.02640374095784613
-0.012932742354178293
-0.011429844402809307
-0.0710323676559369
0.014848269302048625
0.02415032909643634
-0.004040694925726643
-0.012770061897723069
-0.030323550919751245
-0.017186260700485533
-0.014478810996250032
0.03552240382402283
-0.008248691367072588
-0.0026262097753658054
0.0170635062536635
-0.005260813259321465
-0.016600001346732066
-0.018244682134871862
0.016776781757759634
-0.008614978440597889
0.03751349779892218
0.061084034072805875
-0.006308750134339231
0.0166193462427253
0.009828432084634365
-0.008095360164133725
0.029487674857557242
0.008433439871492802
-0.003079545607417389
-0.039985755701462566
-0.017637005617737556
-0.052920211901932156
-0.038215743371989915
-0.004191099766188366
-0.013106229375729073
-0.010206900441935637
-0.015771266554525064
0.030003793559344332
0.024950445734693887
-0.028591896219030723
0.03454742777523784
0.02945431886253185
0.028374737850692493
-0.008412417872179117
-0.026051429384250865
0.006679584171118242
-0.02163081096099016
-0.006486363427411944
0.009664836789436398
-0.00870833433732152
0.07648102060212132
0.05696114179976396
0.00811858660026579
0.03261357650770941
-0.027265748077908245
0.021916128788035984
-0.09454816690659747
-0.07856274696585465
0.07684727224084316
0.01525573512420232
0.033157081241612214
0.0012034020756895682
-0.02947571674251497
0.012146309531795737
0.0005618449220845145
-0.19775178654136683
-0.05325037572613087
0.03342709367499756
0.006811496754266449
0.0013529786270372742
0.014999149439705949
0.013117458449809438
0.034922077301038995
-0.011865739605964494
-0.028514554082714364
0.007206013316351326
-0.022104692690516674
-0.0009710784764642838
-0.04505389074779585
-0.0008155134582558235
0.03939198199317796
-0.010380844701608636
0.002889870967193795
-0.012613705900010506
-0.024491263128610025
0.01025607871913589
0.09824546153523978
0.09668774648722535
0.014379956366818087
0.010269563394185348
0.004745417435703178
0.0026088733831770615
-0.08425402083851846
0.016815810450292415
0.012355490659963261
-0.046681193334187666
-0.028976098871463116
0.002579501301129219
-0.028423099960207483
-0.011064027960181721
-0.010234294527903585
0.02452111661548083
0.09386838605305736
0.029068328960007012
0.04794763340793659
-0.022441989437890164
0.02217739646286988
0.007967854207065597
-0.04882726707272975
-0.009766280672704984
0.014741566799684767
-0.011341526815996063
0.020462332975209153
0.0058748315755420945
-0.0031477785020455184
-0.011322030896044416
-0.02008332497407683
-0.0008633736097759159
-0.05347620549838111
-0.02718299547600745
0.004080476833334158
-0.07050110856037946
-0.06609254170429812
0.0037445452177252017
0.062195050195635086
-0.001120370852988712
-0.0012081443031177642
0.06338720911683977
-0.012330500907099022
-0.02469886000078646
-0.025274696186521662
-0.03164680383566264
-0.011631639864838473
0.041212821148727
-0.031241973272729366
-0.015570149583672995
0.015081433350880311
0.045205464059315116
0.012990963361001289
0.027439679933367586
-0.049447650158462864
0.08593210802184238
0.08671751385650825
0.09154935182644054
0.04490664352282512
-0.007664904675516435
0.010631881936437127
-0.036098324337429384
-0.020788874935841084
0.016476477915783477
0.029151355384989072
0.0013910894402540989
0.011232415074162082
-0.0511612181951266
-0.050921334479936485
0.002284195657314766
0.01801312616254964
0.0013791708491383704
-0.021118572763068867
9.517405872271034e-06
0.01659594156308948
0.007934675452176968
-0.010982178430101063
-0.020469115989161908
-0.05966129523015276
-0.07865550004878041
-0.05022770955517673
0.016579666693994022
-0.03577090389349831
-0.030042214287928717
-0.015656903207390133
0.1130623390252838
0.07513261277966664
0.005348209363712369
0.016665861979675775
-0.002995840487894929
0.017004442645437847
-0.01776614834136202
-0.03208622171014079
-0.03735432716312146
-0.009239262633979058
0.003633938488617001
0.01963610183703472
0.023298099448438536
-0.007079763349866424
-0.0025053442187435992
-0.0335536107350349
0.004395254815643643
0.004362429004971318
0.001089958863997153
0.00810511999431949
0.021446513711943328
-0.011483240185243668
-0.04817026001157299
0.020349410588507113
0.023124754756516982
-0.008657470805011913
-0.015481743847395589
0.01027675941704551
0.014847468551980577
0.0005731015699273494
-0.034913676451226186
-0.02134001964607809
-0.033008337553129506
-0.00857754647842023
-0.04388909831774786
0.04701596531541527
-0.02764089926800287
-0.07922920699390346
0.035490561050148084
0.019394301393960155
0.03926968364308447
-0.03474337831008124
0.03556105834161521
0.11655626603365978
0.019981148827775203
0.040090912363866485
-0.008783413801720525
0.053560200812492686
0.06198009109534701
-0.02520152452081682
-0.0026232875520416934
-0.030587175487028127
-0.04747412784872619
0.03850010875226964
0.016009989144648275
0.0041493455764683084
0.03488171622607437
0.05211387001601694
-0.04190610372525509
0.006809087692294479
-0.020734455563138396
0.007334496043518169
0.015037714129530465
0.009852060746397336
-0.03540048994383879
-0.022809481689379338
-0.02655048059565022
0.03206070671204044
-0.1509343975087419
-0.12845365644296267
0.01819381540171141
-0.022255409259435626
-0.015137351363810293
0.012329851956599011
0.01705087455823924
-0.0016069824515530361
0.03832730472667341
0.020589373974052767
0.01883936639157852
0.01028037962976595
-0.019266448227598598
-0.049673195605436364
0.026224309884880694
-0.014776676489539535
-0.04381589742066358
0.016404807457334056
-0.03446773324383281
0.007491121014630975
-0.029321383840224143
0.05440520841389776
0.12067696304242202
-0.014749149080564074
0.003615871546453304
-0.012932906164401037
-0.03838302761623158
-0.039359790899459624
0.014736764619733797
0.01371847522010225
-0.012633153815680283
-0.03264348742331393
-0.007755508700084218
0.054829007279202674
0.045749847172023905
0.0019476723772935706
-0.032168645271578165
-0.01442792801613112
0.0035531889256772867
0.0028897870135590705
0.008245462842628027
0.00915425937693421
-0.047191880656283144
0.053116630050086704
0.14020225081189341
-0.060313752954614684
-0.01804235810831997
-0.009110534860224844
-0.020378933634619095
-0.0021132386363142855
-0.05055368329768098
-0.031194871597454633
0.008565163813601456
0.056578040702932805
0.005085740017504304
-0.07169311763023192
0.06806200914327289
0.15199138541586613
0.004506315900639583
-0.02649857194188057
0.03183070187803011
0.05235024168550828
0.009993158815182574
0.025262376079041034
-0.02584487457338853
-0.02068592589658964
-0.019953373827991554
0.0006318745086471467
-0.06607216258490631
-0.08761283832752695
-0.006601125258716141
0.007580129615063385
0.01409110218550911
0.02978104777889318
-0.03727654847063624
0.0037299652297454883
0.09731783516494479
0.027372273362562757
-0.045965634230070024
-0.02352125637098398
-0.0006709083395766263
0.015351583548087931
0.01867302954723331
-0.03370678632201851
-0.0015027651524040684
0.0006471587715470022
0.021127991773354195
-0.007005662413184401
-0.03622178821802293
-0.04769411253867298
0.03940349131569703
0.0068984089794854086
-0.050433398531989096
-0.005580028925790886
-0.016104729576491714
-0.01914790570362053
0.0068898282894022354
0.014658566181604512
0.01027519942843997
0.017401434179600876
0.057280016889327316
0.06936084387365915
-0.019814881920153467
-0.051415984462334564
-0.026812849134431955
0.015091701943568129
-0.011434097794671411
0.010860018749627918
-0.0002845523514327752
-0.03561447502173688
0.02632639005768179
0.017986926035219137
0.033122400962011606
-0.00904807158137323
0.05917116924434932
-0.18403475080359905
-0.16867609904089115
0.05894947704780777
-0.015531683890268346
0.011246322065262602
-0.01833780068693539
0.023856493392144025
0.025868741428317743
0.011026495677143333
-0.01894590461410093
-0.015501426365955704
-0.02591078545594027
0.021294769367926222
0.008172002231811717
0.04119936478981829
-0.026909415044535024
0.025525919599599482
0.06279009539258162
-0.0004195188369092717
-0.009891860426168981
-0.012500774555425554
0.0723122306177221
0.036428955185334184
-0.03452741047207387
0.019973267369444884
0.03465934168072963
0.053469868894468545
0.012387047253313015
-0.06165655775449247
0.023087887786768756
-0.004660155296576953
-0.0015289272386262867
-0.00220737755147248
0.004747172663037922
-0.003222127859148889
-0.03038264825457781
0.04561473956206363
0.017517917099209544
-0.0672056829140148
0.0028728038727684675
-0.03492396171914985
0.013886388842571018
0.025289933012300172
0.030889275766157485
0.05177069222230564
0.013189690325300945
0.0246722929145188
-0.060348269650943816
-0.10943578346090933
-0.02737447942789702
0.010338082802106671
-0.002108511268257565
-0.008773561381437592
0.03417447110442986
0.020623287328740216
-0.022779715233087545
-0.027476855314443743
-0.003391101587786422
0.0007632371412776361
0.0013593477988535151
-0.0074584898856226356
0.010472764936770743
0.0036661064562017757
0.0625164262291835
-0.028364893111049127
0.02331575274667407
0.16426167665133504
-0.022663518044266712
-0.028935990007178503
-0.1805881508134452
-0.004878249288249513
-0.005021242042712986
0.010754307259405021
0.01302229870449415
-0.015255573022891664
0.012368746531921132
-0.005054736199878788
0.017683435820573096
0.0634799377174188
0.008972202351653889
0.0009125702186141063
-0.017373560019919465
-0.014891715365774362
-0.025621790733702
-0.02401625560892033
3.2896694270869583e-07
-0.048937601405999606
0.004392034413263745
-0.0013847507548452073
0.0026887668029463366
0.0017008700024400988
-0.021409156875714222
0.005752582289641444
0.0035606405188245357
0.017352410148594146
-0.0037216234693795923
0.012144019326656014
0.0066173465380206286
0.004398080858482163
0.04167581820261538
-0.029464866745454128
-0.011532211297182616
-0.04840991206431999
-0.02682136196647468
0.030562559271389185
0.02265699245039158
0.015336913198909353
0.012454638019030548
-0.02620096971415908
-0.053549724049879385
-0.01481226563915269
-0.033883021558434166
0.01578453973345107
0.007903297120389709
-0.013235327404350697
0.008298097869266136
0.0029117325391611578
0.003673613961336343
0.007178049335753941
-0.020241724412946364
0.011956919316568048
0.0029348762156733853
0.06943426470090565
0.13685207871760674
0.015208752752680523
0.02546316698248794
-0.05398340909599685
0.05082725496225049
0.039067054753273066
-0.009187573749688574
0.005735657280666583
0.0026109711980232416
-0.03184633865288012
0.00215543106626645
0.00107279747224952
0.0019804134563885076
0.0033478822390234134
-0.012197189998863964
-0.03997397695673682
-0.007732414911764573
-0.039713367115983104
0.01438515242923465
0.03632001829566567
-0.030010992609069503
-0.04586226747582815
0.05470821151274504
-0.04291857608300444
-0.11121803935828793
0.05071619488027155
0.011272840739773896
0.019405837131000934
-0.0025097098605794724
-0.0022689600443766868
-0.00630787395465389
0.008834898387435983
-0.056094570417605134
0.0028105019487971697
-0.008136466851762607
0.01530527530445251
0.01764519007684759
-0.01917439954909101
0.008991689142219936
0.1516096308816809
-0.04330699795247258
-0.04231725611889145
-0.01257341611327994
-0.005815765375894024
0.012378719010930093
0.044445630913958284
0.024022850755212106
0.013738037452288434
-0.016246034392820546
0.00695245264321433
0.01975903930855585
-0.009723788357997084
-0.022226521789520334
-0.013610439362615566
-0.04693720065414897
-0.003982551346271459
0.022757985908492654
-0.0106918286516818
-0.015585852395757814
-0.029396786993110064
0.014281522705326039
0.048357353915866104
0.004666773954905922
0.0385915246565584
0.010267879205659476
-0.04239694822403412
-0.004032906160521176
0.026333240515783143
-0.011522470851399085
0.030301975107408285
-0.06905656608639968
-0.021804493290786105
0.003662767016811445
-0.010574456800695464
-0.03884950524889142
0.034538336216773415
0.054867098120789805
-0.03479926002443104
0.0022344517941471436
-0.0017961610808168516
-0.008271978262651093
-0.017028294347293197
0.018263164425660783
-0.03182429817631244
0.0097705869684865
0.04486873934691603
0.009299757704327992
-0.004197864565545566
0.04330306959907944
-0.0025914588018772612
-0.051616082323636084
-0.04814500693412179
0.02703522408313555
-0.013815884366299823
-0.1302303837915727
0.00942361465393875
0.023210777772705152
0.055463116301050844
0.014867391465917965
-0.058209782358693334
-0.04152730708155581
0.05414504538012166
0.009258543339586341
0.04006417093840713
0.043340998774851876
0.018798541009848707
0.05955437191554004
-0.03437211973668381
-0.0022144592430926964
-0.006735801864599199
-0.07747245788805836
0.007791675048914033
0.010453188532061961
-0.006980640418514999
0.029216193872709743
0.01985492161096093
-0.01495916013612527
0.022800101187327063
0.006848146811485498
0.025017591707042125
0.012493529753169025
0.014715787947221034
-0.01961269408193387
0.033869650622194915
-0.07613868709438881
-0.13692768154717241
0.038627751250307665
0.02220050869107755
0.019477064932001766
-0.044200750155485184
-0.022840672484922775
-0.019714200236770677
-0.0010885053300520825
-0.014891626198422027
-0.010290871726891974
-0.003348574032146045
-0.007418080236526265
0.010721223317815573
0.012946906478691893
0.028208957794132895
0.0128154697229424
0.021493664873259724
-0.0247694826208607
-0.02085787033846584
-0.009842445775451002
0.049994388234670575
0.17782908494944002
0.032783771718338926
-0.005388350347486006
-0.0014342784011742269
0.007824047009719724
0.013146055088534399
-0.0028039970863301205
-0.03300383293440943
0.011445697633400722
0.02241689676746585
0.007108990031180352
-0.003918445772543066
0.022864277428122293
-0.02991033167386816
0.008927864415907202
0.0407937859229845
-0.009769343633088458
0.030556381514295416
-0.10139144287402344
-0.10559141769216658
-0.018388517411671176
0.014755956975636409
-0.008168427063825296
-0.004822630598915652
-0.0236782232809921
-0.024647869050182288
-0.04839722131524979
-0.024526962888113783
0.03444427553429719
-0.009781046814094857
-0.039942800021118274
-0.018802619641774702
0.11062881117972391
0.03693056758877553
-0.021390126192312703
0.04048921135212153
0.005427863881161218
-0.02821761721371044
-0.047452789034365415
-0.014542836401302507
0.01171758346729859
0.022697561626304975
0.04170905226737375
-0.011428199436269182
0.005423373981839831
0.004117024104251539
-0.024127145248806017
-0.005849399673591587
0.03673587298846172
-0.02862454967101412
0.004230526205754342
-0.0025479131554283817
0.11135019769724064
0.0632203014008181
-0.030821133587072707
-0.09341803268338758
-0.0058258394696427684
0.010606565706547564
-0.0033066489060262225
0.018614045432343115
-0.006340395352350184
0.013661810309693042
-0.004990415463634774
-0.010306487942529181
0.010949235389841012
-0.029602623119430627
-0.013956475885171403
0.0373846335396508
-0.004049723987201062
-0.03186279302682559
-0.012499461348725227
-0.02554335748329696
0.025902669147791844
-0.000978294212578151
-0.01631338703378288
0.0021947144891388643
0.03638168898969257
0.006069813983006023
-0.017091346387882407
-0.004380793293218891
-0.019011362840693984
0.028873550484123885
-0.016890671848589
-0.0002936625191569165
0.02273577712499431
-0.0041546983591232425
0.058410409308690625
0.0009408385123814777
-0.036205405428512624
0.003208663487376327
0.020861262748743045
-0.04204004144191413
-0.020137786618423574
-0.05328691321667434
0.03465341295054471
0.022020739733406826
0.016675646984109817
-0.026623778892049234
-0.011779742402708994
0.014981936845929867
0.016049316334984583
0.006288509367758075
0.0460857861586834
0.013889178909537163
-0.01949745194052876
-0.04625943247186489
0.00040334395823063684
-0.02054525786181123
-0.03160054263301859
0.0452644966780682
0.13280313494425175
-0.07500806117631101
-0.04239974627918326
0.028030089830874308
-0.004539844415843707
0.03264702164656148
-0.016765776918238814
-0.01413610070031604
-0.01608752049812049
-0.023217653466269954
-0.10583143398955837
-0.003348013642238909
-0.003139672973487546
-0.054240432175066515
-0.01388852766246431
-0.01368246632603521
0.03646513974015782
0.11311344720729867
-0.024944411801770462
0.006064387851827047
0.06357781693519556
0.0885838535566345
-0.03526213893682809
-0.057034686473639025
0.012774088719868869
0.09659698259144556
0.06988776431841778
-0.014978399594441662
-0.05586606072370896
0.00038461517396246297
-0.034623856578919913
-0.025456790451705347
0.006294566339610074
0.016880982206819807
0.019215233386029238
-0.005042537682865231
-0.027327968004589722
0.003283217442920371
0.02051795665628455
0.06734655004082357
0.029849539947076762
-0.0041569750701080125
-0.032452761166394506
-0.042733114753403446
-0.015307687314670035
-0.04297044521884387
-0.053698546187650104
-0.019952569605748937
-0.07118857553202013
-0.04709326594182924
0.004737158081653827
0.006237278858149736
0.051821467296262025
0.02783938567221862
0.017328654032033725
0.055110091800144846
-0.0032458167294654376
-0.057808933746238016
0.05327662388991576
0.02570136127933904
-0.006042207342670469
0.027623714361648823
-0.05328541511595213
-0.003110256253245341
0.07852227744693444
0.016251621596513294
-0.0259694430425842
-0.05773441693732719
0.0182151851303701
0.01550526208467485
-0.029204794886197986
0.035852196852173786
-0.04497496341407818
-0.12198738483330779
0.029674793386166264
-0.020431004162162817
-0.0036160620797596153
0.015863326199382376
0.0038038324536552094
-0.05256069662380073
0.007624197609266402
-0.012546151427702436
0.09525801484402202
0.0739363013830137
-0.024893227366261157
-0.011691911646394987
0.04333667556839463
0.03348870583422981
-0.01821595227209721
-0.10271311051218027
-0.022417825803901524
-0.028136841209920892
-0.010088434538633164
-0.032666230743565165
0.0377881749397028
0.06099214387445615
-0.02457198712016536
-0.01429667096536532
-0.05297529566515512
-0.020728311462047667
-0.004755750292827664
-0.0074038664784413085
-0.02253912713316827
-0.008252898097045384
-0.010970876733040426
-0.03247295352568792
-0.010763368115883047
0.014998920357197347
0.0141379509920113
0.11370740795599181
0.10212899067461263
-0.043805936299151624
-0.04534347583892044
0.18026107265886734
0.2271853578591326
0.029522069598862426
-0.018654288388476905
-0.030173695108653396
-0.0665599693595623
-0.015975393802144945
-0.02297812523720082
0.003198609284249046
-0.05646825918304283
0.05194305034146341
0.09039989732002675
-0.035434857711879375
-0.021656780403302104
-0.004766929172651055
0.03663505439101546
0.020119893630877718
-0.02013534734182119
-0.033515781820005905
-0.017462007220777856
-0.027796284688865507
-0.03383890767842089
0.03915476784361639
-0.003305640575311312
0.001027616651970634
-0.01859399773097101
-0.0009167633795602141
-9.641075549274893e-05
-0.03512482917865368
-0.04281119528269897
-0.018139975572274283
-0.037122521771230176
-0.08910909533724438
-0.07270855874607539
0.025759694160398812
