0
0.006749760199034881
0.00812551210823353
-0.1002320847315741
-0.029772586610078262
0.018156861425624334
-0.0014075971969109509
0.0029352250791759393
-0.05920991639911812
0.02054683018218229
-0.17725202634849507
-0.0694583300374136
0.03492986725304932
0.048264459466937575
-0.055447082500240406
-0.11904710905127457
-0.035281990064948726
0.009947168367010034
-0.013000264137224425
0.05904412664136552
-0.0031629240230536706
-0.0061280515516334575
-0.002886047689213479
0.03204700756647731
0.011915996360356852
0.032901454134833016
0.07024620613425424
-0.03480001728307759
-0.0015178621466910294
0.13533026225763192
0.019611765036777695
0.03435957552875256
0.057512572383287386
0.018755374668296368
-0.009955980708155359
-0.016268880929733408
0.018133998848773807
-0.008840718022460588
-0.017459538514956744
-0.02744484318506918
0.002725252683589037
-0.007357374863705694
-0.041275164509918395
0.012353663390567662
0.009689837537982918
0.019565182897529954
-0.0380704905713051
-0.17490850916639486
-0.024041542117200776
0.020766948392698336
0.05607319222962128
-0.02440265581165642
0.052629047493079936
-0.0038368203518977036
0.03375777373161336
0.014014434110908568
0.009123998981186533
0.039225529647212785
-0.010569302664696967
-0.01922216299293479
0.03340583914870516
-0.01053749758973876
0.005692891737729565
0.011485676625511311
-0.007270191731150987
-0.02960459173190309
-0.04271997493955287
0.044718485145731644
0.024682249712299004
0.0060753318686246035
0.009757979247322301
0.034533077369135134
-0.0014560796271074
0.030252562318898616
-0.0414616342060311
-0.10846867319687796
0.01881796370746263
-0.014910586606916023
0.019091958642579086
0.06354950145292922
0.09828203500028095
-0.05246398919754968
-0.01603058225737282
0.011383127563945522
-0.007357697652459192
0.0009823394306773907
-0.0016010194483427633
-0.059541935507239054
-0.04911183021682731
0.045825757003119943
0.006835111885407809
-0.005191177601404478
0.07965949020028948
0.03115594172736407
-0.042620125849689904
-0.02324459494921522
-0.008525916434216635
-0.00824479596548069
-0.11861958957920507
-0.09639938679133342
0.0591193192704755
-0.004948641249973848
0.009884532672534993
-0.02238938759605396
0.017567228423190303
-0.006719213589408772
0.008881708805012212
-0.012157898822312194
0.0056424068203060045
-0.026036168098047277
-0.02044918873831256
-0.01798812110241427
-0.0669260262237063
-0.0658479845323256
0.09271110872671205
0.11125905126036112
-0.0070391816160051395
0.022736888461559968
-0.00290580952401226
0.03012800615440804
-0.0650062518453233
-0.054270245489215725
0.010391251612263811
-0.020565398117981193
-0.01609881352677552
-0.013909319464645603
0.06654524367669601
0.12552983329336745
0.023492628717168562
0.01565471706134397
-0.01950235254858067
0.035373361760415105
-0.04668864079200169
-0.04872756746272497
-0.017213850248298225
-0.007566665515137486
-0.019647474204381548
0.021884893820394054
0.0885136056763073
-0.008571552417365898
-0.02452829358214583
0.01830010047873432
-0.006154036370019504
-0.011989501030960026
0.006659932813007598
0.04062005670438172
0.020960640565741852
0.004348602480767848
0.02256184657274491
-0.11897298774814036
0.021249112025596203
0.09433769563681839
-0.022424843900732933
-0.023943957312625767
-0.03827468076126846
-0.04630080662382216
-0.010653286440040552
-0.02247793113476203
-0.0070430067763812354
0.00967743071943925
0.0018608661086338318
0.06547014120263558
-0.011950759127393896
0.0077723806569413665
0.010339953192712767
0.02939963817286122
-0.0020169693685566483
-0.034529775041484564
-0.015589031746075295
0.015904392946973312
0.0037792380082467708
0.06533458731439165
0.025637284708695193
-0.0236397341900432
0.018189826752670894
-0.0428891337383728
0.034694520652948535
0.07262322307258448
-0.011391983208098951
-0.015686801692602288
-0.022128140256186604
-0.025885437034178293
0.09827747774653135
0.044772432838124404
-0.04712127484306471
-0.05691097196450216
-0.03343248837459098
5.10029961924396e-05
-0.03495520710215549
-0.0031795169207040723
-0.006756603112579202
0.06630550562260328
0.031427309166982206
-0.0012643540709667267
0.01028028219090143
0.005115965984309145
-0.057895306056508486
-0.03596572443400193
0.023482250418171514
-0.019658432822663
-0.0480386381348069
0.016216984377464484
0.020904594351180496
-0.004680243988333481
0.004865992256853095
0.0006533138322834143
-0.045778834824306315
-0.0032887181261156188
0.026478838144087632
-0.04936592148284955
0.016583678073522876
-0.03027350961649779
-0.05208241665304599
0.028514697834507857
0.05490594755483504
0.018789617933651897
-0.013902423045226705
-0.011198445476272825
-0.009876650577175622
0.03370217634688438
-0.020531710060025483
-0.022281193240170305
0.00966153241719572
0.054161048032584425
0.005129302418450982
0.00028190693194715075
-0.1479398263514648
0.004954761070904893
0.0513342177905984
0.030701196823798568
0.04794491478531776
0.011619643976468646
0.06041967369287242
0.010310206305574889
-0.008978534571673724
-0.07017844489741047
0.009164004419285289
0.03436645975938927
-0.035644581662272246
-0.051748215877538
-0.04430711997052804
-0.06287545110163636
0.02777300121093859
0.026316939904815623
0.041555156064071216
0.01260127894259549
0.01821613488880165
0.018067991552188006
-0.0741210050946801
0.02274987898325628
0.012828969985629827
0.0485113358729904
0.014324168186270303
-0.030041119511362274
-0.019613085681863953
-0.01831438466741578
-0.000358593760926937
-0.02817047268351151
0.03719932400483668
-0.0014791509048720404
-0.004326017954223508
-0.005561749957027234
-0.009933167437811443
0.012390497226420685
0.026946683164703906
-0.00804285022440227
0.0015943518315468927
0.007226594035236027
-0.008935328033746824
0.0174767625700951
0.011555645930392369
0.0035568911588436717
0.017018709538454906
0.03777575535513516
-0.12124634713488901
-0.028790841632017318
0.03812271628561459
-0.027753085823104272
-0.04684414004769402
0.0009057170551615914
0.062093068469869644
0.07177184295902135
-0.03467998862424363
-0.042827774891338474
-0.006011002628854474
-0.011991365537562292
-0.013613724646673769
-0.05996793564007393
0.12260069222028995
0.08621162174410782
-0.03916280368414583
0.0315218421785113
-0.009239941238099065
-0.06968466614409698
-0.023196383217013
-0.03653986515595978
-0.04640466209623138
0.13888859825624914
0.1068629641462033
-0.10180542584704401
-0.0961577384150524
0.049677588213613996
0.024765054293127284
-0.07669255902261253
-0.046769640598117716
-0.029216182186413458
0.11356809118103678
0.12682616375642666
-0.029046159778092183
-0.10635361782967363
0.05196024137597821
0.10181082533752182
-0.03508127410338016
0.015405982968765294
-0.010426502294258936
-0.027355376526984485
0.003634830385623721
-0.00023710888222216723
-0.0023409579608552047
0.023951695144205896
0.015109511269697581
0.017763219490601022
-0.0701784153979858
-0.03386944669273141
-0.01038721476145328
-0.022318112737008542
-0.02220060501694497
-0.011376290428254655
-0.017625936807407188
-0.003993788530436479
-0.02586647014597682
0.02802872123534385
-0.05345642352883118
0.09483061881153448
0.1468155595805924
-0.0238200396172549
0.028402587895668987
0.02647925960954003
-0.008367039672170394
-0.023329103533355825
0.015972158369872026
0.016104676766425786
-0.005693021923918839
-0.006813169403093215
-0.030550064308472638
-0.0389770634086972
-0.04133408832820689
0.018381839843911094
0.037661961010220006
-0.04506658277294904
0.001054642049582378
-0.036465168541928245
0.01125852335430877
-0.007741863578114598
0.06898923530925642
0.05629045548972885
-0.0028122693821806366
0.05004753644714423
0.0003366147743656136
0.04151390493444399
-0.012029243460893964
-0.024145143824155182
-0.02004672127103025
-0.01441675181154922
-0.0012190787870342708
0.004479685631581857
0.053872625420998015
-0.15920576029439756
-0.044583980556800115
0.005591402511454022
-0.03561869716304661
-0.018945703186983572
-0.027258014093583013
0.012210724443144489
0.007270306380815042
0.0011763890603753234
0.01491135714270771
0.005426664621213549
-0.020574464643342207
-0.019721131490807876
0.01804242362497903
0.06634834753082063
-0.025479741624405357
-0.002398971550472662
0.014880052577025212
-0.017481738616027146
0.025725239885486886
0.04270191479471037
0.05267347119801771
0.013989124521399937
-0.07301897664369658
-0.02809072060179717
-0.03324417159371552
-0.019481882448451057
-0.05220083366105014
0.016949142553500017
0.08205409912663475
0.006312487889646079
0.0077200603857373404
-0.034628366301266
0.019302136577033467
-0.002090689612708468
-0.04790280363483713
-0.022487783541526044
-0.007522079478506024
-0.03302889278627679
0.08016381392615206
0.0404091227258513
-0.022482852380200688
0.020259166809367176
0.008018254481364508
0.040083538089971164
0.06233457648428606
-0.024428367274337875
-0.055313404884219826
-0.05118778720818843
-0.061364957066440635
-0.03760551556911176
0.007779005039511927
-0.0054126295018205725
-0.0801134967549581
0.011804768407061888
-0.017436403362527962
0.026242797601352143
0.01914515364901557
0.004255128138291879
0.01735754532012326
0.02792381090189526
0.018375457191613077
0.005645354086171364
0.026311087707790313
0.004266690561129863
0.03120122022567011
0.19926860199125745
0.023087814716694924
-0.06188638505501051
-0.016610177459653735
-0.04894743901302142
-0.027143326591116734
-0.028132549363849606
0.0037183053263568286
0.014741049539272461
-0.013033718550591171
-0.012770112690060693
-0.004026241354900694
0.02962416438217803
-0.026031257991213697
-0.0003193733801945704
-0.01796253585791175
0.08451627737074077
0.03805666627800275
-0.03610180183507888
0.02464513168700664
0.032240325334868356
-0.01801664369630354
-0.00012193997231538072
-0.019989642953481036
-0.036982749010373434
0.0052797011048297295
-0.0071895889865466545
-0.031379789281223015
0.006282725189569226
0.004945238069828738
0.016745715708493192
0.16131750945222254
0.004843076921912262
-0.006867118186773522
0.0044219217481154096
-0.04198136960527386
0.0767801360490794
-0.029375206918237837
-0.1281007650087565
-0.007841580319408703
0.0014417333292917433
0.0001576038533313458
-0.022360956340413858
0.01897440240836528
-0.16868112881332836
-0.058269479904352356
0.033194338607537746
-0.006023602276292717
-0.004736878866846499
-0.03698882552229157
0.017572942238059545
0.021735423322808724
-0.013118435847174512
0.010765602278774346
0.0009179349162034822
0.0026118561674638055
0.10281750607737944
0.03959858170410334
-0.022767782589743272
-0.02446324974231902
-0.012505074371767764
-0.03110757039264942
-0.01790102223208994
0.07479701933208975
0.026646246594239642
-0.012796044216627576
0.02441679146357318
0.007870527458601024
0.000911994059011084
-0.044530686420660395
-0.023509711966827277
0.0008338926909719557
0.004129442953994046
0.09100138823119495
-0.009724448601371458
-0.020770300273562692
-0.01974978114758091
-0.013624645287478155
-0.02743829685212198
0.004374972597755621
-0.00317755880049861
-0.03233551464916814
0.009475790243770656
0.005981893633349224
0.0032329685450516207
0.005431031654658996
0.05694241238991911
0.036807923296726136
0.006834460622239839
0.020155887309364767
-0.016785377995236547
-0.014919694329259423
-0.02757663861670137
0.05724909472087463
-0.043855311750872
-0.09100116821778588
0.04515119541461424
-0.037566364786608845
0.021551364412192436
0.020844847885197606
-0.015075537020427552
-0.009216090863568907
0.009528107596522995
0.0006061131522965996
0.01386681461006739
-0.020365241863791097
0.0029101202940195687
0.007087549775005771
-0.03598377098445291
0.003409593863095618
0.006445477528721424
-0.008382755146752545
0.004830788450567688
0.06544460416376514
-0.0008317819500874273
0.023029362204816422
0.0472807609894681
-0.02319851109001909
-0.0007455726706051905
0.00037430021978425773
-0.01248679189357516
-0.02477603707672783
-0.038029618019911865
-0.02162247157158044
-0.005122781736949588
0.024571496300942255
-0.022218147342308404
-0.016850497110615783
-0.01485283179972269
-0.03522723359536713
0.026321071693383612
-0.04679250340936437
-0.010934518601641302
0.11719770307448653
0.015715100588465297
0.07146389162026041
0.019226066350947278
-0.04348708632252949
-0.011460050932270552
-0.004922114061108018
-0.0034969210976153763
-0.012687337321768423
0.021847923461162704
-0.01370197269885347
0.004570940607934603
-0.0010810146871759589
0.2095079796698191
0.05649880004425569
-0.038958052521786427
-0.16965908792235637
-0.055731155705207376
-0.0034920855599460303
-0.0362515572321541
-0.00513341870932288
-0.003913428051217258
0.01157823085320054
-0.04014271213749915
-0.037465538706256234
-0.011338509087569065
0.02659874654552671
0.02282299145884146
0.06278708061126048
0.004338517494694445
-0.010212170552404923
-0.025625504019907538
-0.019693137176870715
-0.011031483470162555
0.01647021513083267
-0.007389612010053776
-0.020112670506767828
-0.0475862175330646
0.013321158748125226
0.02934966837827041
0.10096127326666435
0.07135778990875624
-0.03270895837212267
0.05363481775254464
-0.0022619936133971633
0.012849064116105098
-0.020621923850303044
-0.09310181725476674
-0.01761538411683764
0.009045040379893253
0.006845254896142162
-0.06269118577700845
-0.012960422878384139
0.011658700226285035
-0.010453699086662617
0.02214215648492892
-0.0030844079781123675
0.034855503197228015
0.027559724225886605
-0.014378917128919868
0.01999380849380946
0.023343151183785996
-0.0071704693446975575
-0.006922895826422291
-0.017752208171384055
-0.03752980094518486
-0.006998737128311136
0.0033053806814075403
0.1051501226268012
0.07149650869660847
-0.026087261578490936
-0.07613703687785559
0.1183242173270637
-0.057994426579964745
-0.14158435278230327
0.019522606344359334
0.01357091727369679
-0.08345253803439687
-0.05121729111980627
0.029487302694251635
0.028793534677544225
-0.009784073851930515
0.01859581054325443
-0.001171407902828082
0.00513617532069635
0.009962151423045677
-0.018598545520928683
0.0011043761706467817
0.04728219990508757
0.049987566907651944
-0.017984823351878114
0.039157473352690875
-0.016667025825665066
-0.016270801905300468
0.04271407653207844
0.07973625989297177
-0.05895495265208863
-0.12307778053047984
-0.08004956983543939
0.005381125607759299
0.03349599294778765
-0.006355826291021076
0.03075476095672398
-0.005437202001563829
-0.04271175991543705
-0.0008031654275694624
0.004531732107358323
-0.0035390197964738418
-0.013613262020250842
0.05722165309414942
0.038525667023268304
-0.0038927773758034093
-0.0012322040581527489
-0.018587149358342055
0.004446298518167306
-0.03923684765776659
-0.022731183046452563
0.017330009121940142
-0.011867980526622614
-0.02103156733637118
-0.002785735577144754
0.029753464149492797
-0.03669978438478528
-0.047065199160133034
0.005191267821123073
-0.00976962947625334
0.004133434997356722
-0.00554771145595294
0.10305906382813267
0.0496068615959247
-0.04536702914507184
0.007846764315400597
0.03921222026811864
-0.03577489818313844
0.05817542825195282
0.14985979532886604
0.049175309730269866
-0.01420920535446593
-0.02164867418761024
-0.0011975585480504597
0.013792058568230165
-0.04958198462482436
0.0011475055085375578
-0.042778513397148624
-0.024263058375115443
0.015450453858852882
-0.015810888487390914
-0.009236034700847745
0.03533353339772874
-0.039270827251674745
0.01368984922133236
0.024922584374142784
0.005890204848892688
-0.029877437903578448
-0.027827732967357816
0.008262752917018949
-0.01872267999428121
-0.017480619462052652
-0.0076728789079917115
0.004095940457464881
0.007787288316045732
-0.018256996002674258
0.026562609646244715
0.046403099122976306
0.013879669128692118
-0.004188076116409448
-0.035920257490605234
-0.018282289123304388
-0.0126930728283066
-0.02185500917783334
0.009887671955178734
-0.01609934553989095
0.030926162739576265
-0.019861674103970196
-0.03228239287671558
0.026645566816263157
-0.016120469320211977
-0.003214357889213082
-0.015401629247868311
-0.000328347382959983
-0.0037806752626727844
0.019976029464491996
0.019629566627994848
-0.008194445057264207
-0.013065735274016627
-0.016842801274165774
-0.0021614198994487147
0.022955925527262167
-0.033847975812713746
-0.03834433494430401
-0.035507657568919965
0.005128255553715968
0.01778678898042497
0.009434969845422355
0.04170430039126268
0.03130581153466754
0.06519987609329372
-0.002658156356343652
0.0030446368157965903
0.019543556336957632
0.013710966779767865
-0.028944352443791767
0.007369704396835504
-0.02217268514501875
-0.009705489199801675
0.037804671924966955
-0.018551090258900733
-0.008535544275150759
-0.0013829663699351305
-0.008702656073578497
0.09468285555494431
0.06733054841861992
-0.03313292833821207
0.01471757687945656
-0.03716610834611383
0.0006787367404279186
0.02259319139296851
-0.0331546658048371
0.0022264532670171456
0.011487807016771417
0.020510845665827653
0.007012696109756067
-0.0032128428192385785
0.015587667710119628
-0.019596778497234613
-0.03866810279716641
-0.006822463389067508
-0.05404362528657299
-0.16539879480974673
-0.02557174383661964
0.03372449623440561
-0.005137842696670218
-0.019730925089500605
-0.04997911703460433
-0.006737267714034762
0.044795999261869966
0.02708823455218261
0.011487830264250059
0.016607269215868897
-0.021913869458137523
-0.006257656946660648
-0.01685097022241942
-0.029226701303484336
0.05921350887301995
0.07428100756199063
-0.001200053254697168
-0.006357964502355725
-0.07494388918673087
-0.027358490755929398
0.06574951066466737
0.012983211149266599
0.03098739006301452
0.06253599856874206
0.010551043385608154
-0.0027494362986822925
-0.0022754593561585177
0.03607925330674126
-0.014026903807887695
-0.04269852918722377
-0.019500518622231854
-0.015246407063818326
-0.0009073400012595647
0.01849955203292408
0.05165528156508811
0.07935614999468005
0.023083680663856784
0.010523607998349031
-0.15514098613984328
-0.09919939359214897
0.0718227332682516
0.02007674340478651
0.05645965803195505
-0.008657410187695298
0.03528269749142291
0.019880291517529017
-0.012286680103097379
0.005454809589027408
-0.01850077775182574
-0.043851776988370623
0.0062246024882338154
0.019718811276837025
-0.022063043783488254
-0.02098350873011159
-0.03397610536557786
-0.0035184884414749596
0.04205149478403259
0.0532552722686911
-0.03502309775759244
0.042832290888336885
0.009094584719484444
-0.10082381317630215
0.028734292150370117
-0.004684302405261404
-0.020958897207291907
-0.025016807381090512
0.011764394141716556
-6.964938307193516e-06
0.02070654518107956
-0.01797450717488922
-0.029375806841665655
-0.0073233210306060045
-0.048296190105766336
0.0437436414166685
0.03974486037142686
0.025644446093035456
-0.02243092584277882
-0.096781853922717
-0.03331544091680877
0.04267337797025836
0.06473642199465414
0.0031608307828190287
-0.00996522096931444
0.011632359543368635
-0.02487304428646575
0.01902412277892537
0.00810331973904479
0.006707539384487926
0.021010801399630595
-0.022121071641514754
0.006141641010014106
0.022905770907923843
0.01710656341925719
0.016956032919497575
0.030984181364723147
0.028082746891243803
-0.027627530299170543
-0.041176236032488774
-0.05917702612837913
-0.041732563758180755
0.026707089900112127
0.009887471690762605
-0.026069898368374384
-0.021695307237437473
-0.02949112502809482
0.020266299066457733
0.022074524799347687
0.03259787587081059
0.01253712293095418
-0.04737796266005692
-0.01458321842504253
0.029536936862282624
0.006196311931994807
-0.00045231524677007514
0.07693966491608242
0.03473857914707704
0.025150753839417766
0.06069068065067104
0.05154938075792409
0.0598299743967859
-0.01155094996935953
0.017576027627884863
-0.029028149921492025
-0.2357566346106705
-0.11587194572217938
0.05173868003599307
-0.009901916476458626
0.1753554220863976
0.09886263061191654
-0.0605734404287574
0.010710755944009599
0.02660029752372667
-0.03818703455542562
-0.012819125246954317
0.015483438128902184
0.00486221074948307
-0.08537000717601367
-0.14365708430665866
0.04677661977500786
0.012482684362720532
-0.02554649203798272
-0.0024999817731822136
-0.0123305420049059
-0.00948455755043993
-0.08097166318848385
-0.043923097198585254
-0.014050919576246938
0.0032178962678762954
0.024401810035574883
0.01648935718406787
0.02381712398907715
-0.010676187299560784
-0.014273261811047181
0.04022986289899892
0.07090881461914575
-0.025163569061414974
-0.008995111933431218
-0.011886403361348233
0.05659329196561827
-0.04016546811592748
0.057968685931780804
0.12790345000566683
-0.03303572462337733
0.0021965917505895323
0.015075932659058305
-0.032660637768807406
0.004509907522797779
0.02007565813955702
0.005313274996056114
-6.498307855892413e-05
0.01086328764789203
-0.024787879525803382
0.036309607059178954
-0.0313631398441612
0.006284198085138869
0.017455668665947444
-0.08168324603403927
-0.05518857926469475
0.0545337431518353
0.018178469326599354
0.0029950145901126127
-0.017816444835691052
0.012125855481421028
0.09117655814378058
-0.02141601997023164
-0.007121693190500306
-0.014560818368114006
-0.02358861513442784
-0.03289475644769852
-0.01763843520413474
-0.0034927099533706893
-0.018123428595923845
0.025374420043898702
-0.020093510198719418
-0.02055254650421582
0.0966193842661888
0.05175296081755741
0.00678485197781112
-0.05584261612714531
-0.05812385703930822
-0.017344322373127035
-0.013473411465396408
0.0025560214657592392
-0.0038018559376583375
0.02907375403885309
0.013300089464514976
0.017090430961280934
0.005437571409808968
-0.019011493531974434
0.008927611015528905
0.012090909779480593
-0.042751102850010256
-0.02809320087002441
-0.013481628160002816
0.010425875242789177
0.0404456646983289
0.024238651517693152
0.0014727495214448248
-0.041186114351038944
-0.027420878533055998
0.031303985509047796
-0.013903838623585891
0.01011413268794674
-0.0019383163348196696
0.017268934456651015
0.003841357862087527
0.008383522575386415
-0.04930322294486096
-0.009896659957775642
-0.016051417245850852
-0.06272046483644723
-0.0261054529844168
0.009055147007222169
-0.03188136781170239
0.01593751635527111
0.013532885102941513
-0.0486879094860864
0.004748011724539873
0.021694455114836725
0.014931009983271085
0.036557707839688494
0.0048528476431242895
0.02081884296913356
0.034634659825250866
0.02151189897202861
0.017720842055068717
0.003234055462034266
-0.0011692636237445278
-0.012316612083452246
0.0599771475563339
0.024312417464167183
0.0150873055620019
0.03725110347064666
-0.027648348465089262
0.03902726884230329
0.029541246445247245
-0.009891661111922053
-0.03275737902667895
-0.006160633573972873
-0.1000375727850962
-0.03081290461336049
0.08068153806781964
-0.0018168036058831831
-0.027687020376927055
-0.02608356874151933
0.028256479889478825
0.053404777439809856
0.02226492857523134
0.017236785415873437
0.0025984874800948164
-0.005162238894243629
0.005778648741871375
-0.011649613862426227
0.001909020165607685
0.05625736069273943
0.01025375812639896
-0.0019679789687162643
-0.015140283352426632
0.0034470966235030944
-0.023782306844067954
0.02154408527494905
-0.056212370733166
-0.006289560826633686
-0.01855095949203839
-0.09963462306801392
0.013697218351544234
-0.03371049861869322
-0.021041520028034645
0.025975138779341725
0.03426460818880591
0.09966431391837798
0.02604940340793739
0.011162270086106776
-0.07072826253644564
-0.14071038739734634
-0.010342969247489096
-0.048901330903211956
-0.03987368621438362
0.0362958208989783
0.03184538785903304
0.003871562574511925
0.022805980914563463
0.013634513872347648
0.010242204160954355
0.001217108533676563
0.03771616925665177
-0.007302827340048321
0.01589447028697786
-0.008542893632700903
-0.02387234238512962
-0.030977616027524885
-0.022562424526833384
-0.05240761404338236
-0.01711858146134703
0.02280307792189036
0.004926066234347733
0.059840954756265656
0.06544207347827627
0.018077600163714937
0.02035271320332977
-0.07415963050229331
-0.17479387701344473
0.059783020377100614
0.03101140904246059
0.00528723447387526
-0.034258942161743855
0.018271938081760298
0.031777582500050625
-0.007458420396886858
-0.021777087654831787
-0.03389411736040856
-0.027286259524748765
0.05672528089981374
0.04386730867413679
0.020121991733452214
0.0006208119526035055
0.03694250461698899
-0.03282091282764923
0.1464356397527137
0.1315453659066066
0.0034616756200266485
0.02318549060443455
-0.006377874807954149
0.018616809796639797
-0.015472893886599693
0.012449992194312108
-0.02550036632137306
0.02722419593251068
-0.025965225041015724
-0.02553051443888022
-0.027499658561428303
0.045251098784093266
-0.19474666038411206
-0.08146913090082795
0.06492834819655725
-0.0013142729692087662
0.007995273590970147
-0.05296487964387617
0.007216377549931107
-0.017556323480112383
-0.0026044392529235784
0.01073711399956442
0.04227572506501105
0.024575883367445556
0.02246637150644542
-0.022320437630535737
0.007231926193759111
0.014075226167478212
0.016785531816269367
-0.010002215996690912
0.016285892876492177
-0.02987607788382934
0.01675717032440482
-0.002704032079761576
0.005537878109541978
-0.013379924710830606
-0.0445486324302163
0.011249016010031703
-0.050885635957811814
0.005021989029119707
0.012160394502955457
-0.001470979108240328
0.005489649351108484
-0.013142286132927315
-0.0007007208805418643
0.010189738745193608
-0.044273084724486066
-0.08050945826296838
0.0747686075963871
0.0067988487954518525
-0.03409702189459427
-0.01627255620565283
-0.002795062345613191
-0.026066697061719022
0.037243749382058794
0.02506208967607492
0.05287750852200093
0.06487540262532007
-0.006485903126660097
0.017283458743017125
-0.02626887678913557
-0.0550046155807459
0.015128347996797126
-0.03393404464916413
0.015421922519317668
0.01241860893396711
-0.002965091973738535
0.112540318897894
-0.006714307450233759
0.0071255651138662215
-0.004212167171637382
-0.008661693821716294
-0.08038432239626685
-0.09456358216125106
0.006412184788284148
-0.03145464633441412
0.1324235860337183
0.08035547805779046
-0.0792988624723939
-0.06544884590796068
0.04923939941916337
0.01835389469951193
-0.03696513005852441
-0.020802842265998735
0.04285695168337553
-0.00132087952160506
-0.0010970924116128014
0.012359530749082592
-0.008217681845021961
-0.00934997683763378
-0.002035127885851325
0.028604133912327325
6.936065695959664e-05
-0.0017708818849902672
0.0004600049190881007
0.05361064435442257
-0.002033232823617216
0.027632521001261335
-0.04758354111381575
-0.059626380196070174
0.04972167425729086
0.007752898131911441
-0.010663064485845116
-0.012592154500438938
0.002455474154042583
0.022512378424099096
-0.0122562347364685
-0.018094819472328643
-0.0122587203344588
0.02026120465594778
0.019747658804963396
-0.015581138089578492
0.006109450005790878
-0.0019447437566905046
-0.052216282836280936
0.04591494729928331
0.07250393885722058
-0.0061169128140972145
-0.04886641294060949
-0.07003500619559994
-0.03262128990767015
0.03798075606303983
0.024854087467587698
-0.021804664755455533
0.020809464098140558
0.0323800368290472
0.023622017826861633
0.06497268872318013
-0.051466147485482755
0.005140007531413528
0.07814511930331527
-0.01820762559963822
0.01599367527462297
-0.018368884287507655
-0.014190604428886122
0.02013759377554851
-0.06598473375857589
-0.0934145369581682
0.04129528452223282
-0.042902477647086
0.015945653702880095
0.018422602248225065
0.02349090127859077
0.013220078954142393
0.005974393757428273
-0.034665155356119796
-0.006921602978986492
-0.05657318165409203
-0.037482992441387794
0.005575504838312199
-0.01694078977977722
0.009954920426324784
-0.014598291466692387
-0.012047239165538931
0.032423972005697084
0.03565910912409782
0.0418736620069666
0.017402421746967833
0.0670447061520536
0.004901650406334869
-0.01612367553675416
-0.07738554809226802
0.02544730498899717
-0.0060340781128263524
-0.0055220174191664105
-0.0288514063420036
-0.022856836473806878
-0.02094236968840311
-0.006732636052661357
0.0115550235516982
0.030882466443673352
-0.12184603849576883
0.02560905770892353
0.011042464874761833
0.034141076936123484
-0.0018065289650389309
0.0832364658136158
0.07862265785129369
-0.008975004193269243
-0.015434661145840111
-0.010174051140639215
-0.017148820010958344
0.0308973403826342
0.03565696931556804
-0.01721997133810894
-0.006448449575752915
0.07028131627346805
-0.016419380379922462
0.01724999629113444
-0.02667683709862628
-0.07208998635682645
0.037255566947785874
-0.012872629696303537
-0.010038873551215435
0.010853537828184014
-0.037635622245822814
-0.021893744522644056
-0.017479382354973223
-0.03867906530074058
-0.003442997464241884
0.019455174137758165
-0.020310177048274355
-0.026646245974652157
-0.013466300507376364
0.011489844062550027
-0.013131120161267842
-0.028909964766375095
-0.05234825460444801
0.09170921419868056
0.0723582044105177
0.0048473594302908965
0.03126399225784613
0.011645088094299804
-0.011441258511045778
-0.027428134534831367
-0.056126104939453386
-0.006187549133349591
-0.08930143841073439
0.05561071750153413
0.10765732356429816
-0.042557188118348584
0.004320398274022238
-0.03979543298940712
0.004218392077008601
0.04531680266833817
-0.028914387929653677
-0.05514794978790514
-0.024969524380707927
0.12741079812090864
0.08580044091943995
0.11758632749029033
-0.015864734970259788
-0.042627074408700616
-0.10583633879451702
-0.0632649827987563
-0.05417919584310075
-0.020445072580819835
-0.03541657229593922
-0.02402933123456763
0.03282993123622955
0.03401621286701278
-0.0003865049168255705
0.037230164859529576
0.008490733886124006
0.036228984375200696
-0.044393953657736
-0.04474370445003558
0.025627792810605787
0.09673285029516832
0.06564145181173892
-0.00903775621176976
-0.0027643776323497114
0.020220417645239238
0.037566365731340354
-0.0036987159258945065
-0.018987004728144453
-0.0008349042395005691
-0.04083088032364192
0.02902483948032643
-0.0037791680939165853
0.044423043467860183
0.0021781767111936716
0.009294308366974268
1.0260657068785949e-05
0.005882769876780695
0.025264455950423856
0.010786574963540872
-0.10200355911922127
-0.037726889896374065
-0.0020604240550473993
0.008774335429054718
0.01100069766903672
-0.03599769207238295
-0.02993966091628951
-0.004705526642686968
0.04300497576546708
0.018622944773411025
-0.10670278842521336
-0.03622719414134835
0.006167512982108576
0.049634591565823075
-0.01639554469689202
-0.020386336168441085
0.003968815009549754
0.006806124770750694
-0.048842446108663874
0.05966285582092791
0.023895679643385632
0.009761815289900673
0.03695599626880792
-0.011988423679700105
-0.009418909355661538
-0.01222789953973014
-0.00245666107782941
0.039955227568084624
0.02654803021659981
0.004312720723489897
0.02538584489159431
-0.04838201638109765
0.009831651652271432
0.039491084488357135
-0.018897661056034458
-0.00740061952121815
-0.007091579181036233
-0.010308067726128672
-0.10920209919531143
-0.03103147587015344
-0.037337226722832115
0.035101148189734394
-0.03466112982337513
0.03741582792279616
0.02357459316544811
0.03931328117283952
-0.07386789163586592
0.10586270926173802
0.2206870475138832
-0.03238471899918625
-0.025754739946723428
8.329826574069085e-05
0.011828835959032218
0.030140562662843005
-0.10914747657804753
-0.03362918104653373
-0.031334036014634546
-0.021325132658686206
0.002045672475041192
0.016463244162428375
0.01882067168150762
0.008514071890511399
-0.012197874682296704
0.023530662556288058
-0.004314753372074502
0.03271518874176848
-0.10862667521069048
-0.09846523777462379
-0.01435868207722814
-0.015285005798320365
0.0019534186005861543
-0.01765289317804703
0.027030366532285573
0.050081759275159954
0.02561525055717103
0.03606737153556856
-0.12618186710019216
-0.14953213633578322
0.04512141720897413
-0.033605246159422404
0.18728771325879884
0.05116773081785072
-0.0025686317035274017
0.011678379775303636
-0.005896529082495572
-0.02462307087499433
-0.023180288313475746
0.046747022008318546
0.02598698668401856
-0.01512463577201029
0.0019690727417427272
0.001274469995372028
0.0005492420189779462
-0.01070634384924071
-0.013253125368966091
0.0033298877957025274
0.014517578742806193
0.01452918371984108
-0.024448053104280835
