0
-0.012406545818767191
-0.01167348461485044
-0.004855449951714749
0.012564729357964833
0.02166928496710486
0.005448589501392882
0.004482302673018248
-0.018426520655917263
-0.016836960411852005
0.009352514678833348
-0.011865095953547365
-0.04933988301222288
-0.012130876348705993
-0.015001754251032794
0.0006131700295100018
-0.009756007520885622
-0.010269210543307835
-0.005789861020703294
-0.015961842191581387
0.03977607628746837
0.021261586296460546
-0.020657273381886065
0.012847637994362532
0.011064757486048222
-0.025055178470027275
-0.012850076401462877
4.689001201747545e-05
-0.04427429551167177
-0.01795221458130551
-0.007391264270603334
-0.016213696843386163
0.047745603869680416
0.0013751597384914392
0.03992039918231098
0.03473520939662564
-0.011426378401884254
-0.00030034005342111027
0.0033144631043718347
0.019176275080117662
-0.01872823698873309
-0.0399786207313966
-0.00036915429164319355
-0.017729809383803963
-0.05507411796613488
-0.017506266348456843
0.0052195696628467994
0.010338821993101975
0.019103356290266004
0.01378183647225233
0.022627939184115823
-0.012413672334273219
-0.02066815978126503
0.01015331135280919
0.04004344534674804
0.0092957507924207
0.08488132523594132
0.020365324481111082
-0.07963541967030885
-0.03998904896680204
-0.015838892012755998
-0.046711704902631095
0.029516881735470842
-0.0033622213665512025
0.010135355622931911
0.06584284139465633
-0.054100489823420535
-0.014878205197593121
0.0261240718709734
-0.000876865983907168
-0.04372902000039165
-0.011404923286025038
0.011357450688370702
-0.11825839964012658
0.015872658066424475
-0.011637025403794733
-0.048233270368588675
-0.008476517770966703
0.025648164396963512
0.014853313189356093
-0.0014278204277882423
-0.01736439964775776
-0.008752446981744787
-0.0035455184361642515
-0.0031544050844482603
-0.04382586467499465
-0.03841366233308931
0.019744798559416753
0.10959194973309778
-0.022251244089400025
0.12114070980225536
0.059228494780686786
-0.015897881684798332
0.074211890623867
0.024988999096175173
0.0058140465559290205
0.015115588935916068
-0.015682670253613307
0.03433432465351203
0.015471711092546423
-0.02119443865167655
-0.0290561789973347
0.009248626942889963
-0.1682543616046596
-0.027989066662486538
-0.010066545235370938
-0.026656386074239445
0.02234437447532756
-0.042810976741807436
0.006605215852432426
0.015238761059472214
0.030618267001816562
-0.0012343717843331698
0.035899944182235195
0.0013623941117235638
-0.0059420143921537875
-0.02992143716169372
0.024173037030395476
0.01913807728059676
-0.015512586936270775
0.004830424376429716
0.006553017582116431
-0.0016166992409253594
0.05585558499936734
0.014011797177392402
-0.024917753369761264
-0.004362366368580163
0.006358688091296413
0.03416889419128807
0.004073687311355246
-0.018212934592603217
-0.006668715533900765
0.01813926041005958
0.045285167940528004
-0.01206949737452178
-0.03615848359845738
-0.021231968213934544
-0.02644329120931247
-0.0011227217659526099
0.004251375983073117
-0.014980393659913504
0.010051131445671704
0.02681209334325765
0.031012317199534505
-0.01132410367205617
0.0036635117598535047
0.048190880276105
-0.12241177267568377
-0.11990386124449366
0.06552354630856326
-0.0489281904109574
-0.023763031333981166
0.019426119830215163
0.03596699685025662
-0.04237129563667698
0.03588846562668129
0.03677178337753342
0.02086733886065287
-0.0695409551032055
-0.01908373707910008
5.678377798134724e-05
-0.018153301747583124
0.039433475786741244
-0.0036916410577793246
0.05716756285201819
0.014947975711402467
0.07505067154446082
0.00421555813688094
-0.022744585480132903
0.03940904816331761
0.026677559123599832
-0.004100054679708719
-0.007540704540326626
-0.036531570322421776
-0.0606967829847908
-0.01972350622979304
-0.015625063649867522
0.016341003593122447
0.024713717828954936
0.07206319457946403
-0.08482336924483216
-0.10304870962646302
0.002157566273610755
0.019641989599251203
0.07543385643385334
0.0023739750428529147
-0.025354952786918246
-0.0011976682701946833
-0.009225594812985868
-0.0110624857753322
-0.015401322454751903
-0.025654584263639032
0.005201793274015144
0.02139726023702562
0.059891003292969876
0.012087463332762217
-0.01077578495220096
0.031095866236318468
0.019157320908850868
0.04649612420544088
-0.002580631453309863
0.029379149702831214
0.03548849672012135
2.4622223056017134e-05
-0.023480736311494676
-0.010016959579070468
0.03136075287161052
0.01934359208198078
-0.000972454678923119
0.011737723274888655
-0.017646673366136987
-0.09752218604719882
-0.029143276085024452
-0.03692171796774881
0.046453065644123104
-0.001302449178872893
0.006822981828918034
0.0028270103043419293
-0.027158712884241685
-0.0055704158728815045
-0.0023275684099593884
-0.007214850016765693
-0.002915619744740017
-0.01253176422193832
0.02074099847985594
0.04142311535225726
-0.01861567294487857
-0.019702527658539117
-0.07023917268601924
-0.012942438252697157
-0.02093984737716784
0.058642244507896506
0.012428002256058073
-0.0011561074877708935
0.031648965425507394
0.002926577032720773
0.02873722502666333
0.004606249527644469
-0.008430670854882728
-0.005850375911665468
0.0015358287544194095
-0.007755305692871836
0.014646967995114887
0.0009965847264058433
0.008957778706216012
0.038914055860327354
0.029799541418429613
0.0035251651796987925
0.014166639008317957
0.010333722511839411
-0.029229657462388047
0.009616378585951857
-0.13941502446506754
-0.08115724851592072
0.013782184139774781
-0.04405580866205462
0.02447714179703002
0.03306977982734739
0.007862700682180113
0.028386094085299608
0.0016180533802780965
-0.03345273697729674
-0.015320567318579932
0.004013440530277435
0.030624579042021625
-0.03098304037799147
0.013172286915488263
-0.020701442756809137
-0.014880471801648991
0.019288917955440785
-0.0053932302197945686
0.0036106173058091185
0.02642327847378648
-0.023544876811593063
0.035242941784896564
0.05466389906233959
0.01172742145372097
-0.060208773183793494
-0.04312490458918613
0.10069598177062228
0.04033300382211268
-0.05287672891355288
-0.03164760216162621
-0.041051825660827185
0.07822679770518519
0.08296863081756096
-0.03940327033201955
0.02263808706846221
-0.02632546805985627
-0.034152952867600915
-0.010569539643404178
0.010105310395330592
0.003235644981902419
0.0038982283053648295
-0.003822958730166532
0.002566925750679812
0.018611350632922772
0.0186641606202989
-3.7843331884773776e-05
0.0013691519104948992
-0.010599006973770565
-0.005402895710803229
-0.014279216839131493
-0.01633997263795066
0.025986421913397714
0.02605164802204097
-0.0401982739961615
0.03890857925549057
0.12814760618314386
-0.052309626511932814
-0.03495640388418775
0.0018796431184965306
-0.02678536147511236
-0.015774860661850115
-0.0021556236680565916
-0.010116133341904369
0.00357376518355679
0.013856257444218657
-0.02162096017010666
-0.006135303285196856
-0.06279118011069011
-0.13899786892995128
0.029323614191010913
0.003121975043191316
0.036434000043581764
-0.020163673015306725
0.004074059317621303
-0.009255008953475398
-0.0323918289694099
-0.005011903402133192
-0.012528428036988148
-0.00873747971016622
0.01698681929578654
0.023890966022890106
0.00724366743148559
0.12119666103013062
0.05005520744521794
0.06908405320447304
-0.005012476981560384
-0.032715543734427324
0.05260425932238846
-0.009524106300690418
0.011483987767668215
0.014319375919383101
-0.0042860953575259535
-0.007135311217949638
0.026454190716890924
-0.07531423834233768
0.023062475258088418
0.027987967950268627
-0.0001736350317560452
0.005294717478798982
-0.037684084387271034
0.000983339042416659
0.009463529480245125
-0.011687834771522543
-0.09223760545676984
-0.1092876285780879
0.2050596030241487
0.020852668330754984
0.023771360087168122
0.024362532272380815
-0.0003485432589996734
-0.09216720197034764
0.0019311415502799643
-0.022364186630434633
0.0347220339077903
-0.06603075871089467
-0.1180219122451743
0.03029601030938752
0.047837577438408024
-0.0414190419055426
-0.031825055049633066
0.009062723106640561
-0.010001880625396566
-0.048251805882882144
-0.033612567072109925
0.04548395063743765
0.010971086466846625
0.0008262964672999803
0.04138125871727277
0.010293280037455879
0.018784515865810977
0.020972767218367782
0.0050756889815956364
-0.006173011321611601
0.006556753177742344
-0.016373734996313182
0.0022516454498143837
-0.0018809310988515807
0.0007642563865472848
0.0338986419136567
-0.02546197585919364
-0.050167165579058155
0.005567729930800008
0.02124849633573772
0.0038108318737605164
0.003140275416064434
-0.002599011060323512
-0.014244105670050324
0.0158026709395105
0.04983373107690645
0.03501367560902457
0.034992118296244455
0.019087998889261756
0.029305535923647066
0.03975317920127648
-0.005490233513289032
0.07293609500936822
-0.15863405946296952
-0.12858613760985493
0.027845503877746036
0.003699464599725757
0.029414001038690612
0.009756350444559109
0.021485495751035016
-0.012792537334132421
-0.01277932442934407
-0.01246540058644479
0.025769592486009855
-0.0024049897980463015
0.022872670385159777
0.0012819981290567303
-0.0005594690171039183
0.018008342903085204
0.029399112017387496
-0.04338553922714666
-0.018187772298034276
-0.021943126866710384
-0.060124479658891186
-0.012388531816291496
-0.02539953416160391
-0.0006960728653718086
0.000597790581405783
0.06773752609750901
0.021756520521730396
-0.007742064754417032
-0.0033503225298806196
-0.013986090937425527
-0.034427847495106065
-0.0043683370089053885
0.003854654851355342
0.003688463441758629
0.03340522887351948
0.04147515355177719
-0.023648469203580002
0.04251888066486195
-0.008409265501769117
0.0014707997736800092
-0.03953005858931523
0.01490192147759812
-0.005149830483157243
0.024583834669470294
0.017411834311551327
0.0029745043612693727
-0.02191741985185682
5.983130049969592e-05
0.003003927275151018
-0.022512855217853085
-0.06892207750352757
-0.028155666041392115
-0.0029852638108286713
0.030417898750405455
-0.02751477381242577
0.05813036034606935
-0.01590408981383509
0.0055244006105037175
0.10326660681624855
-0.036714963963472576
0.011384651988727592
-0.014770668204721468
-0.028866545747625386
0.00748415860625434
0.01336946251650528
0.014057088181324581
0.030582890202983236
0.0020437013890190164
-0.01849596724735848
-0.01805752561221503
-0.00438160399176023
-0.0016795407799269505
0.015652625473305905
-0.029953591050984378
-0.013394157299210103
0.005587602469971192
0.0022632265229843734
-0.024995563464125035
-0.04042843572586518
-0.007541418430404459
-0.009225350979645277
-0.001379087779684808
-0.0066722742904609484
-0.030692964919056896
0.018296300841523432
0.008153465396553535
-0.031596882688560105
-0.01638559986978728
-0.06657736628593022
0.008629957245954424
-0.039017126954571275
0.012239512909540222
-0.006171186915386904
0.1109766765897973
0.08007806055110986
-0.008823919055317334
-0.02338814780599995
0.0640847697013195
0.03365376189948262
-0.06588765792314152
-0.01665615939084358
0.08055470493263803
0.09974199577922434
-0.0206429884772262
0.029473929605056046
-0.00023129706455564332
0.023374681428919564
-0.0040154328522627875
-0.027223414804671144
-0.01674316742646689
0.009473163426153945
0.018790904862806476
0.07365775058878195
0.021711222354270077
-0.031484840443362846
-0.0025443087272446455
0.01687798419665686
0.010620805047353602
0.01670225526002086
0.03315365024503258
0.016810405501564058
-0.023126651722021253
-0.021105887023986827
0.03431627189185524
-0.0038069014822090276
-0.008338881712616668
-0.11131739430358482
0.013881493554137727
-0.1249215988370091
-0.07102462061544935
0.07132868684426168
-0.0066879247132772945
0.004558947684702338
-0.00646159859931673
0.021720815945962556
0.02399963711108619
0.006596655451275693
0.031812482579772774
0.011279197110606256
0.027160287549822613
-0.12270544492339037
-0.18989204218358735
-0.01668887013783354
-0.10078046017123075
-0.008014149730321074
0.03395591946257727
1.9213579930982336e-05
0.04110741860752147
0.12749162706922065
0.004211925375503853
-0.03253710737854379
0.007989979035541444
-0.018341059120387516
-0.04760047011569367
0.02038134031176653
0.05024752428026037
0.007967582848280195
0.006787961948068198
0.028039573056660796
0.06703769231309563
0.04621477752881784
-0.01867952197534288
0.025263678863035172
-0.010709338040301204
0.01465561499418308
0.018462347265543515
-0.020324185139785005
-0.02895229238293331
-0.07240519150959912
-0.10220959115640262
0.02749424605485489
0.019665162189720507
-0.005528331882099035
-0.009485486825997173
0.06843186654703566
-0.007898410193144757
0.04867991647979381
-0.011733385318103952
-0.0706725534189108
-0.033984249646574566
0.026750721975855176
0.0020810427012539945
0.03791881041225889
0.002579227041336622
0.002161913346078101
-0.0037767693126385094
-0.010259901664725138
0.010154803157105482
0.0009992093158355038
0.01480495682871362
0.05079434308070062
0.00361807203710968
0.022962161655504812
-0.011848309839141428
-0.04386012211890495
0.010968127835664464
-0.010429688766972652
-0.029043853026641205
-0.008552529992456953
-0.002580382885860183
0.0034939257914402455
-0.010249929586067215
0.002688913072102092
0.049561922745447184
0.011230365248382045
-0.025522814878191215
-0.02497962218689497
-0.028711067190157803
-0.018071019419364603
0.06890069701092044
0.03223844788601736
-0.02535950729261102
0.011535868317583258
0.036051421418143596
0.05158149929470265
0.015049778950045068
0.014686358102217809
-0.004213379301694723
0.008642948640557577
6.216413991309157e-05
0.023541908810824706
0.03282456287497016
0.003517959934165318
-0.06797250670478741
0.022729778081173227
-0.024844491525027167
-0.01309092340661518
0.001579850021506647
-0.05138626645252859
-0.03353725095550287
-0.030892570726287743
0.03201252346824232
0.044723106354814954
0.013605330877919685
-0.01743468505057356
-0.05822768222907385
-0.01248421071124609
0.049860135102920776
-0.0018157977048764175
-0.026873538013733465
-0.007785511419844546
0.00039123065275879375
-0.00389183243697004
-0.00045401161358121246
0.012094844044018987
-0.014111134748068091
-0.014559435519273304
-0.035621520747390466
-0.0344391530486502
0.018637420053921203
-0.05517849059449833
-0.042434250172298106
0.03385767742610299
0.014785696553958663
-0.013817861443081874
0.02748303629919104
0.053727242160270604
-0.010545980039022388
0.03249791902414428
-0.015165743541625242
0.02499219277700697
-0.01130864888557627
-0.0054343474846736736
0.003544383813953727
0.021897494402779223
0.010834807095346084
-0.0012277914533991223
-0.014194008096078382
0.0022408081013294175
0.04916981205081959
-0.017285996036225777
-0.00024104758418770492
-0.010280530428305373
0.05546238071243773
0.0121571271454507
-0.05162077364636537
0.02004053223433444
0.018259691672901188
-0.010383853903536817
-0.012889055672026013
0.018140578555557334
0.022105696577091653
-0.09467675536618478
-0.0799874978373433
-0.03131778020154633
0.02503005987848183
-0.04863589281454986
-0.0040233199453674155
0.018709663369287644
-0.00219373279270893
0.0030231563577350993
-0.02806798844453294
0.051110974658818156
0.020065024918171345
0.0385835602351588
0.07374052014547992
-0.015049381213894288
0.03687888328177724
0.04404711212274422
0.052872416853494864
0.12793277912841478
0.03233383396285937
0.016874598603052064
0.022057344551572416
-0.0020562928702331524
-0.022595769749342885
-0.04188891698781656
-0.053438492267668364
-0.021023574508513904
-0.1564994200042875
0.0021978895294356756
-0.0012866104065290547
0.027739887314016005
0.052678202054922435
0.03970150405701565
-0.1223034132201656
-0.13915968030712325
0.017105925755190276
0.035550285502425394
0.05005224703159122
-0.03990509859548528
-0.026724115438778243
0.040737832091625216
-0.01658024304860991
0.07557182289179705
-0.08720562621934538
-0.0910191988780729
0.030104307063091897
0.018982308883504405
0.020450475391067993
-0.004118753758995219
-0.008420110685054032
0.036884623604660875
0.03239190360037275
0.1935522944835021
-0.05049469822613172
-0.13359368607225222
0.05399279184527569
-0.04029367249672993
0.07381436266674962
0.028512162582531485
0.027656018762437597
-0.10489982310221058
-0.08742413672910677
0.038760392601704025
0.013706211507298215
0.023013105480496836
0.07181870163637964
-0.10033716874143622
-0.15192369308865017
0.024709886091872593
0.017405713644055597
0.0072847344971988725
-0.07684775457427263
-0.017076571841934306
-0.01179537963858924
0.03135033745898593
0.013979819281446024
0.03494706857743642
0.0033330539267763144
0.0210598016534202
0.10417934225423398
0.06481565592754304
-0.04633354680143802
0.012740158195998646
-0.05174460380963647
-0.022566266429215425
-0.02024778287994189
0.07911211152383293
0.09014866408148665
-0.01748774264886608
-0.02612327309846727
-0.02073425677748081
0.017831559534842212
-0.026875696632267798
-0.006912571863008637
0.04286275947746268
-0.008547448743453062
-0.041188469440020165
0.006837563143212511
0.015174009019781397
0.03999394792096523
-0.028948114625996682
0.028051156626272472
0.003595919051501127
-0.014644448823912186
0.013859670688689305
0.0010323277975758092
-0.021197063696919656
0.0040792821311575024
-0.007198196093594752
0.006078172042468884
-0.008351694123860602
0.003285447314727499
0.00023475883364919203
-0.01152083876374283
-0.02347946114601155
-0.07299377501240355
-0.04856811264212636
-0.017630753731200204
0.01792342290229883
-0.019868062032787286
0.013354764340152548
-0.011574551896572466
0.031048753222809106
-0.0009518786518175815
-0.0005255847876185918
0.010011704965890308
0.016734920798237896
0.046403761457916796
-0.028376501885643272
-0.024178179994441953
-0.003656247797322108
0.030746057043024144
0.029406349342928108
-0.018554398735302353
-0.029095357776322182
-0.022911821461781057
0.013995183760607337
-0.06196780791335949
0.07899375625345094
0.10991889165454248
-0.036340352921035636
0.020725141767744624
-0.024505446765710134
-0.07837919268594912
-0.01259770304111995
0.050980492331998715
-0.026307613327156087
0.0409162181332618
0.10452636973454407
0.0014337199209113337
-0.009844136204142723
0.013204480657828189
-0.033965328078215805
-0.0196886855351367
0.04012246034808353
0.008534911766005985
0.004330909715163894
-0.04009443310508002
0.029873731920157926
0.006412575186481926
-0.02725553778928186
-0.008554021379473179
-0.03314306124826907
0.0010620386283378784
-0.008190560004373062
-0.02222797617463734
-0.028366440844801815
-0.004101830444437317
0.017312885566501488
-0.016092415318519102
-0.027104946140333645
-0.03359850791078173
-0.00503494091950752
-0.005268232091021848
0.08159982151132733
0.032652722489857636
-0.034177588858672385
-0.02384146577470643
0.08305701418216609
0.012412791617224079
-0.007997047951981962
0.07450193816955386
0.01221651380474957
0.01632285537407946
-0.010171289539436945
0.1755162411839735
0.0717775910373008
-0.03398148382241765
-0.059269402588745995
-0.027229718587440492
0.008393652672234655
0.026331078455877593
-0.022375128666073985
-0.08686955737752716
0.047329887469513374
-0.0015814387187533185
0.027319409523066225
-0.13526210181137574
-0.11471837390942766
-0.02901494125888405
-0.09154876634982458
0.02949252758514639
-0.006973147986689035
0.02385967670446171
-0.05767080436644657
-0.02749795666760493
-0.013661001863335236
0.0011221145762846279
-0.019748918358186394
-0.10497919131436768
-0.014259666587216323
0.03860033342680201
0.13953218518003155
-0.002373945461384215
-0.050726540316270205
0.006745652723220883
0.025163452133660592
0.009936934222714825
0.022351930651699378
0.0348730653763029
-0.020109170290950048
-0.02036246445162945
0.017678060686625818
0.02303930522714464
-0.0344632019115214
0.023862304626530533
0.0859705603045997
0.020060346198728613
-0.009934839403965195
-0.002319954191487888
0.002965723791825875
-0.013715932403929793
0.004670518394392393
-0.032468070853688934
0.005561973544468191
-0.010924551267160364
0.05285915572438556
0.07403479147409302
0.004306967613821847
0.007952739563824997
0.008141739987009587
-0.05798247756632784
0.04438029026138963
0.09131194256244113
-0.02397546541818285
0.006214487146213962
-0.029145810697578056
-0.006173886162724145
-0.04354615130889832
-0.03601771377883671
-0.002002764166277756
0.007157854166213878
0.013015684853640574
0.004084240632110469
0.0032450141376247983
0.02869428484930115
-0.16550016403697862
-0.03260846052240475
0.014008645320486578
0.0075165515089598055
0.015799236567280262
-0.022169488999922854
-0.004978514193069849
-0.003146244410683446
-0.059936584265057234
0.0585268842740823
0.011949025308658615
-0.03185639117926357
0.020124769361993308
0.0068542722252735565
-0.0008848059087880866
-0.004570614653913551
0.019007103909914936
0.02794015110245412
-0.012537454213923604
-0.03173810785110435
-0.023822101928428388
-0.000868043681653781
-0.0344071864026719
0.0008152338849939393
0.12513105494346408
0.04121817202083079
-0.026584101941306722
-0.009980002706890354
-2.8202727115695882e-05
0.03376855077527119
0.06940060167395708
-0.05282532225288579
-0.02505008464904586
-0.014398296028924779
-0.0055529812497797995
-0.013504835624971612
0.024189623263964198
-0.030222820974523175
-0.02117489091771722
0.17131414099886227
0.0038514703133040633
-0.033822049005138084
0.004241063499405488
0.00020897711693388554
-0.015877515900437837
0.011165386416844263
-0.013309290625528996
0.05444243760673949
-0.006679396114025424
-0.051747351766864964
0.06058092211055619
0.0034563800100691298
-0.005550764740103927
-0.045159865532031676
-0.001886002881843335
0.016234438529173358
-0.018109857761459763
0.04897040280150753
-0.046655625135906424
-0.007922001504680903
-0.0570785179792108
-0.0672763156446775
0.03883104384465171
0.0013978336754529056
-0.00995218167987245
-0.014356688452928038
0.006196530061842718
-0.04006447977285173
0.016265819340113875
-0.01076302161027896
-0.022387995062722193
0.0045065736648481035
-0.015677386355071248
0.016070520576893586
0.053318211607224365
0.00659278678972573
0.030332293859979067
0.012910879976990797
0.023883686667012804
-0.007356153300040691
-0.006601205645163932
-0.03847206964020081
-0.01168145270226416
0.03243326252233027
-0.003107270981241361
-0.015373477387868694
-0.027538718559264437
-0.005330964078317041
-0.00482392529434498
-0.013803677248538466
-0.012348025965473401
-0.038601370112226654
0.034208779740273816
0.06468379717447116
-0.012301797025491818
0.002221917285177236
-0.0007925346018754102
-0.007260898620305947
-0.062165911854613204
-0.014694252465745763
0.023292590050494968
0.004162083683946573
0.01324528662019165
-0.008805536943020623
0.006568211004865387
0.01009300953611461
-0.003413163401306143
0.045050517384446105
0.004945555391354852
-0.006004821487196896
0.0026810574282210967
-0.007863749193472816
0.006170489304137313
-0.005391782551410323
-0.03378794185028448
0.008598404173413695
-0.010837897529125543
0.013907538974030227
-0.06232495016450299
0.11000038761744803
0.07317126038369269
-0.03839818374328387
-0.015179931047001652
-0.006728207652103937
-0.01193621883903908
-0.027502628515935212
0.011972315803333654
0.04402043504301518
-0.006384660142673939
-0.021995249533512045
-0.0008985425156194669
-0.013680255130021308
-0.0136080531489406
0.062197859401990144
0.0015438153219171713
-0.007112642302414035
0.04005324255484383
0.0229865141462481
0.016862316530751455
-0.027731959913180743
0.007615401825287758
-0.006868840610278022
0.007135557399789535
-0.01712466619654996
-0.07744998660085226
-0.003814254156117259
0.01131017679390796
0.03218928346483842
-0.002535858276486314
-0.0045059709812525365
0.012571373748007474
0.003007630291418387
0.009484713618441493
-0.03192330295489009
-0.049312953697133705
0.01589162441483762
-0.019244222569422487
-0.08634883080185646
-0.022076593955834403
0.01670815930418299
0.010296503405203548
-0.0006627405103962365
0.0022750246247160277
6.901496489032367e-05
-0.014543367442724666
0.013671081918492952
0.011648995756403869
0.03170729684241334
0.0636576129770434
0.11743472265195151
0.06301794721580796
-0.07418429913561846
-0.06192242560171925
-0.0007045363829743968
0.0266372071930884
-0.004513077399409717
-0.03797807356879937
-0.013039508104337348
0.04252807413106876
0.035883646216876945
0.020570597808155476
0.029601642212934896
-0.07312486595579973
0.0054231056095462235
-0.02058446760009165
0.02391253289252983
-0.024522885943485694
-0.08160146429881769
0.03192179516444596
0.019864933719809224
-0.03659578639370326
-0.08294339364128499
-0.016315052071396493
0.010808976626117316
0.011175150359173769
0.03952345211050937
0.03774263274608581
-0.005350983064063029
-0.013277480325197603
-0.013635032328864446
0.02342624106179248
0.008638139216097719
-0.039936780536082545
-0.09339488988112911
-0.01851452630903548
-0.00776822091653926
0.051086292180018804
0.026913078234106436
0.04178945126898836
-0.01544882561216524
0.017823928783362256
0.05157757016272224
0.009621343758469195
-0.01001613314185903
0.021379371391620734
0.03989696549334133
0.010045371622016117
-0.013025433161517974
0.0051891938836045644
0.006565263655428417
-0.0108499028443815
-0.0022675869394433493
0.008447291343175976
-0.009979600973201335
-0.028564838094083073
0.0167630888884866
-0.0201184370623804
-0.01790286855379387
-0.008314056832419724
0.0017965262623063378
0.002559784534907649
0.009251800594138876
-0.021980218450644764
0.0024870858942786624
-0.0066846035960567715
-0.10769752319683545
-0.03138953253140426
-0.0032497608580897173
-0.027980274780982712
0.0011081724814163455
0.017767204468570854
0.07276404083391073
0.021559260509846384
-0.02384880503778322
0.02238847619307413
-0.033426073841502126
0.008522995100192627
0.004907973369296123
-0.012526160770710129
0.047767421313548275
0.005134755662055074
-0.016353605147634783
-0.014906195313603317
-0.008187276325949762
0.03432880650281883
0.08928766671150154
0.06504502962948883
-0.05379610924701483
-0.18727678931746383
0.03301264293495717
0.06150735891432163
-0.0013160595354437617
0.057984907703485744
0.035542964105757975
0.012395141145752008
0.031322594570007974
-0.021428286448877447
-0.02616057731099798
0.010780787182162245
0.0006523783787529989
0.0036115677500375355
-0.016019064790941902
-0.036789159512765734
0.03411871894586951
0.031116028398518934
0.03549651104550211
-0.014083592410557127
-0.022018250599581204
-0.005432213834099445
-0.034312057216999814
-0.006639210334496214
-0.021653988088508307
-0.02275277114407051
0.0252136319097587
-0.009900196152850206
0.06521149167871974
0.027763050989891437
0.04328159494717225
0.03669140996655643
-0.01889611795872765
-0.007242369090501595
-0.008415327969567366
-0.009631412009838771
-0.03465595017850575
-0.04672316230362761
-0.007167254018802295
-0.03243037218757268
-0.04734465959350688
-0.0009057610393860022
-0.02366881665056966
0.044049883297817255
0.06681840737433671
0.02832278984128121
-0.007415060124907916
-0.0069992817820080525
-0.047207689315372815
-0.009418640382861932
0.014139991064941291
-0.00574366058935111
0.009842310694605704
0.016028629405640947
-0.024307508866748543
-0.0011559577137573293
0.016149614309725696
0.011409224023335501
-0.016269686146759395
-0.013539443831634246
-0.03323393719574858
0.007456022594651729
-0.035943258909805216
0.02117546768959166
0.047910984027980386
-0.0042883682289904445
-0.026206835203112767
0.02078878282675326
-0.13868130580815227
-0.053697936314888284
0.004219768035568679
-0.009716612868624441
-0.0020384172229983405
-0.0031075732336012384
0.0900592632172412
-0.007862917085235455
-0.02485346187265853
0.015762443717434453
0.02196688891761268
0.016169710082370163
0.007043875499561915
0.045235949442640436
0.01389001058368701
0.026564932620034995
0.0566737175993028
0.013053630455447114
-0.027587858459098398
-0.001588994361943214
-0.007930641756218515
0.006946650637608986
0.001997273746067743
0.00258957562910866
0.014754473122698479
-0.0031078832522861075
0.0006266712332058195
-0.01951458102128277
-0.017729060306655376
-0.003977806497686803
0.011382700601930333
-0.004421936529377596
0.04577144697829419
0.01280019161909776
-0.13925905914256048
-0.015296071511936318
0.03243868694326604
0.007586235354718134
-0.006499210709388824
-0.00957602705439627
-0.0027048435308723692
0.011633161561232147
-0.02076889599369662
0.002672957170849232
0.10824114685618226
0.03438244970217681
0.005203844607396535
0.014549882186593196
-0.046915052049412
-0.010015643675336326
-0.03440717285807495
0.011640458004987498
-0.0014378785284961378
-0.0043457438784040596
0.022717045645892445
0.016528230063378373
0.009412875229799594
0.0012397621451197783
0.00381116082934025
-0.005902823955118126
-0.10605273010681053
-0.024168151749646736
0.009265212837278965
-0.003319473743369127
-0.038078225464848514
0.034690140773071663
0.011868779972849085
-0.0030875780073949563
-0.002377180913227161
0.006165316415398447
0.03265308065600281
0.006961478667901015
-0.02075204425946632
0.015215883119554865
0.0062695963440844195
0.01582355113818748
0.055588954794355994
-0.006858704353094459
-0.012670424741454996
-0.002290665361954611
0.06741171160037761
-0.04643487753003144
-0.046438568429605996
0.007591191716130626
0.01880414098658586
0.02192114190965653
-0.012393494586756789
0.043545377418337965
-0.012617027145426892
-0.0032380422548942294
-0.009943967199045459
-0.006671457663498103
0.022047642847346265
-0.0005221663417272363
-0.15598598075744835
-0.009628519043272709
0.01206130314510333
0.008521585892855843
0.0031110698024254977
-0.001552180543792817
-0.020537765896225812
0.00017500720458715034
0.001459204861493467
-0.006566734831946847
-0.03011224023294434
0.0003632451806585165
0.0007189155156576457
-0.008591516405543608
0.034748384551296564
0.02434233037523074
0.005628267084289788
0.03248058053307297
0.0005280012050671
-0.015275260726760363
0.03874009119206533
0.0008049249948677865
0.004870754267403039
0.02837864156924875
-0.013501876041015276
-0.007998328831756291
0.02109569387440912
-0.0642965749996237
-0.13325892099145206
0.03528295409630737
0.02985269243520167
0.01909357707395864
-0.012319403107917093
0.015916651643247536
0.033890852571545844
-0.00477152363242824
-0.015235970763901463
0.046078993068757575
-0.024115076725645876
-0.025140882441385477
-0.02835796145615383
0.020891447590192257
0.012897510858416776
0.013631911988359698
0.03953155002223836
0.0026029754121135555
-0.019820251785049897
-0.0006876632559775256
0.012470186137556858
0.022934896915363455
0.01609317383685834
0.0011200664960718055
0.001533290798371934
0.053643512785948255
0.009266501434450514
0.015962801939438567
-0.0026610319576525323
0.01958827515873918
0.021969682316358468
0.017657005577000333
-0.008124170688780574
-0.0417970127427971
-0.02875645641124538
-0.0013908515959998393
0.009634449577121961
-0.04275804789060416
0.0334822311629971
-0.03567899380015737
-0.04201526779859374
0.021975804236088012
0.0022814614125977054
-0.05497604753363544
0.009898331035793087
-0.041396428374354546
0.00956216857861557
0.010287892518448933
-0.006864334504450525
-0.0019341040930373424
0.010292548698161853
0.04281697937551061
0.006880273909618412
0.033964130301441985
0.007779713149385935
-0.0823617110417806
0.031456902887264604
0.017297918586501187
0.016540297855676362
0.014438335051029655
-0.012522526348334399
0.009634140758762013
0.017643146523225014
-0.010495458676661563
0.0126407146096254
0.005902068313420275
0.009369179768485832
-0.0007099472142652745
-0.011187921459188847
-0.03896137805307816
-0.021629642889650236
0.0006667842471033635
-0.006134546435867938
0.05029572973219033
-0.030020519231267345
-0.07515523914134103
0.02037491609531931
-0.019651339388391233
-0.07693963104826586
-0.0428408659852297
-0.00816398970354059
0.014586730697297297
0.010041327773740491
-0.009125412967648896
0.058227725945775674
0.03798337430346821
-0.03819693392024124
0.019134476904567807
0.01354115783586752
-0.005996667318401514
-0.033613479854500715
-0.00216942823869423
0.0001463143824017855
0.0476261079091966
0.0524539183929814
-0.0067673053037917204
0.04890870954986915
0.01490377822905075
0.056958176105833085
0.01834356113758691
-0.032439021676267575
-0.011791690735301388
0.008540270903713197
-0.006811655641116405
-0.011855934122509527
-0.03725404898449258
-0.059214077656964
