0
0.018548670639552324
-0.014138934829365025
-0.06415202057087092
0.029740425768750238
-0.052094160045139566
-0.009403175353419583
-0.0035893920053806953
0.07341136127989623
0.03508091334535777
0.012566534684682667
-0.11371647135996171
-0.16806146866730015
0.12150496650513017
0.00700238649716459
0.018611453232250264
-0.007465018255679756
-0.04315836359364153
-0.1192590461934056
0.010989682699882352
0.04963639165212703
0.0024752462069774785
-0.010703360429527341
0.022338096404747473
0.008797348860152971
0.012142336640014661
0.007112714838536657
0.025980599656021487
0.011346653136295877
-0.01123571521654653
0.01218427859870771
0.0583857267889081
0.010227865156180481
-0.021010677527495133
0.024423507483994387
-0.02255054261790814
0.002700454241504798
0.008397671560513322
0.02546347763478862
0.015084863134729055
-0.03212307617386287
0.016419661094350953
-0.048067346444189016
-0.10690292582094899
0.09524329124079213
-0.07347127737449134
-0.021446537793463727
0.02972811480243166
0.019394505169083698
0.003175182632945277
0.020449735253492946
0.012797807296148826
0.05628354639082713
0.06740666636849947
0.009298012366807926
-0.027639894157487858
-0.004569197726495353
-0.0003043993667465118
0.0647744088797014
0.05621783628644829
-0.006709875677572169
-0.002142572473175446
0.0743485820868354
0.021371352914042983
-0.03726156758121628
-0.006199868417205895
-0.0438776247716655
0.01939398821660102
-0.023130189686596178
-0.011646870880371338
-0.012753319380984798
-0.0026857684017730335
-0.009837677770199052
-0.016701057828056812
-0.025637702205108713
0.013730367769401996
0.006741730495921226
-0.030048796698214614
-0.009882495780843983
-0.03355156919209616
-0.026161049914894822
0.013131726217377859
0.02817681880798779
0.01588869679418219
0.011857431878845205
-0.05200017351867193
-0.12195989833941664
0.01059633503774408
-0.018321312546881702
-0.0010228413717046348
0.024142296366153573
0.014925348869454456
0.02356130714886901
-0.01073509343185531
-0.021264808895796156
0.0003170526925797046
0.018485480579815194
-0.01717195407940352
-0.002974148305771158
-0.004712721497274223
-0.021956675346047966
-0.030384434389170812
0.053798494342271914
0.030780266180389006
0.02243310254846242
0.021420614953134378
-0.047577183777970926
-0.03753039117190386
-0.02631003117606594
0.017333973728413353
-0.04629414890810292
-0.012002227195622864
0.007992515288605099
-0.021761457107214333
0.0749218540227954
0.15819277493407394
-0.05477418467566752
0.011379672033876935
-0.0231124828280254
0.04719479779679353
0.09595738040204928
0.015613458523013601
0.04060602134793778
0.005844144505506773
0.014032001069709926
-0.1188218272082094
0.04644656524323935
0.04742468820285365
-0.0571920875356114
0.022288852768657115
0.0440761374028862
0.00022065848715120958
-0.05117927867586963
-0.04490988830457559
0.107011622681773
0.09201119101411712
-0.024111038179550712
0.02517134094134853
0.001164449213158824
0.06412577473369865
-0.10233216872183733
-0.13413416051790214
-0.01450078646826052
-0.012473736835819269
-0.017801349416330443
-0.009839422985980482
-0.019160447248709852
-0.014260961977814885
0.022501037954972908
0.04402213087175488
0.021190269100227165
-0.012033468042220495
-0.02531553271371949
-0.0036931431545689617
-0.044615209316427755
0.013417256160356586
-0.018756309158487847
-0.05272742657998986
0.02001752674675194
-0.015124972337651879
-0.009369850257205877
-0.0036932723956106333
-0.008506240955129593
-0.023341274371973295
-0.049889510137402976
-0.00437948829947415
0.036633590050513615
0.02483488720179677
0.01886680440357773
0.03538010662564239
-0.0004494340787017261
0.04064933849180233
0.028820125728888275
-0.042332498115799644
0.017188197462423144
0.03699300564204513
-0.1916606026967828
-0.05569771015235118
0.06532835836974736
-0.01621552508873504
0.05198030050336261
-0.018205685477243067
-0.07638389463670506
-0.03575028100884112
-0.004159485887866017
0.015259840161151636
-0.008846268817134547
0.011429214537878605
0.0283417876792188
0.013745707728884518
-0.019318880815959772
0.015339947027168802
0.006225438605707548
-0.015578296292294609
0.051986730070554016
0.0012659974557614044
0.028548990436009437
0.020182503653235852
0.04050865387169222
-0.00509476162445886
0.01901759628100917
-0.048091874738590376
-0.0197968805588935
-0.027329945895531622
0.03284511209221375
-0.04596979302182047
0.24108213318885147
0.1424522613757395
-0.06027005741519985
0.03964894657691005
0.046590016427694766
-0.01892450187357292
-0.0334843319435681
0.039487646884562834
-0.18698697795684968
-0.03208311701084321
0.03676200164981557
-0.00462141619950719
-0.0011553920950998023
0.049464985690404875
0.082648102831351
0.0526127889659209
-0.06650329846938831
-0.056148300766024506
-0.01505736937639437
0.04162784371358984
0.026189588202969297
-0.027782463970821156
-0.06641522640607028
0.02275890275470627
-0.09038685781223624
-0.22273487708469805
-0.027829437463226768
-0.01280247052953401
0.011852971005347632
0.006622770646327984
0.06313914108182023
0.034427127292056596
0.0751477335249402
-0.0007726921746393846
-0.005543234471674311
0.002676279448511764
-0.018186891575381208
-0.011619765733040027
-0.008561339966602818
-0.002772492732492901
-0.009424379760728935
-0.006342556124718495
-0.03752521593336624
-0.04690089393298642
0.04121232726008932
0.001599402996500862
0.07002097262590473
0.0348440694961682
0.01204351155219167
-0.052901751557582394
0.036210459044075854
0.08215944683231864
-0.023937611942959396
-0.06281113750427986
0.09332335886876567
0.109212613896833
-0.06370482693634612
-0.01758737459962756
-0.044339219394228406
0.030546798278742026
-0.07857950928974518
0.021731719625544703
0.03171831987657015
-0.025897005717625664
-4.9327179937810404e-05
0.025299929424023027
-0.023100056212585877
0.006532300673330396
-0.024325763863137707
0.00789649360012225
-0.007223336076658949
-0.008887041948020778
-0.0219831086216291
-0.013371802610198198
-0.00020844290318466178
0.029156920345736928
0.005005849368039049
-0.03365498195087998
-0.024495246652810776
0.02108277985667924
0.10062498334751524
0.040834661006328016
-0.021710332328538827
-0.0370406782256664
-0.015403601323813734
0.008528461284935694
-0.03072143878471796
-0.031192842976853687
-0.06706951699894943
0.044022010635164456
-0.01792334950179437
0.026523048960274215
0.16631167937810287
0.030444052229103704
-0.02420824759475044
-0.014872182432321041
-0.016859122240639807
0.02362056625541772
0.0017583585602763579
0.0015443886480923424
0.03476736414766879
0.04050225744285882
-0.00846268986400942
0.004069232772825889
-0.025099108234060457
-0.005646556409328113
-0.020514998044105903
0.05174372075754916
-0.10926270801598797
-0.16008472579566285
0.035501370489601836
0.01293625859378227
-0.006442359152795124
-0.00648068834325519
0.010056687419402835
-0.07499593824192523
-0.020272182809130297
0.04989533086586143
-0.007103779305042909
-0.028090286639553222
0.009808520581775377
0.021598545555606283
-0.03656895649417295
-0.01093428089616068
0.04658635764365232
-0.00489872722564701
-1.3434646629200913e-05
0.03606926864108965
0.004787917631966214
-0.075043259713631
-0.043562669248876584
-0.015491451218362675
0.02240431327903129
0.02497530805808582
0.0314777324572271
-0.0028072626763498494
-0.015651564956429304
0.0029926654076172735
-0.004308838763921094
0.024996554270554427
0.02538351495405856
-0.03862301191126017
0.015339021919536814
-0.01735355558967577
-0.0312671923409456
0.0012534259648424844
0.0314685585169344
0.10562271819674637
0.02063915143800148
0.016420355172907474
-0.006335558110760879
0.03285736670358068
0.021783912949620662
-0.011139929812966
-0.00804888122244834
0.007883351713337906
0.026458530874585925
0.010950593627753375
0.008879245579132425
0.031022474150520635
0.0042614069337212155
-0.005726364790920514
0.0193785316910196
0.015869995670487344
0.02867985799937929
-0.02189986700832598
0.0711245746635021
0.09349556973241509
-0.07454028499439608
-0.08395230786396471
-0.02809762936740632
0.016237547560286666
-0.026466543618216116
-0.0191575447952005
0.023036657402379427
-0.05768427213034031
-0.0010152272002899336
0.0005570607243610534
-0.03376112259593672
-0.0007499570008202812
0.02704225623349478
0.00827465677214672
0.0642593314591642
-0.2442889225780346
-0.13901500001924613
0.026003931475986775
-0.0032241589678050496
0.019161202748768057
0.04917959053788894
0.03848008977519482
-0.01202742527005031
-0.00115115432977633
-0.011543068538513234
0.012125729669755548
-0.001001307082341121
-0.037932672728691455
-0.06369981035243578
-0.028613033761280233
-0.01264363700150919
0.030199213335014057
-0.013109945983290022
-0.021724380841270943
-0.015726787506365237
-0.0210175739251816
0.08300249144725656
0.1343319318735298
-0.05569600489796273
0.05624076113312764
0.00632221951740668
0.015070410984072104
0.05164182461548785
0.02259620560229791
0.02229751074654559
-0.03927326912179036
-0.03861523750147516
-0.007277252616931784
0.043737214339159905
-0.013035610876286836
0.05521075222638591
0.039042317690349056
-0.013012636340118709
-0.014843666356522393
-0.015629829898283164
-0.02235641550302332
0.03516159104375566
-0.007277731763731993
-0.03542499421960656
-0.006003359428619394
0.006902441104743702
-0.007601175952133967
-0.021032504889332553
0.03390569780868859
-0.024569729631241544
0.007404906764604385
0.008172167572210813
0.02066856819261096
0.011563705757689918
-0.007584189653801127
-0.03655511152074966
-0.01622400891570655
-0.030272017686706003
-0.01072765944050439
-0.0061175770636646065
0.05598223669564257
0.022267410693329923
0.03022893915425098
0.032904879535172224
-0.027393884163469162
0.005393592801838036
0.014557632071012173
-0.010111046870319475
0.003821157291777811
-0.019883818098245427
0.02815952182584088
-0.010114517188727884
0.034851186589931984
0.0454403880637535
0.015058084271345747
-0.031004543191541625
-0.07364882234423607
0.13593707704901076
0.05792757765669648
-0.003024543505386964
0.012778125610939566
-0.02809879503234438
0.02117838053561994
0.016722641331096494
-0.06865275455375103
-0.047074492403761305
-0.010510833068723392
-0.1752521896315598
-0.03760185252395609
0.03459412104255563
0.0769668697905296
-0.11891832773849827
-0.0667661985093026
0.03987590506272205
-0.0004877902233493346
0.01884553125823502
-0.03452315871404983
0.0005734564490313955
0.010366997416762048
-0.06187563635717624
-0.04618065256230298
0.0635967903704599
0.01481321704897237
-0.020646164758539535
0.0029615090217020618
-0.012820791820736423
0.03485520227329166
-0.015009014586854837
0.04650996211518707
0.022469964272917285
-0.009157831225383096
-0.011525748293525198
0.01498762528166819
0.04399506092027305
-0.04898890401058166
-0.06469794827966538
0.07455526238955573
0.013219982858879419
0.025501529873610172
-0.009677373249661727
0.011630484222842553
-0.00956117904735731
0.011708671404923099
-0.01225830349142774
0.027529988558464655
-0.02814743721867456
0.11213005331908657
0.0690120269806791
0.006133498689011482
-0.03084824264502919
-0.034764832123451654
0.1619126863862554
0.006477349345655047
0.06291874920876087
-0.04444786354158179
-0.1674555933795792
-0.031203547700222187
-0.029321000531021265
-0.05796350984678182
0.004480226192757094
-0.014049401141149642
0.010928700646770519
-0.015122309408053545
-0.03140395998167405
-0.020353473713789268
0.01942267974036986
0.0575578490481509
0.0265925415000963
-0.0037411866858523043
0.0107743387844748
-0.03905222509442925
0.0007224630809194863
0.015355837295987385
-0.007696890774862168
-0.006516576137176018
-0.01350464751308521
-0.029645832620947294
0.018313200573557956
-0.008273494783238985
-0.005596497403420739
-0.06496338676812925
0.11871454958596579
0.11578846851010656
-0.021402282754835602
-0.014490349914739709
-0.015892946479548236
0.026002360233946146
-0.015388297914480356
0.008679214885469425
-0.027665716821297627
0.014285855893380823
-0.0031831620345540547
0.0017394950594782626
0.02879770659865696
-0.01604321867472513
-0.0060114280422282436
-0.019183875065408414
-0.11918253416461547
-0.047352968400891864
-0.010090215452673587
0.013841285165599671
-0.012890670923345721
-0.023933380216752766
-0.0012066919141906648
0.07596208969328888
0.08809959282220485
0.025480326831027963
0.003092155000053535
0.023737220431421943
0.013260881021095083
0.0052649543677369395
0.03405542058671418
-0.005553187094870601
-0.0014486163796658216
-0.012743377737207235
-0.04676459176741426
-0.030905340375902257
-0.003304202703387285
0.037077177116666006
-0.010168940415835924
-0.0016536933223148184
-0.02039647160766188
-0.013334991108816354
-0.008980873265812489
-0.029698119573936983
0.002377423093303994
0.0306346289684241
0.007481854710875568
0.007483326418911823
-0.04044667114646531
0.04909248571053963
0.10784631909373893
-0.11749800149672943
-0.13879431694579836
0.05355917085038007
0.005533175172670462
0.011884554030952385
-0.07050749904335565
-0.016407302818603243
-0.006088032880807209
0.04292485427885118
-0.0014449085104076417
-0.03244445660079136
-0.05085451810582584
0.04193955105435646
0.0006776718440704333
0.030866549113095627
0.0783237492654872
0.01545990941304318
-0.030225169461821903
0.0074712001989468545
0.003022740940815844
0.00883999402495554
0.043284221573345556
-0.005767277430623619
-0.008876371781982563
0.0068614094242478016
-0.03335358748704803
-0.005252310159909703
0.017796548697520686
0.0334374679179347
0.011258907405209111
0.013470695589467048
0.040717580007693606
0.03449988605053681
0.017359550655436838
-0.0057835809933632154
0.00796067687689723
-0.0009080935903251588
-0.002016903482301884
-0.023611921863502857
-0.11978468592156497
0.006016797906056764
0.012228621014865526
0.0031814155840591317
0.015235779125651355
-0.04515751291859116
-0.0042562752283086
-0.005311217048888249
0.020507189611643054
0.02761203030670499
-0.02400915850655536
0.015929722587302547
0.029230921392541014
0.019202084189099234
-0.00912486860703803
-0.012739997893132907
-0.005458108398153567
0.013761725399025261
0.0108180557200323
-0.013601680674192576
0.015687939520647214
-0.04759976503150693
-0.028596217460365107
0.009420331034862573
-0.024965280531891478
0.017265549997070882
0.06174580640461064
-0.0652178220164555
-0.007613751757768352
-0.002786953246349634
0.0004635099032850074
0.006954410105403808
-0.004929428720324781
0.0006764580528824481
0.029770099271556775
0.00033906895703979516
0.01717926169993042
0.008647705699990014
-0.00568119820349557
0.014200766884368702
0.0179275266626288
-0.020490763160121144
-0.004092299939823095
0.016422159901448324
0.03148628006240885
-0.03809682139958327
-0.03727412374250217
0.009781502900888946
0.0011066165492187338
-0.012163900297151758
-0.021218714095857783
-0.007798688474004644
-0.00014831801219769756
0.0018222867403038959
-0.022655617959361097
-0.0493303335574185
-0.0177791838061839
-0.03441931922429007
-0.021991955873165315
-0.004150799117140338
0.0018622652170907277
0.059483552984114854
0.030793881996955704
-0.021911973250649065
-0.004321644437666325
0.019108642407305
0.035055059401116834
0.0190704067080276
0.014218610856276655
0.0036451746959016667
0.01037988522409732
0.014586545784732174
-0.020960389690288603
-0.007922829582662383
-0.012356177805575675
0.00797153767467156
0.003924978207212423
-0.009732796577320641
-0.025397869139697236
-0.003973253117760456
-0.0125019964326848
0.11528248538002397
0.07244563285066948
0.0014342006673746948
-0.006564346202116434
-0.018805546372609075
-0.028208057073826738
0.025905179261365943
0.06646359190810074
0.03938075316175359
-0.00604660353334075
-0.03583581528440625
0.0059081886752897625
-0.07133069064818412
-0.20625437065061922
-0.009389896037955711
-0.004959340186427505
0.04304960924540231
0.0025658918155718234
-0.03154076827172637
0.009945288240038357
0.04755036697567894
-0.037242111520949694
-0.019216430088925204
-0.022713266608281043
0.1297252540736202
0.10301638397056824
0.018377409042261095
0.0016806049487026505
-0.012861020832404015
0.011202477158858424
-0.02840751805946612
-0.04871287396136344
0.007505675902450474
0.024518900793704643
0.038293227158569046
0.0464181986241056
0.011370381465180919
-0.0324784380927393
0.03422164887251189
-0.002938997340133772
0.0021150723928766726
0.027494132226872647
0.004358687843056225
-0.16401793815663782
-0.09027847470609458
0.011058253643708934
0.02725046119133266
-0.013864565815620369
-0.1607046071841666
-0.009237447507944446
0.0668671181197604
-0.030698817431661966
0.10384697511782513
0.07207232503015723
0.04221375665996105
0.03454780913146027
-0.06384571260469046
-0.10330264693749751
-0.06542077030038082
0.03453445677919142
0.0019292548276078707
0.04556060274077152
0.0028090970245481226
0.0218798950836735
0.026805015744176194
-0.004408077419728673
0.00042169590966369776
0.00883944320624441
-0.06702254784422636
-0.008554164475865815
-0.018414191915720975
-0.004994337470083123
0.053491037923000216
0.09098995777893963
-0.01402807716909192
0.04210272434052045
0.015086421037426745
-0.03950139234796609
-0.042532686304885096
-0.03304150038707262
-0.013136742898296404
-0.05901135036319374
0.019905622986910215
-0.016048289320228594
0.05411838254174642
0.014257226803534962
0.040429673378228836
0.09264688417195796
0.014154674206127052
0.022642011953007867
0.018680391752510968
0.026774595537889228
0.007416743800318082
0.027285610022873417
0.05940072119038982
0.05354319178520496
-0.20541714409196196
-0.015481317128108886
0.04623554114368822
0.002480678456346229
0.006276236150472361
0.02402278792926922
-0.13124304691571773
-0.021908150431502616
0.03131837675143687
-0.01718566763711362
-0.01359758511718587
0.0030044844901512924
-0.053598933251293945
-0.1822735033037508
0.07183855500537133
-0.015283648433448493
-0.0238810782868209
0.03520323666927271
0.011491161820195264
-0.03527533869640364
-0.017957189794075307
-0.0025894807637282594
-0.022936307629868386
-0.024064163649579706
0.0006886835497240121
0.06466368253076642
0.051723372942932846
-0.0034955875193487377
0.025202037240094843
-0.01285622778470522
0.012107636265600021
-0.024797070204325748
-0.010971946326945753
-0.03562678619006079
0.0035506086332205305
0.012205443266862556
0.006798580988619919
-0.02524232217961531
0.018356557660441773
0.055005051142600764
-0.00021317919157217644
-0.012914190051871745
0.03261513662135015
0.05858462029933359
0.025957830352605238
-0.05306464311671785
0.09242497579042354
0.05120499381066248
-0.04971883726403516
0.007110738690661703
0.018467509202675453
-0.0037201592860301117
0.0007888413780978845
-0.008707332857622112
-0.023213387077161002
0.10858468300055969
-0.017901868483348897
-0.026739790500274967
0.018746119828799413
0.0008748273322693745
-0.027080032283119355
-0.025563513234291894
-0.00406415578376767
-0.0062667975266531865
0.03924289738979416
0.017976816185166836
0.020242222917341
-0.05525783836794094
-0.03471230383154049
0.0020267440346024303
-0.039100217564432785
0.012668300666609565
0.028492054456195622
-0.015823261464640085
-0.043116611378301875
0.04009215064327658
0.00806967281131433
-0.023437385935475723
-0.0016805932108883
0.02241888444843842
-0.007268799857060562
-0.009277498541611239
-0.01561061130414814
-0.011565455375074928
0.0028254168779697367
0.02196778994758482
0.003276090189140954
0.006710383372521489
0.02221800422182243
-0.011706181356964572
-0.023084303465804017
-0.013091738493772946
0.02257545467951891
-0.03785140591200245
-0.02182058721436649
0.019347028646956258
0.036463659687123104
0.03305463657499943
0.009188175779860181
-0.09621166266552768
-0.02969640841300726
-0.008127960542427528
-0.016734276343272767
0.030612094975797616
0.07383503277409796
-0.006407289184821456
0.056765316493657875
0.009013065803604923
-0.017424504149653637
-0.08391845903319962
-0.030842771526077468
-0.008738231959715688
-0.059355007577157226
0.005314852704579086
-0.02514547143342236
0.002868905691911719
0.002674889901704888
0.007641648193749322
-0.0011482050220058954
0.01166621602755161
0.0759400866629174
-0.002269212075805451
-0.03950006808753996
0.09166516563265689
0.015503747101517187
-0.025403713591454064
-0.06224573337721998
-0.0723506097658655
-0.014495593736226131
-0.007883879553238262
0.0017132802498759094
-0.04160114637816125
0.14647237068285368
0.06635180033606174
-0.02642197365890294
0.005302037965329895
-0.012141282564224627
0.003349910342427926
-0.011996128664857587
0.027443413038567767
0.04639482512978987
0.02491055333551787
0.01267119519393393
-0.014503657663360028
-0.013390138165370486
-0.00023151707236332363
-0.031238188015687226
-0.01365843708484386
0.01891826748300128
-0.030106576175801016
-0.029707438415559867
0.009479259876851935
0.016026183255078878
-0.007980676064714061
0.0002809683182261028
0.01696822667280262
0.03596371522363657
0.0038560673741538216
0.008234097220627254
0.0008057742050627829
-0.049649856631332596
-0.032111727490186065
0.017494016356033634
-0.002220525350276294
0.0008694176276027748
0.025231321943778525
0.015403523023548154
0.001014052024470002
0.052599113352363884
-0.03155939670245387
-0.012768445693118248
0.011998270872370854
0.05346331792483668
-0.08253964366022697
-0.035194399154373834
0.05439571942771487
-0.004566785974777524
0.002872403880157544
-0.02081737309499636
0.00446611650398714
-0.008127301038188369
0.004301967216533151
0.0430740226069708
0.010704102309309039
-0.014672187814741779
-0.030260838328442164
-0.0015407482912428616
0.02141231086161743
-0.006787844325989
0.006029852443801641
-0.025742115649866597
-0.01960258044989225
-0.011601707529621273
-0.025373828270046098
-0.0033115797894385265
0.02612187461101096
-0.01747562785859703
0.004358633631230437
0.021706954654178722
-0.010353749858528268
-0.033358435834533975
-0.032260303165927075
-0.033640465649906325
0.0020350941105676335
0.023142454330035575
-0.028562554244426327
0.01177697294320713
-0.03359486453394111
-0.03485599417489478
0.04397852406675621
0.034542601233228894
0.0029910349655577996
-0.036415110274019655
0.022935481509967954
0.08659494347535615
0.031507453002308713
0.0008478994350333856
0.03198789713520666
-0.014902937592493053
0.019619317438714486
-0.030510201014088467
-0.11745119512977503
0.033639928343332806
0.04185911397223555
-0.018214987881442903
0.018144294423530414
-0.016160856388260744
-0.012661654337124413
0.00456996656900382
0.026711105786727928
0.010311847419616483
0.03624135004697212
0.0360419800850435
0.032906236238391784
0.005414097592418944
0.0589942591273949
0.0334064418920693
-0.0004880801758747719
-0.013146523161620795
0.01421754088759707
-0.030892594389005715
0.01504292501412543
0.028227784825597037
-0.013117568390410518
-0.1495967392267806
-0.00776801370138206
-0.042371924810432
-0.0941860452473194
-0.008279610149334394
-0.029989219043493782
-0.030668369990148086
-0.030368583755486657
0.0630624299546378
0.042510847296000985
-0.0071666036470124286
0.025358893475500553
0.04475574976918272
-0.04802428025211759
-0.010791014812019536
-0.019649039375298768
0.016451058594781184
0.003909746691444736
0.0029498223032110565
0.03561790571847416
0.022206841079118172
-0.005152398841953777
0.021848182660257946
-0.00048297560190388737
0.04468925528259934
0.020928489163098155
-0.018768357924124443
-0.02105013986307656
-0.022786029170327935
0.0299246618526828
0.024695691269883694
-0.02898584349575848
-0.010335852094880284
0.029633126307184128
-0.0288563151233963
-0.04694122071115236
-0.03236380455820543
0.012156285355497207
0.023981869293803696
0.004470026300426812
-0.004195564813050601
-0.021896873525087804
-0.0448042876011617
0.03484450698116066
-0.0006542462913839319
-0.027327013771041415
-0.005326837033750108
-0.02774932789914794
0.031306710364572284
0.07196163623780126
0.04100788996296711
-0.04003408471191947
0.01885352660577164
-0.016165653456942056
-0.006971235745358389
0.008924542112947341
-0.006215505421567669
-0.011038228265009085
-0.03746577534981973
-0.040190141545188206
0.09807640092295725
0.06068944702271206
0.02770230707883593
-0.02613807009156747
0.02143569132035145
-0.029125562677610895
0.02901550427621831
0.03339489719537909
0.025542843999313693
-0.03283343562117336
-0.08228429244338009
0.05739771811719397
-0.00989203406992845
-0.0018867548874191768
0.015067441603525432
0.026513321312425883
0.032467518588011834
0.03192353968605487
0.02651137600065581
-0.03867232609265054
-0.08163419070113492
0.0067180489466757125
0.014317835170415788
-0.006318503870180727
-0.0449340729754869
0.004789500623247056
0.05213106945159534
-0.13499734669913097
-0.10136895229129307
0.02777851121206685
0.00038922599124338993
0.007264427426928075
0.03022142342635759
0.01722980321178269
-0.02840621532633402
-0.01650123677860049
0.0043527580410805105
-0.01429969683193934
-0.0037449656124127497
0.01248393689152454
0.03655134175362304
0.03387499119222364
0.024749199088984052
0.008166730623454705
-0.003199936913739119
0.005409970840787544
0.0019982557553581484
-0.0010396517043924115
0.028987726695217802
0.08117295310075116
0.02394959819522048
0.01298497972036034
0.03167425167346947
-0.0026269717615505484
-0.14822716095120916
-0.045725142518628914
-0.018934148420904334
0.014772321309302313
0.011591795050259866
-0.04521561469506486
0.0158505442435181
-0.00929280283522714
0.03630718366272119
0.027847668854657524
-0.008005283802342358
-0.0026775322370584417
-0.023233357508717332
0.018391540064262215
0.019804573526682138
0.01290669221782398
0.011409597621266586
-0.024449704303641927
-0.05854775343581144
0.0016455810437298218
0.012174404681247116
0.029883873593272492
0.006091723231803808
-0.01381605542818129
-0.004712638801025215
-0.03595457662079665
-0.003861057901277829
-0.03385182862836412
0.0953069804015804
0.08364237052703724
-0.18642201465753602
0.005915496769780265
0.06002857292530619
0.03517746859076081
-0.07779332896018809
-0.05017875000298033
0.02602041226436845
-0.01558617225962438
-0.03762221189130722
-0.015012487504892383
0.04473106020885621
0.014008438203732938
-0.00745968035316747
-7.689590285341965e-05
-0.02178626908402149
0.04381791106578588
0.03497756407375033
0.004078350503107318
-0.008687592407720646
-0.002665504805180693
-0.013370543645348221
-0.010865965906472506
0.0011097569722683881
0.07851559338423403
0.13809957079690036
0.02955570503876545
-0.004969254003125442
-0.017464792454670655
-0.006898348737099899
0.009714275810466744
-0.022853351536696844
-0.012837297854914527
0.002838521525724085
0.022897424190007933
0.009347325601684598
-0.0449463354398484
-0.0073427568911083796
0.030372216790006654
-0.15782186854994257
-0.09966975507430591
0.002726063759033752
-0.04399655887959766
0.02730494374673342
0.02873474378917327
-0.012320559562911903
-0.00896915255479368
-0.004378684503560192
-0.03895612269390991
0.02148919498291511
-0.00025568067583506125
0.017708809167214228
-0.04471376110079784
0.09753860375795535
0.09749337960009176
-0.03213392067170467
-0.008432317217800142
-0.008877119321076179
0.035682611149686794
0.0026166382842802323
-0.015596544560732437
-0.0372545118390385
-0.004130248596478192
0.0388738030953426
0.017572306774117807
-0.04256573388471616
0.04299231530490262
0.10510010871113473
0.023400747237033375
-0.0008697224308176617
-0.00503652434400263
-0.014679952422629561
0.001919676924100896
0.006387567999748503
-0.007854737784703483
0.014120248212156088
-0.006550055954789989
-0.0256422607508952
0.02470763957939507
-0.01838992238168481
-0.0024213419610158663
-0.022784694669249157
-0.0035017872493878026
0.028979605835342842
-0.014877884545856026
-0.03868177840261151
-0.0185699448131583
-0.006370853246893371
0.01978359846060209
0.036687381524307644
-0.006836542659477011
0.009864937754370412
-0.014626505038812156
-0.03374029505924473
0.002115743738543381
-0.014739042577694084
0.009709860726482583
-0.14133843878385163
-0.002644768144790141
0.07352337033083835
-0.033934349791237044
0.02484610760369877
-0.0920068424662201
0.012883512322262605
0.07830371337545404
0.002381853194227209
-0.028191457587150512
-0.032982773492450226
0.023425892678481497
0.08779606907509989
-0.046292262910428074
0.0034354056692753776
0.026595062837008063
0.011357094221624224
-0.006411829418182271
-0.020470542651706468
-0.021497932426603587
0.005924339241289811
-0.05380051672953081
0.008361937988633446
0.01490151348850177
-0.013481913088390713
0.022597689191531926
0.03216752177895186
-0.0024394768085126777
0.13162929645375845
0.0021665072473608807
-0.01365018199747539
0.03876891081936412
-0.0335654149320942
-0.21493417290506722
-0.04511721948767292
-0.0011212643057514182
0.03160324409967736
-0.007295230523662691
-0.007103170548191656
-0.01449035981463843
0.008209934957025364
0.0009063441960234618
0.04232537842344908
-0.004009214301623481
0.01679746730437062
0.0023995784198955076
0.13405434638741015
0.17993659064623468
-0.04915401828525562
0.014112679590897605
-0.009274541285995199
0.006861559096916167
0.007480143117515369
0.04431779954608169
-0.0501051679543842
-0.0361634210950717
0.01158438479962648
-0.0019149202015409277
-0.004433090203641738
-0.005047482342820409
-0.03735311113768013
-0.03846753202987832
-0.007565639402123346
0.024834357714313443
0.005828183428616292
-0.008899717452887332
-0.02427164323321588
-0.01993646738215233
-0.003459083905287725
0.0268186002290059
0.001762776951547322
-0.014797450054172063
-0.007635719796811481
0.01597945985790657
-0.031011920588922142
0.011247026800516795
-0.04886521229175425
-0.055073493327906856
0.009167388255760273
0.07294449779080642
0.06690421639109406
0.01074504737780662
-0.008036838111256533
-0.002806313283459686
0.024165521990276776
-0.010280597918403835
-0.013511386367785198
-0.05266215954488834
-0.024876422590233253
0.010867837205055951
0.011427188105723357
-0.03693769550210637
0.00287701675258619
-0.009347627852522168
0.04007110050678802
0.00021951361061267843
-0.02900672669639714
-0.0031157771068642684
0.008161299621827399
-0.07427361813046572
-0.03463766048639759
-0.022665815820729053
-0.03862638870921581
0.027933939777565333
-0.02605072819933273
0.01022046627085407
0.012467431891278706
0.05718206433738678
0.01607961777704723
-0.009501753785635801
-0.02063269400916372
-0.06882878193879143
-0.017893732543864543
0.04728385891303496
-0.053870642340604735
0.16219370984933085
0.0748806179399413
-0.03327145295602251
0.011886923710298477
-0.005069327493798741
-0.011292709118877226
0.00998393957271948
0.04665783854185196
-0.008011422956685098
-0.0703085749437825
-0.03319293846213308
-0.0017690086670536823
-0.024826967054798265
-0.01972797956840668
0.007061631544358551
-0.009140520988285493
0.01304033128154406
0.07613348947294961
-0.02127542819837517
0.03847173988565687
-0.01804711968195276
-0.011764766387589587
0.011410084186901358
-0.014237659058097528
-0.0021258147859541375
-0.018130356373034867
-0.004873844030407081
-0.016605826932388833
0.0820888430770562
0.0605101783004919
-0.008148251860327218
0.01120091703891486
-0.026831421939282205
-0.02128489211553274
0.014913501415108915
0.019802980571715156
0.001338044393570681
0.11431291516325441
-0.011814840599178205
-0.03376770908152638
0.029223584303700003
-0.018419726530682832
-0.023952275283313722
0.012531856487916803
-0.02848764807651818
0.019240783960141488
0.030891855707685014
-0.027262326022135148
-0.025032075495472303
-0.041224815998915594
-0.02083415698837244
0.008092064165510735
-0.011751024023163251
-0.039460993641537746
-0.00271052997770323
0.007561792821202586
-0.01759607553588147
0.008509020479819981
0.013174440287045591
0.02264845156499808
-0.09855842783679755
0.006909023974399035
-0.003736688723477473
-0.001440930730138874
0.005791718131533418
-0.05103084889432098
0.014240990676458638
-0.009238581565764424
0.019963861246763366
0.06642046179242442
0.015786396269075104
-0.00110789173102341
0.006675536069393558
0.02739658202053794
-0.01837937989837565
0.023710315240622056
0.017607425106506227
0.01716497353624645
-0.05932658971109367
-0.0082885239053758
0.02216354354132665
-0.0339993083474813
-0.014993607469662931
0.04794088515349059
0.020530132504201243
