0
0.0175442599401613
-0.014167238826751137
-0.032508196385228894
-0.06054769324688263
-0.027834750136675235
-0.01526668548791912
0.03627887935715731
0.030610799706443367
-0.008963765662594157
0.03418729206579375
0.023058857934679645
-0.03400896024316148
0.00908175734937064
-0.013296668323996695
0.01035437207353705
-0.032978775688747686
0.019471074983039627
0.04167516331459501
0.005953179757619005
0.05460163193831438
0.03360994729734908
-0.0021670860862693635
-0.06760796975621021
-0.012926306687447748
0.00987082221344881
0.005274285645618633
-0.03184702984709183
-0.005082661929882086
0.01111500815301126
0.04507591393347966
-0.019605973123779742
-0.14403415310011272
-0.05708572195353538
0.022841526269847336
-0.014851540603274675
0.03370580390035106
-0.011262847413887396
0.004282317658040173
-0.010589796926773417
0.049734048610776634
0.10276983274311965
-0.017635008462532065
-0.0233896065762248
-0.011026270721011635
-0.008975114643813755
0.02081275104360901
0.02521254635645291
-0.001327776638651806
-0.014505893717134257
0.007088492592638601
0.016439121255669265
0.02028653430931013
0.02227307257844173
-0.01069308078141384
-0.029903721635053532
0.057894025439192316
0.0032971761128686218
0.012931644150651584
-0.007009657043857627
0.0016605204579430892
-0.017377452910456448
0.02966363872992206
0.014111726506514656
-0.02191191999351623
0.014459426199923143
-0.002823214072306831
-0.009327295027457123
0.020723409875781026
0.04908197267923158
0.0066675217062779485
-0.003234991872090755
0.01571003451622468
-0.0032203357237783545
0.04564423314282299
-0.07603177691942738
-0.09075976491232397
0.004973411418521576
0.03778720589880256
0.029944693570174517
0.00128413619151608
0.021730434464886872
-0.041842377094992056
-0.0879717684273181
-0.03410735000102268
-0.007502619418654101
-0.007519254811759705
0.01862467393704652
-0.01586000955622155
-0.013374550412420583
0.03781395128340828
0.008823076888771611
0.08963686984241098
-0.05818524778498257
-0.1623935960019786
0.029895863796500236
0.02230894315742739
0.04026155745046557
0.02701905586902867
0.050862864746857556
-0.0023200006555056736
0.02426912710534972
0.016974173605625226
-0.015817859076817285
0.01111520329982626
-0.012021187862939268
0.010490047645009524
-0.04203599600230552
-0.16626171167660703
0.019824423819395674
0.07137349557237181
0.02340244818777174
0.03310800116803794
0.001775500015656884
0.017234252229017845
-0.008334497107096031
0.024796560904979646
-0.008323413691515485
-0.012126366073158278
-0.026937259233568878
0.017243324076980034
0.022143936452777922
0.010907144871889693
0.010605777343642098
0.03636695702522588
-0.005455452347647236
0.06627530005003836
-0.041005632236776175
-0.09520194616284078
0.0511749158725096
-0.025201021268732613
0.0031201760055257766
0.004401040800783915
-0.14088666158793653
-0.012333721758176198
-0.015982748195275592
-0.03318898420701103
0.028926470719137384
-0.00818183765882831
0.0017070208314808367
0.043994336152755525
0.006882195571727891
-0.0027049636507919584
0.028731644072591676
-0.004161012576557004
-0.042358913341964996
-0.0007904387530364439
0.0721396094725637
-0.030054558029336313
0.001673068155599453
0.1196716935096091
0.020199286879572474
-0.0018906837291895393
-0.034542104285790715
-0.014742848278290609
0.0005840458367753596
0.00869489556460001
-0.00633562037552814
-0.0359256042094284
-0.028152431987906373
-0.02150353113417868
0.011391544258446469
-0.010670460421186816
-0.02428516504104709
-0.04920403537041151
-0.013624701964516775
0.03064655696287105
0.048161176326633234
0.008821556845387725
-0.022445841818863523
-0.03370137620727208
-0.03466569000547673
-0.020576790433895802
-0.02676199876697459
0.011636074103821888
-0.056707823930892104
0.016531993226273682
0.15142156706517815
0.16162415247702802
-0.02357793648902916
-0.023703527079069357
0.07074038020791011
-0.030757691238410434
0.01845295502196922
-0.017839232701673792
-0.015020156304711502
-0.04633927851395397
-0.006134671229813966
0.14167869152627685
0.045374717210072864
-0.00011824672844687382
-0.03273397047216914
-0.03217564673511766
0.013785313941895068
-0.046216699808206356
-0.013233821167293026
0.01752941015897701
-0.01853475890408884
0.030089600051190216
0.03806421028737331
0.027394772245324737
0.020619137428170654
0.006083762642635468
-0.08051624963602495
-0.015902839321530027
-0.008922354082385604
-0.03434244586284213
-0.026301721691119394
-0.02072666197505057
-0.028305975550570465
0.004202661962443107
-0.0027793249573972697
0.016178300684847723
-0.0558351700698942
-0.0234447054809435
0.010444137110053781
-0.026973679138251064
-0.03095350015349978
-0.024987443705201715
-0.008791703349311111
-0.0015604628994075292
-0.022902525065540764
-0.024586842841234812
-0.02281029052167996
-0.0032594138912381315
-0.007512274191851357
0.010536075932444114
-0.03519394695830716
0.0034350562908681097
0.018375859417205664
0.1692522262131936
0.010004846022949676
0.14977015170357857
0.005633226356672684
-0.021087850383158455
0.009919114223110361
-0.01826858085828429
-0.04278762722725376
0.019204139542583855
0.15399406326202708
-0.05701493614429513
-0.07013623073507207
-0.03526344772854972
-0.00592890253361055
0.023889392936954235
0.010425843563166962
-0.019126675525874572
0.025769633340792405
-0.023249175840549606
0.0225196752425303
-0.01909522940312121
0.012044865590105954
0.0017022525973679067
-0.007524724674477529
-0.05370672689005914
-0.023498966668574827
-0.012184738675114722
0.013708668322539412
0.00823413345393275
0.02430725596518591
-0.036584350100738974
0.019244337022401695
0.023013733265705053
0.016447035896566903
0.08940606029936185
-0.05177416594135471
-0.030032458899143324
0.01769736811479299
-0.04421824301463344
-0.0077457099720019
-0.013008423794334147
0.08712623637181234
0.058069062724638326
-0.08318545628744363
-0.09823550293586929
0.02716761286975444
0.006261491158882161
0.041185116882832086
0.009074175695209925
-0.010068452799437763
-0.003023159490773569
0.012196267604097902
-0.033762461158802846
-0.03783198867535092
0.006176857215873427
0.04606573200977015
0.020810911678159676
-0.0031505542856619575
0.01894331738020058
0.03475399635807227
0.019626682987031165
0.015169093859202658
-0.08556885925796137
-0.03357849112261003
-0.040656226400840205
0.00644170899391184
-0.034674635918752736
-0.022275348318969563
0.016098944480999387
0.021195182649897094
0.013521439739974899
0.013423719825528315
-0.06628574321105128
-0.05056306405983423
0.03157345477730469
0.015196264984224826
-0.017975219100955363
0.06910459344022733
-0.017031106857852633
-0.06174679189113337
-0.03812981855644411
-0.0551023063718553
-0.04427972076855891
-0.011513338445109314
-0.0068890926940058115
-0.015333669789151325
0.0013761844195458075
0.058755336883528325
-0.038038249149708714
0.10223803896206082
0.1478754711995199
0.024229047195669828
0.03520969833218456
-0.021641046192564455
0.008185831482831241
0.02094949518580669
0.028883776159227652
-0.008785768477821546
0.08073257542506457
0.001609139818069191
-0.049256454742001056
0.007019321394641429
-0.03796461708915163
-0.028127530802777783
-0.014857184316740775
0.04157455658203523
-0.0071389050321439785
-0.008500127906299011
-0.014804791855516536
0.030753435821856526
0.025392325358974413
-0.05559839970168247
-0.021259714547291825
-0.047057452815333495
-0.0013113566068938562
0.0029279467704605286
0.09356603962058535
0.065158040954944
0.012827281244294221
-0.0005113311275277689
-0.029644873746499947
0.008192750039077455
-0.020984937160946026
-0.03319892592381947
-0.044531369977977575
-0.00529205135815616
-0.027777754725135023
-0.02230353215916117
-0.014834917833906577
0.03121961016346391
-0.009584361306222835
0.022831131080199085
0.04600438780929246
0.015684983094695962
-0.07564512521385319
-0.013677251296341156
0.0005637644416157117
-0.05262232610671488
0.024394650977344123
0.03348726011152864
0.00028007650322476446
-0.02977998723256787
-0.039292182477735145
0.013790620203818655
0.010658473002588783
-0.03182693040878696
-0.009049327626840234
0.030164202991279313
-0.0007288401704365867
-0.0053211835923550116
-0.01480416426436013
-0.004898845592249584
0.016084447307185796
-0.0898558734997108
-0.017558461295752153
0.035285243191512335
0.08429934685025162
0.03246770029322198
-0.03645313336167111
-0.007111985746430773
-0.01130101361550767
-0.027427604112736755
-0.02336276963193001
0.005933858685485867
-0.005551607768735814
0.029703922295109174
0.0076171200202663145
0.003933133105983085
0.0013876336807652266
0.014657292564044853
-0.012727244513457405
0.02365804652339471
-0.03278678212648987
0.11163441007595014
0.13879908358987503
0.034192978338469446
0.015938743979859466
0.03367238818279404
-0.025273885182780766
-0.03610343031816426
0.005809052821285935
0.0066607966276729415
-0.035737067980818965
0.014770135454209672
0.015328718088902545
-0.03455473660056089
-0.036341237257313294
-0.013634853136179364
-0.015054311185621084
-0.03561528937939425
-0.008302268353468504
-0.005479832711575527
-0.002203951373434745
-0.008518868041828841
-0.010975937139761398
0.00740987286445306
-0.002897336862658412
0.031148461314168385
0.008902887403960408
-0.02018204461872892
-0.013536869989065234
-0.004846718275663647
-0.053918148134259235
0.055736056930099406
0.07248489659933721
0.016933756765393014
0.0013458255095642416
-0.021578939704673263
-0.02783008254554732
0.0051303872064282306
-0.034568334693384224
-0.032039997702525656
0.010082753353776354
-0.016996169875366885
0.005097522104719488
-0.018632219087845125
-0.0023932829447003605
-0.0039056213323808552
-0.015710011538955175
-0.004533532902135004
0.051540216566580956
0.01452087967129646
0.02725930304244622
0.00380878476017084
0.0028192407327904167
-0.014552791431406536
-0.01634922580944794
-0.05156714713928794
0.011640002060946194
0.043123957895007566
0.011676969263834807
0.05315486498160844
-0.030994354683844642
0.009458978272821826
-0.007476463973270134
-0.020782434990415828
0.002156701317403658
0.011659079538379547
0.006157730306024558
-0.008457091060254216
-0.07735705110163098
-0.06045748472849025
-0.014095484017581213
0.015279689962890612
-0.041615362006185375
-0.0019083364175471267
-0.023237574550715227
-0.005324991177701036
0.019698522679299814
-0.016852323202670477
0.05411583171884079
-0.03642419435064566
-0.032044103558235476
0.004125098533808089
0.020757972117885687
0.02689877392017856
0.0525251218744461
0.020453160602147122
0.006342303872356869
0.01446269716004057
-0.0032060123326781553
-0.019188945887686586
-0.010515813676268247
0.003459417781314077
-0.000305295622064764
-0.03374774129553442
0.027901366611666627
0.019726555755927033
-0.001048125727822475
-0.0018232064051667567
-0.015610461194656228
-0.02205848815460971
0.023350654785661788
-0.0066297895346273325
0.07110217579087151
0.03807995740477655
0.10196622357407899
0.06885200817272667
-0.01732835565116298
-0.01802714847752122
-0.03347238388850309
0.040083317775709254
0.015143139295393893
-0.018270728602490825
-0.029806708165554658
0.018622906995891992
-0.05925569809551489
-0.004898089242673417
-0.03100527372527832
-0.009239452295321691
0.017490293129676242
0.002604261291608397
-0.025773791808781973
-0.02006981519966765
0.00045348940620895727
-0.041242180574456916
-0.07569851274377212
-0.013628872746491114
-0.020754472499248274
-0.030736913730567313
0.004853251014071732
0.026341170080421222
-0.0165368675351581
0.008880954617476728
0.030621530887207052
-0.018195440801973717
-0.008321859799482108
0.04074372693089891
0.037963522984334704
0.04498428829008053
0.011049269131788872
-0.017943014973866522
0.005510842368590419
0.014927895888606773
-0.002563081029393281
-0.0030942975280569447
0.014964067961072684
-0.019677384757081133
-0.014978189453141761
0.005496638680123379
0.0003151949685109759
0.03633175153176537
-0.007106281168493772
-0.00828908523292545
-0.019810245383871553
-0.04179342381389822
-0.012606592490915034
-0.012786110210180895
-0.0009030688331245196
0.004080256840296498
0.0317969708700462
0.07895289445436222
-0.007311759695258275
0.025215345195143707
0.012971388994901264
-0.023327011688005828
-0.018633302852179758
-0.017916458880420136
-0.02752281722382471
0.030153510999621262
0.011017228626643115
0.01835125332615199
-0.022628335275031664
0.010901425565993494
-0.01139359944453189
0.03228952184541448
-0.029284523865844132
0.008856643468909894
0.058615529930722825
0.05845319544802012
0.0491500697368299
-0.05907641326404729
0.0027628064491311962
0.028134932167979982
0.014869922992922115
-0.016850458770322832
0.016189268892934615
-0.16252854299116107
-0.10080760562007872
0.011651731158436866
-0.029778248531972588
0.04771705681614003
-0.15657640379286683
-0.1036215681629575
-0.01608474962636788
0.07892957258564232
0.1184462943069764
0.025716472416329097
0.007453347157430711
-0.0012089834680027345
-0.010843832943933733
0.00027698801949670865
-0.0026530068910298097
0.04876626647155366
0.06723766274776923
0.03334682838689621
0.002718612929863922
-0.027180558932778254
-0.06060842944515549
-0.005664743893498476
0.020722652387350722
0.03689317523473885
0.03290568186386034
-0.019657536544580304
-0.008382636402963776
-0.021120989971406514
0.030538690036455297
0.023481627132480837
-0.020831859454177364
0.07490369695471034
0.04930312159712911
0.011930735176153031
-0.012279800990067417
0.006489024995059991
-0.09802534053613904
-0.05486245531948101
-0.03140703145430816
-0.07217700155674492
0.05075338033126255
0.021571921620249963
0.03140777039459704
0.01166178461669183
-0.009404930758321115
-0.032194322895682505
0.02492559848179226
-0.010982681588204505
-0.04656518582937552
-0.01669978919103453
0.0157074700003098
0.04475692324108274
0.006105567065843649
0.015203765056611725
-0.003821403177233038
-0.012424989748474082
0.008260996943175336
-0.007598112430072268
0.009975357527567914
-0.06887073779060385
-0.005474952712767869
0.046672250171001836
-0.029912027568862534
0.05738863540702897
0.06535136454151988
0.028203565769706514
-0.04203483992997304
-0.035423946488883425
0.02531604732219182
-0.03454152505496829
0.004040010878616194
0.004793647804456711
-0.06063106667071846
-0.04510686615306618
0.024214476117913747
-0.008987822384324017
-0.027812718478890813
-0.032541894967700075
0.06268352080617418
0.013539758867671541
0.02489604321361995
-0.018498829539100425
-0.049139422666733545
-0.0161939817780815
-0.016652161729910648
0.06822761982399306
-0.011208205666262015
-0.018812637432058396
-0.011943943336747666
-0.018101583822692762
0.06017464066219118
0.06662465250817959
-0.022949122377160208
0.011983919328244124
0.002930164322214526
0.014147859597856185
-0.00564729829697658
0.009921927397498394
0.002554754360229085
-0.009278856896338056
-0.03644938251485
0.011527328819808115
-0.036491444264487555
0.005198198289792411
-0.021374544606399027
0.03238783916354199
-0.011736096605766785
0.007074194460642249
-0.009851820584483355
0.06852874307720701
0.0573854482796586
-0.007511799469537577
0.023020009218838317
-0.013860482233488916
0.014352993106297783
0.00813802692583189
-0.04108502133980753
-0.004879258776905744
-0.0010810805012080394
0.004540812964123077
-0.06236921796696229
-0.015323732103014
-0.04140804195030708
-0.008363015102000593
0.009740056285736492
-0.007937776682790127
0.02099225163650201
0.036466816684046936
0.031437903114878436
0.00031323694865453394
-0.005396284469356574
-0.01134680643273531
-0.000539369130705018
0.11770631532964244
0.006000938153988688
-0.06942929252201693
-0.014585445808127909
0.02021182464730985
0.06330977214957542
-0.021199734427314966
-0.07202952155888662
0.00906085683189716
0.025602749028497157
-0.0002619867727871561
0.04369679914889285
0.0016111237689352051
0.005026405738619817
-0.011433032674547258
-0.002224345815471948
-0.02319565249203009
0.012935802188275142
-0.01365963158787855
0.018154503222833074
0.04752706198497458
-0.00814221363845532
0.01242362101807216
0.01146655736946585
-0.04635976319828219
-0.07053470105441993
0.0418146909664315
-0.0268255160090318
-0.023255132335012734
0.0030543471007436294
0.018548670639552324
-0.014138934829365025
-0.06415202057087092
0.029740425768750238
-0.052094160045139566
-0.009403175353419583
-0.0035893920053806953
0.07341136127989623
0.03508091334535777
0.012566534684682667
-0.11371647135996171
-0.16806146866730015
0.12150496650513017
0.00700238649716459
0.018611453232250264
-0.007465018255679756
-0.04315836359364153
-0.1192590461934056
0.010989682699882352
0.04963639165212703
0.0024752462069774785
-0.010703360429527341
0.022338096404747473
0.008797348860152971
0.012142336640014661
0.007112714838536657
0.025980599656021487
0.011346653136295877
-0.01123571521654653
0.01218427859870771
0.0583857267889081
0.010227865156180481
-0.021010677527495133
0.024423507483994387
-0.02255054261790814
0.002700454241504798
0.008397671560513322
0.02546347763478862
0.015084863134729055
-0.03212307617386287
0.016419661094350953
-0.048067346444189016
-0.10690292582094899
0.09524329124079213
-0.07347127737449134
-0.021446537793463727
0.02972811480243166
0.019394505169083698
0.003175182632945277
0.020449735253492946
0.012797807296148826
0.05628354639082713
0.06740666636849947
0.009298012366807926
-0.027639894157487858
-0.004569197726495353
-0.0003043993667465118
0.0647744088797014
0.05621783628644829
-0.006709875677572169
-0.002142572473175446
0.0743485820868354
0.021371352914042983
-0.03726156758121628
-0.006199868417205895
-0.0438776247716655
0.01939398821660102
-0.023130189686596178
-0.011646870880371338
-0.012753319380984798
-0.0026857684017730335
-0.009837677770199052
-0.016701057828056812
-0.025637702205108713
0.013730367769401996
0.006741730495921226
-0.030048796698214614
-0.009882495780843983
-0.03355156919209616
-0.026161049914894822
0.013131726217377859
0.02817681880798779
0.01588869679418219
0.011857431878845205
-0.05200017351867193
-0.12195989833941664
0.01059633503774408
-0.018321312546881702
-0.0010228413717046348
0.024142296366153573
0.014925348869454456
0.02356130714886901
-0.01073509343185531
-0.021264808895796156
0.0003170526925797046
0.018485480579815194
-0.01717195407940352
-0.002974148305771158
-0.004712721497274223
-0.021956675346047966
-0.030384434389170812
0.053798494342271914
0.030780266180389006
0.02243310254846242
0.021420614953134378
-0.047577183777970926
-0.03753039117190386
-0.02631003117606594
0.017333973728413353
-0.04629414890810292
-0.012002227195622864
0.007992515288605099
-0.021761457107214333
0.0749218540227954
0.15819277493407394
-0.05477418467566752
0.011379672033876935
-0.0231124828280254
0.04719479779679353
0.09595738040204928
0.015613458523013601
0.04060602134793778
0.005844144505506773
0.014032001069709926
-0.1188218272082094
0.04644656524323935
0.04742468820285365
-0.0571920875356114
0.022288852768657115
0.0440761374028862
0.00022065848715120958
-0.05117927867586963
-0.04490988830457559
0.107011622681773
0.09201119101411712
-0.024111038179550712
0.02517134094134853
0.001164449213158824
0.06412577473369865
-0.10233216872183733
-0.13413416051790214
-0.01450078646826052
-0.012473736835819269
-0.017801349416330443
-0.009839422985980482
-0.019160447248709852
-0.014260961977814885
0.022501037954972908
0.04402213087175488
0.021190269100227165
-0.012033468042220495
-0.02531553271371949
-0.0036931431545689617
-0.044615209316427755
0.013417256160356586
-0.018756309158487847
-0.05272742657998986
0.02001752674675194
-0.015124972337651879
-0.009369850257205877
-0.0036932723956106333
-0.008506240955129593
-0.023341274371973295
-0.049889510137402976
-0.00437948829947415
0.036633590050513615
0.02483488720179677
0.01886680440357773
0.03538010662564239
-0.0004494340787017261
0.04064933849180233
0.028820125728888275
-0.042332498115799644
0.017188197462423144
0.03699300564204513
-0.1916606026967828
-0.05569771015235118
0.06532835836974736
-0.01621552508873504
0.05198030050336261
-0.018205685477243067
-0.07638389463670506
-0.03575028100884112
-0.004159485887866017
0.015259840161151636
-0.008846268817134547
0.011429214537878605
0.0283417876792188
0.013745707728884518
-0.019318880815959772
0.015339947027168802
0.006225438605707548
-0.015578296292294609
0.051986730070554016
0.0012659974557614044
0.028548990436009437
0.020182503653235852
0.04050865387169222
-0.00509476162445886
0.01901759628100917
-0.048091874738590376
-0.0197968805588935
-0.027329945895531622
0.03284511209221375
-0.04596979302182047
0.24108213318885147
0.1424522613757395
-0.06027005741519985
0.03964894657691005
0.046590016427694766
-0.01892450187357292
-0.0334843319435681
0.039487646884562834
-0.18698697795684968
-0.03208311701084321
0.03676200164981557
-0.00462141619950719
-0.0011553920950998023
0.049464985690404875
0.082648102831351
0.0526127889659209
-0.06650329846938831
-0.056148300766024506
-0.01505736937639437
0.04162784371358984
0.026189588202969297
-0.027782463970821156
-0.06641522640607028
0.02275890275470627
-0.09038685781223624
-0.22273487708469805
-0.027829437463226768
-0.01280247052953401
0.011852971005347632
0.006622770646327984
0.06313914108182023
0.034427127292056596
0.0751477335249402
-0.0007726921746393846
-0.005543234471674311
0.002676279448511764
-0.018186891575381208
-0.011619765733040027
-0.008561339966602818
-0.002772492732492901
-0.009424379760728935
-0.006342556124718495
-0.03752521593336624
-0.04690089393298642
0.04121232726008932
0.001599402996500862
0.07002097262590473
0.0348440694961682
0.01204351155219167
-0.052901751557582394
0.036210459044075854
0.08215944683231864
-0.023937611942959396
-0.06281113750427986
0.09332335886876567
0.109212613896833
-0.06370482693634612
-0.01758737459962756
-0.044339219394228406
0.030546798278742026
-0.07857950928974518
0.021731719625544703
0.03171831987657015
-0.025897005717625664
-4.9327179937810404e-05
0.025299929424023027
-0.023100056212585877
0.006532300673330396
-0.024325763863137707
0.00789649360012225
-0.007223336076658949
-0.008887041948020778
-0.0219831086216291
-0.013371802610198198
-0.00020844290318466178
0.029156920345736928
0.005005849368039049
-0.03365498195087998
-0.024495246652810776
0.02108277985667924
0.10062498334751524
0.040834661006328016
-0.021710332328538827
-0.0370406782256664
-0.015403601323813734
0.008528461284935694
-0.03072143878471796
-0.031192842976853687
-0.06706951699894943
0.044022010635164456
-0.01792334950179437
0.026523048960274215
0.16631167937810287
0.030444052229103704
-0.02420824759475044
-0.014872182432321041
-0.016859122240639807
0.02362056625541772
0.0017583585602763579
0.0015443886480923424
0.03476736414766879
0.04050225744285882
-0.00846268986400942
0.004069232772825889
-0.025099108234060457
-0.005646556409328113
-0.020514998044105903
0.05174372075754916
-0.10926270801598797
-0.16008472579566285
0.035501370489601836
0.01293625859378227
-0.006442359152795124
-0.00648068834325519
0.010056687419402835
-0.07499593824192523
-0.020272182809130297
0.04989533086586143
-0.007103779305042909
-0.028090286639553222
0.009808520581775377
0.021598545555606283
-0.03656895649417295
-0.01093428089616068
0.04658635764365232
-0.00489872722564701
-1.3434646629200913e-05
0.03606926864108965
0.004787917631966214
-0.075043259713631
-0.043562669248876584
-0.015491451218362675
0.02240431327903129
0.02497530805808582
0.0314777324572271
-0.0028072626763498494
-0.015651564956429304
0.0029926654076172735
-0.004308838763921094
0.024996554270554427
0.02538351495405856
-0.03862301191126017
0.015339021919536814
-0.01735355558967577
-0.0312671923409456
0.0012534259648424844
0.0314685585169344
0.10562271819674637
0.02063915143800148
0.016420355172907474
-0.006335558110760879
0.03285736670358068
0.021783912949620662
-0.011139929812966
-0.00804888122244834
0.007883351713337906
0.026458530874585925
0.010950593627753375
0.008879245579132425
0.031022474150520635
0.0042614069337212155
-0.005726364790920514
0.0193785316910196
0.015869995670487344
0.02867985799937929
-0.02189986700832598
0.0711245746635021
0.09349556973241509
-0.07454028499439608
-0.08395230786396471
-0.02809762936740632
0.016237547560286666
-0.026466543618216116
-0.0191575447952005
0.023036657402379427
-0.05768427213034031
-0.0010152272002899336
0.0005570607243610534
-0.03376112259593672
-0.0007499570008202812
0.02704225623349478
0.00827465677214672
0.0642593314591642
-0.2442889225780346
-0.13901500001924613
0.026003931475986775
-0.0032241589678050496
0.019161202748768057
0.04917959053788894
0.03848008977519482
-0.01202742527005031
-0.00115115432977633
-0.011543068538513234
0.012125729669755548
-0.001001307082341121
-0.037932672728691455
-0.06369981035243578
-0.028613033761280233
-0.01264363700150919
0.030199213335014057
-0.013109945983290022
-0.021724380841270943
-0.015726787506365237
-0.0210175739251816
0.08300249144725656
0.1343319318735298
-0.05569600489796273
0.05624076113312764
0.00632221951740668
0.015070410984072104
0.05164182461548785
0.02259620560229791
0.02229751074654559
-0.03927326912179036
-0.03861523750147516
-0.007277252616931784
0.043737214339159905
-0.013035610876286836
0.05521075222638591
0.039042317690349056
-0.013012636340118709
-0.014843666356522393
-0.015629829898283164
-0.02235641550302332
0.03516159104375566
-0.007277731763731993
-0.03542499421960656
-0.006003359428619394
0.006902441104743702
-0.007601175952133967
-0.021032504889332553
0.03390569780868859
-0.024569729631241544
0.007404906764604385
0.008172167572210813
0.02066856819261096
0.011563705757689918
-0.007584189653801127
-0.03655511152074966
-0.01622400891570655
-0.030272017686706003
-0.01072765944050439
-0.0061175770636646065
0.05598223669564257
0.022267410693329923
0.03022893915425098
0.032904879535172224
-0.027393884163469162
0.005393592801838036
0.014557632071012173
-0.010111046870319475
0.003821157291777811
-0.019883818098245427
0.02815952182584088
-0.010114517188727884
0.034851186589931984
0.0454403880637535
0.015058084271345747
-0.031004543191541625
-0.07364882234423607
0.13593707704901076
0.05792757765669648
-0.003024543505386964
0.012778125610939566
-0.02809879503234438
0.02117838053561994
0.016722641331096494
-0.06865275455375103
-0.047074492403761305
-0.010510833068723392
-0.1752521896315598
-0.03760185252395609
0.03459412104255563
0.0769668697905296
-0.11891832773849827
-0.0667661985093026
0.03987590506272205
-0.0004877902233493346
0.01884553125823502
-0.03452315871404983
0.0005734564490313955
0.010366997416762048
-0.06187563635717624
-0.04618065256230298
0.0635967903704599
0.01481321704897237
-0.020646164758539535
0.0029615090217020618
-0.012820791820736423
0.03485520227329166
-0.015009014586854837
0.04650996211518707
0.022469964272917285
-0.009157831225383096
-0.011525748293525198
0.01498762528166819
0.04399506092027305
-0.04898890401058166
-0.06469794827966538
0.07455526238955573
0.013219982858879419
0.025501529873610172
-0.009677373249661727
0.011630484222842553
-0.00956117904735731
0.011708671404923099
-0.01225830349142774
0.027529988558464655
-0.02814743721867456
0.11213005331908657
0.0690120269806791
0.006133498689011482
-0.03084824264502919
-0.034764832123451654
0.1619126863862554
0.006477349345655047
0.06291874920876087
-0.04444786354158179
-0.1674555933795792
-0.031203547700222187
-0.029321000531021265
-0.05796350984678182
0.004480226192757094
-0.014049401141149642
0.010928700646770519
-0.015122309408053545
-0.03140395998167405
-0.020353473713789268
0.01942267974036986
0.0575578490481509
0.0265925415000963
-0.0037411866858523043
0.0107743387844748
-0.03905222509442925
0.0007224630809194863
0.015355837295987385
-0.007696890774862168
-0.006516576137176018
-0.01350464751308521
-0.029645832620947294
0.018313200573557956
-0.008273494783238985
-0.005596497403420739
-0.06496338676812925
0.11871454958596579
0.11578846851010656
-0.021402282754835602
-0.014490349914739709
-0.015892946479548236
0.026002360233946146
-0.015388297914480356
0.008679214885469425
-0.027665716821297627
0.014285855893380823
-0.0031831620345540547
0.0017394950594782626
0.02879770659865696
-0.01604321867472513
-0.0060114280422282436
-0.019183875065408414
-0.11918253416461547
-0.047352968400891864
-0.010090215452673587
0.013841285165599671
-0.012890670923345721
-0.023933380216752766
-0.0012066919141906648
0.07596208969328888
0.08809959282220485
0.025480326831027963
0.003092155000053535
0.023737220431421943
0.013260881021095083
0.0052649543677369395
0.03405542058671418
-0.005553187094870601
-0.0014486163796658216
-0.012743377737207235
-0.04676459176741426
-0.030905340375902257
-0.003304202703387285
0.037077177116666006
-0.010168940415835924
-0.0016536933223148184
-0.02039647160766188
-0.013334991108816354
-0.008980873265812489
-0.029698119573936983
0.002377423093303994
0.0306346289684241
0.007481854710875568
0.007483326418911823
-0.04044667114646531
0.04909248571053963
0.10784631909373893
-0.11749800149672943
-0.13879431694579836
0.05355917085038007
0.005533175172670462
0.011884554030952385
-0.07050749904335565
-0.016407302818603243
-0.006088032880807209
0.04292485427885118
-0.0014449085104076417
-0.03244445660079136
-0.05085451810582584
0.04193955105435646
0.0006776718440704333
0.030866549113095627
0.0783237492654872
0.01545990941304318
-0.030225169461821903
0.0074712001989468545
0.003022740940815844
0.00883999402495554
0.043284221573345556
-0.005767277430623619
-0.008876371781982563
0.0068614094242478016
-0.03335358748704803
-0.005252310159909703
0.017796548697520686
0.0334374679179347
0.011258907405209111
0.013470695589467048
0.040717580007693606
0.03449988605053681
0.017359550655436838
-0.0057835809933632154
0.00796067687689723
-0.0009080935903251588
-0.002016903482301884
-0.023611921863502857
-0.11978468592156497
0.006016797906056764
0.012228621014865526
0.0031814155840591317
0.015235779125651355
-0.04515751291859116
-0.0042562752283086
-0.005311217048888249
0.020507189611643054
0.02761203030670499
-0.02400915850655536
0.015929722587302547
0.029230921392541014
0.019202084189099234
-0.00912486860703803
-0.012739997893132907
-0.005458108398153567
0.013761725399025261
0.0108180557200323
-0.013601680674192576
0.015687939520647214
-0.04759976503150693
-0.028596217460365107
0.009420331034862573
-0.024965280531891478
0.017265549997070882
0.06174580640461064
-0.0652178220164555
-0.007613751757768352
-0.002786953246349634
0.0004635099032850074
0.006954410105403808
-0.004929428720324781
0.0006764580528824481
0.029770099271556775
0.00033906895703979516
0.01717926169993042
0.008647705699990014
-0.00568119820349557
0.014200766884368702
0.0179275266626288
-0.020490763160121144
-0.004092299939823095
0.016422159901448324
0.03148628006240885
-0.03809682139958327
-0.03727412374250217
0.009781502900888946
0.0011066165492187338
-0.012163900297151758
-0.021218714095857783
-0.007798688474004644
-0.00014831801219769756
0.0018222867403038959
-0.022655617959361097
-0.0493303335574185
-0.0177791838061839
-0.03441931922429007
-0.021991955873165315
-0.004150799117140338
0.0018622652170907277
0.059483552984114854
0.030793881996955704
-0.021911973250649065
-0.004321644437666325
0.019108642407305
0.035055059401116834
0.0190704067080276
0.014218610856276655
0.0036451746959016667
0.01037988522409732
0.014586545784732174
-0.020960389690288603
-0.007922829582662383
-0.012356177805575675
0.00797153767467156
0.003924978207212423
-0.009732796577320641
-0.025397869139697236
-0.003973253117760456
-0.0125019964326848
0.11528248538002397
0.07244563285066948
0.0014342006673746948
-0.006564346202116434
-0.018805546372609075
-0.028208057073826738
0.025905179261365943
0.06646359190810074
0.03938075316175359
-0.00604660353334075
-0.03583581528440625
0.0059081886752897625
-0.07133069064818412
-0.20625437065061922
-0.009389896037955711
-0.004959340186427505
0.04304960924540231
0.0025658918155718234
-0.03154076827172637
0.009945288240038357
0.04755036697567894
-0.037242111520949694
-0.019216430088925204
-0.022713266608281043
0.1297252540736202
0.10301638397056824
0.018377409042261095
0.0016806049487026505
-0.012861020832404015
0.011202477158858424
