0
0.042526132353174394
-0.021472027382170505
-0.028348752478373946
-0.019152506748248633
0.006642710124584245
0.02478845049275292
-0.0024112924365829605
-0.014162309993886305
0.0027316342130806965
0.009930269300216411
-0.001598299027779833
0.002933886991234274
-0.04182924859836125
-0.01951685186036767
0.03344268202165557
0.03275219535932507
-0.005258565438977161
0.0451539762176254
0.04349176104932748
0.005369743963771858
0.010730416953910202
-0.021458654184465985
0.00268712993389007
-0.011091309448633726
-0.05918080550522396
-0.058638290072772575
-0.05799020885199482
0.026138765223565095
0.04624182308506969
-0.005955059790961607
-0.07416389786255807
0.09894481061200942
0.1220658143686179
-0.02454522624454453
0.038990529221177676
-0.009027303410359249
0.06560796656993606
0.04258629806229418
-0.05502243415507665
-0.039228933664123715
0.010777243832390681
-0.013730096892471766
-0.036308567775106416
-0.006881494111312272
0.1736470540799693
-0.027847894217932705
-0.037538888928640504
0.0024425424023914104
0.021008542226299196
0.05985806572848868
0.0039930302384967135
0.02941501631910818
0.020617495174263298
-0.027879464410725363
0.011237689553802553
-0.0010392721722342758
0.004085353156462375
-0.013069234411917856
-0.014675948456545128
-0.0069190526595591115
-0.0007386224550065797
0.003901809629429131
-0.0187861733535637
0.018685751710281872
-0.2614608841701603
-0.1293061604953458
0.010598711517724102
-0.025191734992540786
0.000763336734084068
-0.005613731244257649
0.044323440296913735
-0.008119812668229759
0.007849069234767596
-0.003870807154474389
0.014142294909214186
0.08150681305944779
0.10571369079281671
0.023386313984124014
0.01963859923281233
0.02743009015812527
0.01778690619337491
0.012254924697007128
0.058883862999712426
0.0357253202603676
-0.017167851324475035
-0.000417514817794691
0.01922679869933876
-0.0796966634733437
-0.2517717071698398
0.0034017259210546522
0.01330500219527429
-0.016946260331241088
-0.0013464037431789525
0.016227507992450832
0.03653816241392147
-0.03722399481861535
-0.03538190316787034
0.010783838851764234
-0.011087021427265238
-0.02850028555702311
0.08475115949010811
0.07257782845934757
-0.012166168991304967
0.003923862419495593
0.002891854640475364
0.03699424690706158
-0.023327851437196127
0.02099843047919409
-0.02007037592832608
-0.007240712458917769
-0.03291383089117236
-0.019819473601634743
0.025876953643957527
-0.015258523457354206
-0.02173152717271675
0.2161015998818474
0.09530068072244999
-0.06950972029976525
-0.015552476463616209
-0.010895203994615596
0.003118833899413623
-0.030000543946784017
-0.00975720059920446
-0.03205820299108739
-0.010427685437112817
-0.24672456595661096
-0.04234093677540037
0.10169943887841314
-0.0008047626685502344
0.008873318719368042
-0.03392393522794225
-0.08359542405739044
0.08646736296131279
0.025767197070406533
-0.058018606753981475
0.045651927538304646
0.06751891807251507
-0.01888773974167202
0.010618956333438873
-0.10289539931592627
-0.03832413746009154
0.026554794806995182
0.039771125278071966
0.02586099064969086
0.01654657689218794
-0.01107532409404292
0.04275965119544259
0.025548720535667584
0.01530738393144669
0.027815726358383093
0.054763455091343394
-0.023244782880359922
-0.024380785027462996
0.019032153888061218
-0.031254612384831876
-0.04879768470242243
0.019196461023732007
-0.019711615394434803
-0.03560304960905008
0.027966410272800106
-0.0036252488235140106
0.0072906176291358555
0.013515318526079971
0.0013827851252839094
0.04477502103781739
0.010256860635014747
-0.028621191316729543
0.025925317267667006
0.05955035315673117
0.04035701385624228
0.00028436108130084676
-0.027201998071909515
-0.02486404619512727
-0.050797469323562584
0.01579010932599101
0.07642028792350256
-0.04040273569221525
-0.023607935485240192
-0.009067948619959788
-0.013371134249192533
-0.013902817948911838
-0.024664224356017967
-0.01617797363962493
0.021341064340046643
0.016573041135736384
0.07424370066392404
0.07641680303109194
-0.051772667837703706
0.0975036432226424
0.03995506714282717
-0.006488389042074023
-0.04012517500413075
-0.013389202429268703
0.009175460529711538
-0.012709184659842044
-0.01864642508482983
0.0051305892363273575
0.027243498677826532
-0.03130908108501967
-0.0733477071696475
-0.0014023421016040516
0.01613774957765712
0.001566235452047925
-0.06075102054558336
0.0012783347566729022
-0.018630682335854562
-0.0053479445687448545
-0.03671096472444478
-0.05936901396095156
-0.047690890988173994
0.02094499358431254
-0.03159541420962173
-0.014072557658276634
-0.03565455197930601
-0.03585374558173785
0.03466512025540572
0.03470689511893389
-0.019062344620105854
-0.017833383826674154
-0.05197404320963228
0.09832738664013012
0.19872728970245285
-0.019434066179257622
-0.020579312709042383
-0.07274689997831822
-0.0024832071189008873
-0.0004619152979704111
0.1708536148318781
0.040804606947576996
0.005665456438399502
-0.031141012959772885
-0.025775289759902127
0.005746736306374397
0.002123092709169972
-0.0769282786914869
-0.0170640610862631
0.00205713850653342
-0.017578946417147953
-0.021852441217511624
0.0687787991878924
0.01713568810752607
0.002226230516184001
-0.02898763969709465
-0.03627530609123357
0.04917787311532299
0.01439925270322687
-0.008103754567715532
-0.015124718204128385
-0.022508888675601066
-0.008195650673428832
0.038580528622138996
-0.020436351246845317
0.027474657347097246
0.033280136347021205
-0.2297252302331186
0.03295627491175292
0.010187574709270836
0.09512219829145484
-0.02639250477608949
-0.02518819102391731
0.004223014088621318
-0.02046272827346064
0.009148333517701432
0.019081754566908485
-0.027291475654480715
0.017433346854450436
-0.07996290641325168
-0.047551347420550484
0.03805384404870281
-0.03040951803332574
-0.034948723998134236
0.0769913868875103
0.06054757059419304
0.03855023842230526
0.07088683166319969
-0.05403809893462157
-0.004327890730212541
-0.00247885427463704
0.00048341737493406246
-0.03421511751503753
0.050173936782353525
0.06197208360334398
-0.023791825600723626
-0.02879247702671639
-0.05649824049046947
-0.03275864670665829
0.0027049562271914385
-0.01685227655608223
0.0009518005976642479
-0.05459191660906944
-0.006318951981201005
-0.0610257983158775
0.1348212102984336
0.20891229972453623
-0.0345301148399828
0.011607110698703276
0.022215136645977896
-0.03476645915931784
-0.025693151764577503
0.011401891865272002
-0.012372685163931396
-0.0034455874073493647
0.10754852225830584
0.014712536382038809
-0.05914225555341115
-0.003500171266233963
-0.019961438245333953
-0.0049645887220874955
-0.026602613735507943
0.007616443612993496
-0.02837148776533031
-0.008268791048876276
-0.002023464713442539
-0.006703352304312523
-0.005052629726133676
0.06647752829293911
-0.05232246218399289
-0.019934088041934514
0.008633864631270211
0.01547370976479333
0.0015155362693470467
-0.03917916600689954
-0.014497983686471929
0.011487148709074847
0.015577667393354188
0.012935827813692957
0.018651260891854097
-0.018676300990385395
0.011068893903332138
0.16001206623309117
0.034184725663446755
-0.029781697600633004
0.005527815379154146
-0.007236775341570538
-0.027269134313302055
0.033170780113913036
-0.002144268943085661
-0.03974495630453739
-0.033900750683434386
0.0028932045303681833
-0.1706856746469132
-0.05615530354586515
0.011754481276021522
0.03339126959091912
-0.0035246583846362716
-0.017390034173796035
0.002008563292881366
-0.0071096929008239215
0.008668692378743561
0.010514753419395707
0.019005208853616194
-0.034820492509904315
-0.05249506396277337
0.0019641322456692123
-0.006575417262528647
-0.0034357436835711183
0.0032213943191649773
0.023162959566349832
0.002838362419736436
0.010372291894812575
0.04411664334671437
0.009132420028349523
-0.007633726634691008
-0.033182947387957906
-0.030729287260126206
-0.014042540022402555
-0.014443233084260333
0.00990123083374224
0.05266293685231192
0.0027927683330114003
-0.021923789991666647
0.0011853227980800952
-0.03310632219528217
0.04635958268275325
0.007294401082168817
0.02468002035786812
0.027578259129694797
-0.057455454301293764
-0.0327412629607282
0.1283955160702888
0.028026699800981787
-0.008938338962658821
0.12671289315548526
0.06917512349206625
-0.07207487292633696
-0.23956361327998196
-0.01730471841536407
0.21824557034898448
0.07352645788182782
-0.04948674062517909
0.002253742792711861
0.023767396313202554
0.04321240384914874
0.05097794651837544
-0.1357483906947699
-0.08707390178581154
0.11559212858511768
-0.04892863686386658
-0.0583141838051212
-0.013700394975133237
-0.05623149288044937
-0.02180731348465341
0.056261467751977684
-0.011202621020769164
-0.014148881237292589
0.029325272559753576
-0.015032884789643809
-0.016403183656424077
0.006335234880919775
-0.006868954546560679
0.004414707965589497
-0.0063511311338089625
-0.03102410661539499
-0.0478592683279441
0.003092325868190107
-0.004740568658205961
0.03443452697972454
0.011256012098564628
-0.003173762304132135
-0.010880807045428707
-0.007487183583015656
-0.022860153668534975
-0.003484235679820917
-0.025885093037049965
-0.033725257807820715
0.0015714853455224918
0.04064643527246663
0.007297813170596235
0.05652466095825868
0.008546848722654184
-0.03313844290928888
-0.019203631094429793
0.03272311321594024
0.023534004441808653
0.0007380720108547637
0.021437423046504294
-0.06055881818875499
-0.0192353882950527
0.028132753963141605
0.016126640312876552
0.03424147361042826
-0.03715350439767441
-0.022139302334034307
-0.08475488634857678
0.017077186388073817
0.09972635810324748
0.12812840004022868
0.03028567522330393
-0.024019172460589384
-0.003049439258596589
-0.010425042519659694
-0.03172063388268417
0.021553256013393095
0.02271272997745881
-0.0009247447964485546
-0.008618699721684634
0.0020800793920104556
-0.006050071951401017
0.003919168807192099
-0.015374815219110778
0.023296331785777207
-0.021915504356194604
0.014156353577907213
0.003160454789246346
0.004275776212885975
-0.013653626643173222
0.12156658538622236
0.06806849469550613
-0.03673812481175339
0.0010593192967144058
-0.020464790980122834
-0.05485518893824952
-0.07970681223628445
-0.011282423124882009
0.0141281730356481
-0.010993948999426208
-0.021184153873613346
-0.01784558773343894
-0.022989966461148776
-0.009674189077669117
0.020949239046752912
0.033802039238049746
-0.01749988707092093
0.03318835268996501
0.0439054955746616
0.0008738869500323357
-0.019019642691784956
-0.005942915036353517
0.004483843086683839
-0.010474553047047619
-0.008908855535636317
0.001109317782410806
0.02884363658383959
0.012104520961874074
0.02103509098572879
-0.022154389984852963
0.0012367840870709426
-0.27133416021563755
-0.1897101647286028
0.0497332475954311
-0.0587690185140151
0.013559306731156962
-0.000697104197498455
0.0015911398865804708
0.0031831440163133805
0.018148839671607533
-0.010855997720182012
0.006491773249114123
0.09482098793096676
0.11309768441901279
0.04192072982743037
-0.03126160587108791
0.012881734396721882
-0.025279567792896113
0.021838161144772317
0.08585594149729253
0.10861172273304202
0.0876477022145749
-0.07106383335924209
0.01577239734817244
0.00512752947142321
0.013745287842004336
-0.0005407065184320492
0.009814832216858894
-0.004684691320743921
0.005508873131161692
-0.005651542568671902
-0.002333815411628607
0.004021236877166938
0.007033783442661355
-0.02395769653321837
0.035484972469451426
-0.05712854056934834
-0.053729323006855206
0.0019220175681176094
0.0018893346413436536
-0.016343044217271126
0.01051546153493189
-0.02498469454038825
-0.0021114068976394993
-0.00787363546738779
-0.02656247775011413
-0.012855085302252666
0.01383573700658298
-0.001570674911898171
-0.04918501207531134
0.022015776560986883
0.0024873450741881415
-0.0057967844088823665
-0.007769457290031213
-0.00430690324456006
-0.012539115074070866
-0.010118701113923647
-0.015631484387384938
-0.019753008949741455
-0.009276074543535287
0.01010847293274614
0.015436743569422193
0.010103536131576796
-0.021560561245946786
-0.011574869221264005
0.04089991395344148
-0.062375368627667224
-0.09753976773984695
-0.028984463396766687
0.0067311799258108025
0.017465380365962905
-0.057163774364107765
-0.0032895783547530495
0.06428617587130055
0.2000354021274764
-0.002720259325953488
0.029642746886811643
-0.051452676313659004
0.09506931409616784
0.1424602976640077
-0.004662807332244845
0.04831846797743405
-0.05724079865521591
-0.010882368598767341
-0.0004842008851889138
0.032505581836491076
0.013095696361823868
-0.06659656535597494
-0.11589443152322493
-0.0023607251459880755
-0.016157537205097074
0.043206290722116125
0.05032378006793823
0.07890901523332312
0.09172644034988116
-0.04107041137373346
-0.017267134101674523
-0.054862980815918415
-0.017665892621110457
0.011344983469909652
0.026052753317103272
-0.033449395866996086
-0.039212196872642255
0.002751421347318351
-0.07101027965572228
0.008555187851069984
-0.004610002057662362
-0.021900932333275336
-0.039570046922525734
-0.03654136211651781
-0.010167021171326219
0.015750601383058407
0.02552910841031319
-0.025554846184957996
0.021585194123791614
-0.03801295327997687
0.05188495667098087
0.10562473827627007
0.021134371861515962
0.02182924497776238
-0.04040103579136412
-0.03306766150880511
-0.06993003951283071
-0.027722376025767995
0.02660149508217289
-0.0285761488550728
0.026142382210647453
-0.10018438727225217
-0.08768649422513869
0.028667227733134893
0.007017395398049383
0.06453277365105294
0.046346901705934265
0.04761731122585339
-0.005497135846276487
-0.011579280323407333
-0.011343260584750983
0.05134585284110176
0.003986131654466281
0.0030782514258876426
0.03800742935905332
0.0780492868938369
0.02443377401710804
-0.0955204728070491
-0.022369017789713827
-0.03299144420167255
0.004493209344474684
0.023288798643423196
-0.0014207823986523741
-0.01451976794863198
-0.030408067776114343
0.015177218403213845
-0.09638102929727554
-0.006376999755370176
0.007554300811136777
0.007484356776938564
0.010781918730804675
-0.0032133778264167656
0.004596308136533183
0.0035343028516053128
0.0010741748094808049
0.04592699363811771
0.0009044729669790289
0.0027701273052747628
0.0010569866943290224
-4.398226277754002e-05
0.01687133491346042
0.022442861161932844
0.044502376233425366
-0.05900723727273188
0.029972323220322672
-0.025472773238234877
-0.1045310056212791
0.12327961198797728
0.015263192692720083
-0.01985358147343723
-0.0004832156917953809
0.013873902537965803
-0.053087318503214666
-0.04139592694277695
-0.026039822992229036
0.0064350472466564845
-0.021250149983327006
-0.008470685202177301
0.005502671281573107
-0.010899074804048446
0.002374935859933484
3.6035231135463074e-05
0.08723592002546654
0.03791557373309892
-0.02178168701419901
0.02262199294975962
0.016172999612071078
0.04561039573965974
-0.01698090748310234
0.08088844778989081
0.027721580334243767
-0.04537640982643014
-0.018734899337724736
-0.018900122579292918
-0.004979301648370101
-0.025350435375726187
-0.01761861806766902
0.025641665401836555
0.005202606413983629
0.04493775996256244
-0.054599828533423614
-0.046226792956882916
0.005437165604680208
-0.027279609952900186
0.004386259679826416
-0.013775473453889195
-0.03127504535591817
0.014546662882800515
0.013370104393868338
-0.020557022553063006
0.009890336328897244
0.008078305274547417
0.005766074430290589
0.004785992023550367
-0.0012250659477698786
-0.004826341061449209
0.006508607199015565
0.022153797173986026
0.01752868230077051
0.05019684579481335
0.022594863121281464
0.03189921291947826
0.02177293887261436
-0.007450834553637449
-0.014324163821906497
-0.017929424053617523
-0.08566900134907916
-0.11511264030317307
0.007266991057919287
-0.002183314386002231
0.03670622615286483
-0.05236266883310959
-0.03208042339218983
-0.008817798030831865
0.0031382194868594827
0.0030590167897657284
-0.0008489794003369613
0.10186843584353701
0.0119308449210657
-0.036920730907808424
-0.014185548799398184
0.046401960119798705
-0.004253426233807795
0.014231306620759306
-0.027797444563644663
-0.01348150554705798
-0.009279415528649285
-0.02272287550181585
0.014752678006834575
0.019812833361987123
-0.006193074130020054
0.009359211839121556
-0.022768887912247966
-0.004090964002984985
0.029895274942944864
-0.007413375940946501
-0.009004049408716002
0.08122997152763177
-0.03504613090547703
0.057632277000998454
0.10092292449050999
-0.029522001918171368
-0.004343102227024163
0.019357813702359488
0.08401411108594553
0.02965631792867081
-0.04299132576130641
-0.007736609669657282
0.017571973598977542
0.00888307649127299
-0.0010827842519712681
0.016696925890280104
-0.01373599856263854
-0.006640614631977691
-0.028248477523695165
-0.07986684348379802
-0.013122408666768537
-0.007710523616296002
-0.009148491120077887
-0.0113354905544435
-0.05597935741506733
0.12924544132599525
0.09843387463801102
-0.12047180782028623
-0.19925128406690976
0.01179091102045273
0.016848740569809617
0.0213007647654806
0.00473685009535328
0.013525036078668068
0.006569300438510451
0.055974495386073984
-0.03663645548457247
0.022578523461899827
-0.00032848785814400006
0.06800740907246712
-0.15040343914122337
-0.13330007852340786
0.00422579322933789
0.034717645368020716
-0.06692724295485082
0.12447447010673302
0.07431350289540427
-0.22165635936375636
0.041489621701583886
-0.08038990228731228
0.01586190139740408
-0.024431494572843476
-0.01555367598267732
0.0031389779628804818
0.04242514408986481
0.029654676228116746
0.038799395421442506
-0.05515101093524598
0.05449879757173165
-0.004676602549915894
-0.00892410236785918
-0.005434339710521581
0.02498655081489575
-0.02853785169466857
-0.01020176619809742
-0.04233764449387263
-0.03416039082918543
-0.01901878331189842
0.18455653364375038
0.04472902773958006
0.0596339534617801
0.049252965944514955
-0.018203624052773548
-0.035380698497384004
0.0837334764058756
0.07635518526532845
-0.035711696458748006
0.04073476892930541
0.04599715788557666
-0.002595923891082579
-0.015051206624775468
-8.894621174273508e-05
-0.014841654930931283
0.006128359419523743
0.03312630055835237
0.021680526092424872
-0.02726481622135708
-0.022901284807696327
-0.015566694168506662
0.0028043703041497085
-0.02328603762084381
-0.009499465203676748
-0.010139326422048683
0.02639932559224121
0.032963046552719276
0.061974975465191776
0.08744989099961631
-0.022455824104837933
0.012871860278389997
-0.02568979606753017
0.023905009035069688
-0.04997942553691085
-0.025008569141082286
-0.005881920686209641
0.0033311268861711202
0.008217319881102152
-0.03338713182977149
0.020926181141937134
0.054594598877784305
-0.05614234238260396
-0.11562250764796114
-0.0028439493196970992
-0.019696617471853355
0.015138794057613926
-0.026460426111782964
0.009443503090207375
-0.05067776242439343
0.03226141281414558
-0.06332475583180613
-0.10374907262427141
0.05368307788056985
0.02174043699777915
-0.172107168045974
-0.07598092850329319
0.05279224666578788
-0.006813031738721692
0.00395510117822478
0.004365056295651877
0.03718379919216022
0.03294013451722776
0.015192734694293443
-0.0026290950639174574
0.013572600575567802
-0.013276294258976593
-0.004621348138607213
-0.03241701188814133
0.05646604009517122
-0.03142802719566881
-0.1500959010566612
0.0320496253529509
0.020064906819525073
0.019288156646955178
0.027290426701113125
0.01020023214570058
0.022249709370034804
0.14745377545540275
-0.016419702773753448
-0.02215342470776069
0.04062750113734304
0.010364379137094494
0.055075283030710326
-0.012191172073999666
-0.0022116690077805035
-0.009823472294530232
0.010874046035957749
-0.029990671408980932
0.005043069554851209
-0.0029563743803544904
-0.007448268015828061
0.02898105100021203
0.034084914944427655
-0.023229623448472014
0.04245947329068936
-0.01983618797071371
0.01653247164593964
0.0014945632398059628
-0.031107791741552173
-0.018635480811393896
-0.12244250425879669
0.01518019270483029
0.033996818753871616
-0.018670503147963636
0.06777196310258901
0.13458780819314775
0.018564316863086815
0.0002790698139555416
0.043145141927936385
-0.10401001231986115
-0.13132147792736562
0.03242945639033727
-0.03226876767414651
0.0058773311361647275
-0.01729243267589226
0.014008300750548099
0.062201098334799226
0.003296937390888627
-0.04191704337946617
0.029148724404669632
-0.009161294140402808
0.014126669993148964
0.03439637090220159
5.2505757661741404e-05
-0.01836111270902803
0.012219268285652292
0.03030764965628184
-0.0242692077754049
-0.07267569108586944
0.02264187477140413
-0.009953300690673997
-0.011537467691827263
-0.009077947092124344
0.0053815714971839805
-0.00985410049160451
0.025639670840864177
-0.006493935066319076
-0.005026952528061784
0.0023735584020718042
0.03154800362166264
0.017438185978598145
0.005088333840437707
0.004392833532611687
-0.02594252390997905
0.004381905799328158
0.031913685049955884
-0.011363039117425889
0.02977080934897058
0.029709840525615698
0.005330616169044221
-0.02294444402888982
0.005532480806489184
0.02753882309182892
-0.03182875168723414
0.013933099621346597
0.002613070427673863
-0.12998871387352853
-0.04054598165449266
0.005661005204493877
-0.018725706514795635
-0.005357678784405077
0.05402991971800649
0.01634399766290775
0.06419645778602745
0.0834371297489491
-0.049960955848311776
0.033444135560511706
-0.13136667619512582
0.00420662598953647
-0.02294925962162754
-0.05094771230006447
-0.021435654233592494
0.04278020243702939
0.043548876623159295
0.04692027185482919
-0.16552239600059845
-0.0992646610117502
0.20287192492648012
-0.004457465169496316
0.03447633336348502
0.007167874716530283
0.08149082086617306
0.012568498745206198
-0.010947661760696972
0.008711579751575242
0.015474600898992443
0.03883616976452258
0.14745197990807393
-0.07277223434855949
-0.13666188651993408
-0.012449662273090238
-0.16237006324616968
-0.06307717220629781
0.0408864193425661
0.02212909547986363
-0.012709384932971397
0.00013569025948380523
0.0009692519468738606
0.0421218072234472
0.007981672603110425
-0.006701031296907954
-0.03276922256610935
0.023504679872018503
0.018299878509553242
-0.01722514690020502
0.017247978914434862
0.03304165943737147
0.010289882226036887
0.01027835616283451
0.0335010254847646
0.008249684714128267
-0.03820790762929327
0.022360743119242785
0.014751691878091475
-0.01605169192593074
-0.0023365752482016936
-0.006970750945499614
-0.022862998981696084
-0.075047355952527
0.06289678674783886
0.039573366218897184
-0.011738118408424711
-0.03206268003341833
-0.0030460521329392786
0.009831287657496959
-0.0003307159562624767
0.0017594466500011105
-0.003578122113882247
0.02414646175718605
-0.044908658575615774
-0.039563709250720315
-0.023190415031095275
-0.01641655793698512
-0.03715774953640287
-0.03859898161947311
0.13051355295507003
-0.018899976822517157
-0.06068466891050843
-0.0015840721674725126
-0.022482323014397662
-0.03935685529393483
0.03550757934379659
-0.04867703651992709
-0.0055437465892107934
-0.01956562743894152
0.21901957895279597
0.08109179207242193
0.07733327571725288
-0.07124950239247506
-0.09895738806070425
-0.013906178056595357
0.031102275436021294
0.11116143926577059
0.006864872611698341
-0.03526342481564913
-0.024425748712423114
0.023560709970307087
-0.049253456975409414
0.08876821382196926
0.1602938187326977
-0.00039739830236472937
-0.04544626586312377
-0.001433204441833637
-0.03394865172048877
-0.046108255819504604
0.008074262930700859
0.005863321812712015
-0.04389647011561786
0.002684148902760356
-0.05455875037837171
-0.09544841954199246
-0.004124147543034472
0.037625640911052374
0.018896897622777794
0.04850028089146929
-0.08810292304379548
-0.12573740074506867
0.11757906517973868
0.03434969748112919
-0.028875344434297335
-0.008794978008934416
-0.01930360548947943
0.03551442811021288
0.15039626752248567
0.014562490989083271
0.0055855758449148175
-0.08616140088322957
-0.03337405835876877
-0.012352642198769265
-0.017641210763066968
-0.0010668292242966347
0.01813881983347848
-0.007900049653802114
0.0006333529725282914
-0.052442644244976584
0.030939694372194692
0.10750792973241342
0.06326463343960387
-0.009818547667724968
-0.04965320854727563
-0.09939286954384702
-0.0012961248836702599
0.007478810457672431
-0.005400209197964646
-0.0042747174943827656
-0.006003355746185714
0.007886695358780471
-0.002091689595623991
0.013415209433579897
-0.006860476842509156
-0.0026738005103377903
-0.022902827408574987
-0.0070649168245363134
0.039971812266154184
-0.04703298308704841
-0.0020265117214763075
-0.014943187898446708
-0.016374865360128575
-0.013019916714206804
0.008261110804225917
-0.01244662302510738
-0.008092870105613171
-0.018607309572835642
0.015476324130898656
0.013315513501708846
0.04327100508661212
0.015300374003799796
-0.0008640516036362979
-0.007743343625551982
0.009572393006176783
-0.037957236211419165
-0.00605875914179401
0.008068260832842785
-0.0038343400133067844
-0.0151766131035188
0.0060662550733486635
-0.02721283381933212
0.14681644102684796
0.1403230224492391
-0.05429848928673036
-0.023431202766538307
-0.03156058930661774
-0.01554726712475703
-0.00370239157650982
-0.015479873150074793
-8.044646878904122e-05
-0.02382750199975314
-0.0103063048940891
0.011973332795495764
-0.06956276905410441
0.012520749364792742
-0.04635206078879457
-0.00515579193728429
-0.05915652248119886
-0.09083780531552751
0.12211075623457163
0.028666665680643307
-0.10175011097283002
0.03671137226033519
-0.01565929514092775
-0.015869419178614282
0.0023837569976900173
-0.05720152210626715
0.10588829985828459
0.11558975576140232
-0.0032475395512649966
0.015771474908954967
-0.01025043576434922
0.015903327609743813
-0.007389820638008806
0.00840520072374587
-0.05104249020275975
0.004763107921407471
-0.03477978334624652
0.01006591712835307
0.008835776370757957
0.06732268420399208
-0.06045905118045078
0.06603702522879394
0.04291403276292276
0.04294659352575614
0.04790315484290303
0.025557805005446427
0.08252317760152421
-0.012110310539003093
-0.0018867089641573954
0.003071409204512356
-0.0013395647579547878
-0.03706062083247055
-0.009910518479856759
-0.03650368876295206
-0.017506083508853056
-0.010120083809429399
-0.041231828877044116
0.006545965956568228
-0.073162170140182
-0.045451613127624926
0.01572479011634316
-0.0219994022917771
-0.01726126656643813
-0.0015540066076064345
0.0384531228166975
0.0044291144700483965
0.039370801905449226
0.0464294661991536
-0.011884145492713044
-0.029691561375695123
0.028987658570048393
0.020851007294564936
0.008609992987779326
0.042258163890864064
0.03560066966565881
-0.025165383876141922
0.01580229983168348
0.013431173510615969
0.01110827105414833
0.024779798419065226
-0.009105435573185518
-0.05709885373865362
-0.005221716432844801
0.009476599156963313
0.0004995146612488435
-0.061157795409403914
0.05670162901624021
0.004199068605852357
-0.16623453366178875
0.010078007592002954
-0.08129504862064821
-0.07180779375897385
-0.04900783678086174
-0.0038555316747555524
0.00596152504320793
0.007867355050700802
0.008746055240898283
-0.02556256095068909
0.009440428218027057
0.03941899160329195
-0.0008234455027193805
0.012138976533132222
0.041907220514677455
-0.009079053425400795
-0.013123522109603897
-0.003562579334498203
0.02651950143586791
-0.00034344106967533223
-0.01284381180930775
0.0169746073124095
-0.01529798830919815
-0.029341049749701947
-0.002264398639348667
0.026467862164442132
0.0010299306277081596
0.040731455197637025
0.05326517034475499
0.002886408347400006
-0.004195165631576194
-0.029014054414582578
0.010085213849420668
-0.019238370614864404
0.01046222350582171
0.03332042668140435
0.016926155217712617
-0.005554588216925898
0.004430151335713918
0.019215963338073374
0.025695594025393915
-0.025277707441289106
-0.0290726173342122
0.009881148494962338
-0.002730467412187403
0.025376438883995177
-0.01413858712855434
0.004810685308515525
0.03263594265921423
0.0016626764530092374
-0.0341822116515703
0.013171865033374872
0.08301156942342476
-0.030805409061955964
0.011054132153303349
-0.008827829260159648
-0.042195024012437764
0.011932831032744937
0.07266774298110927
-0.00968255813564018
0.03185937533023825
0.0024233775115455277
-0.07594777334947549
-0.024585137730437624
-0.0073756311381896035
-0.03219160776017853
-0.017649203171096816
-0.008484558138243156
-0.014091302704205872
-0.00411757179749156
0.009139381114997826
-0.03613897015820086
-0.0034794925518196965
-0.01242545666756527
0.03237834692011191
0.012300712977174827
-0.09916668827766191
-0.02874417954551918
-0.024748541390980226
-0.013116633351188272
0.02546266716362104
0.2349267489123837
0.02049530697550072
-0.025775857521963253
-0.02889943609783824
-0.007659941432312858
0.09281974950308955
0.04190457106408494
-0.06518354733307678
-0.07294562791034769
-0.02500035134772724
-0.0013487909279070655
0.0003817239574355344
0.052653258664563315
0.07328471833456687
0.00039070854525153096
-0.03439761776203052
-0.009163105456834816
0.008397864371592848
0.012308974376359727
0.016464706706827363
-0.007722797441427394
-0.015953543623663854
0.0033622800525821774
0.028257268659623618
0.015209597130076696
-0.016855536512900934
-0.06591234543244184
-0.007070442507292275
-0.07591142935338643
0.007432094825918854
0.09623872694736914
-0.004709614784562926
-0.04561830360235706
0.006787460529983788
-0.000360336060900891
-0.007213626376552141
-0.001737540663588139
-0.015545854955437342
-0.03052011250548123
0.022877112819510485
0.033774152621924514
-0.006020831591605117
-0.008694273129325433
-0.012832934465473464
-0.03741146602453251
0.024537068186169953
-0.00036363670842583966
0.13091281448720943
0.0433229705074771
-0.07010484192510971
0.014022431851327325
-0.005695146273358118
0.003082337961411265
0.03228351330281215
-0.002877338085744275
-0.025662723871785833
-0.03852949974785866
-0.04253390893830468
0.011572943305749903
-0.068141479667858
0.05149906400269422
0.031648419922681074
-0.024883762579886146
0.019639316629320887
-0.0006117816350361706
-0.013135339063800822
-0.008827988853085854
0.008316539081454891
-0.014967435538825428
-0.1308829732172254
-0.023523092942192382
0.0030045865809910396
-0.004216412376372708
-0.009989000539071688
-0.03099080935159852
0.02049333498866981
0.018951723434906958
-0.043991567587956595
0.014272921251880944
0.08710037336605288
-0.008861265774225552
0.0007902937120037841
-0.022811378443905204
-0.033777395672297095
0.029554379133787636
0.0028042435676817958
-0.023137155716578973
-0.021171713463538234
-0.002873396814919314
0.020249017718292038
-0.0028276912739876184
0.05923149800895478
0.03490947900728959
0.005294672740330012
-0.0067087314343641504
0.11202085737569766
0.0065554144696959036
-0.011279089539929309
0.011100835177045914
0.004837461684974793
-0.04004011409716413
-0.02674800285139236
0.014730374525290128
0.10137744889272937
-0.03951762573212696
-0.051958645289196685
-0.011699518255222882
0.11943360692745268
0.07729397096953958
-0.03187077653469655
0.008009477961578552
-0.008022579070449487
-0.009081728197899638
-0.012435698334678667
-0.06654860554755522
-0.006748816949831651
0.012320610525067072
-0.02944180267195615
-0.00207371270760231
-0.027527759477248316
0.015150442736352982
-0.029787322259155934
0.004705126950231696
-0.014747833646804376
-0.00772140039434218
0.11160976641718885
0.03968095962575183
0.014246318183927631
-0.03932455883345165
-0.015780112934191584
-0.005280831142328692
-0.02131776732173922
0.006850958765078201
0.00523873012353124
-0.016337143338993887
-0.019598043074694958
0.008436235157187886
-0.0004912080275310155
0.00861130074418073
-0.09716506580605491
-0.017101914190866322
0.002018450365524399
-0.0019449116840688423
-0.012007467331839326
-0.01933084834875366
0.02155668930704131
0.024260994112782045
0.01846482970811631
0.031843951666288325
-0.006568599379997702
-0.0028250711641542286
-0.05588131279722745
0.00491212785615587
0.0032288731891370525
0.014299692743651648
-0.03652747019607166
0.008885604789661078
0.01699486955304931
-0.03458666922697787
0.012740311464566719
-0.01572611558261487
-0.007599500149117765
-0.024516595208419912
0.008524948616050248
0.02452092426299546
-0.004431090027896043
-0.012038688672381202
-0.010325535451930264
