0
0.004378142314952353
-0.018407959792160408
-0.028652505822808552
0.00014699277868500724
-0.028597094011396235
0.029964165983860664
-0.046718084361732706
0.07442235507049591
0.2351600861587179
-0.04239388560204413
-0.007449036055797436
0.04616575639453696
0.0027577130634328334
-0.02088483210530626
0.07070029535355385
0.00853635274749489
-0.03653691377814248
0.013991286063891141
0.001974923549764022
-0.004961975725273241
-0.0014351160089381347
0.01155964422400446
-0.015560540222781045
-0.0225145890725277
0.007051333770707113
-0.01280409876160397
-0.0017352911652805739
-0.008123200048850174
0.006389365266032803
0.009679176319108054
-0.05050819718182897
-0.08553150980044086
0.006952503643120881
0.001136979981226147
0.0005216119269673987
-0.0017062069075905655
-0.12271856505690089
-0.03805276337803302
0.008122006791399954
0.019593907394110845
-0.010334523216081463
-0.011850379033156888
-0.03154816150350713
0.012079777735572502
0.0030828827831007877
0.0025346041532706715
0.04382644035333196
-0.002483243496679558
-0.011470818161957653
-0.006917862542248798
-0.0473624910534272
-0.009468965264739016
0.09200349458692939
-0.015425016390000816
0.02926298747212158
-0.007189231148757625
-0.0022837292489405227
0.010203123336127986
0.003569777888568802
0.013522010209762656
-0.02777236052988333
0.00020357888184804635
-0.0034807908006001726
0.030018842813364813
0.026865949754719863
-0.024928650920022576
0.07253117498578064
0.08228048375926694
-0.0727744121674256
-0.03237675695533929
-0.09949909373097507
-0.04841128635480482
0.0033472161623847537
-0.03638464667504489
9.020927976875302e-05
0.0484694193058857
0.04002576550364809
-0.022237274318188
0.0007341939563210981
0.022306398065693286
0.015149464931861074
0.013583080160647066
-0.01815457608421137
0.0043466409892399995
0.008576473234148776
-0.020655679089358243
-0.016144750941967136
0.02245553413983555
0.01764168143017649
0.0006396767471177413
0.05282065641582633
0.05086943496789593
-0.020726095289970298
0.06919440667236575
0.11027161586047358
-0.01616916416441241
-0.003838536446040135
-0.016729213609276698
-0.016731248917721216
-0.027167734380175765
-0.025765898262720424
-0.002009161565237851
-0.02351669604041829
-0.028386339408370723
0.009893334100665152
-0.012519810103340369
0.016760101930411976
-0.006407417857885222
-0.01647730326877821
0.011931647783408827
0.027434376441908367
-0.03810908492251575
-0.041494433285608284
0.013746343820822978
0.006706438761790943
-0.027796789827237073
-0.012525963386711206
-0.09508588892434028
-0.07600096156536251
-0.012281920314981005
-0.07340023443336659
0.1089290533350082
0.027245087329556942
-0.009689759492633556
0.015064340313395177
-0.00697444849938534
-0.04013497570327831
0.047708021028147425
0.05626362245108748
0.0063332277781591294
-0.02041372412468624
0.010076812932640818
0.004044150539084037
0.033907790788308224
0.01698375489635867
-0.012853575515100432
0.037555244766373154
0.0031919476297165668
0.03448071791730513
-0.006789654475117295
0.02426514995593293
-0.014892692630240845
-0.0017007081750947373
-0.03865955456116323
0.007345016527290041
0.04372358760627712
0.04636926535314723
0.04774984609539846
-0.11582447121815756
-0.035702404302909996
-0.029726013726909594
-0.007514327810134312
-0.0005970434072068779
-0.011336154601052398
0.01123438011035978
0.01298073892393694
0.003959920609221423
-0.025687269219025102
-0.029920369930326176
0.02388606997031906
0.05439398387283028
0.011940178535106745
0.0070562977398145035
-0.014797927426831937
-0.17834333287038645
0.0130357940072177
-0.001818144524100334
0.030874124620369817
0.042607020254540565
0.00032584496348028123
0.006951876279496018
0.05901970560499149
0.0458152372027274
0.04486559269179137
0.04930660280533214
-0.04142745541580685
-0.00916852531041229
-0.021376976075927794
0.0326375156577818
-0.000599606125736255
0.003666610031336097
-0.04202212062711816
-0.013755699930646039
-0.0015297285533750558
0.003899405906011579
0.00149365258393477
-0.07624845785812936
-0.07302038672184728
0.07647534365544391
0.03408374494510441
0.03174770536482863
0.010357431497794143
-0.007044231831727898
-0.018613293643613915
0.0062719081024632806
-0.026282140749483193
-0.04778382612733018
-0.016457952874650145
0.12267583820758048
0.0581716500076603
-0.03249275478272616
-0.10091813355422882
-0.044841873467374574
0.0009393843021217054
-0.008276047946239604
-0.04175921049974622
-0.008872211444450762
0.02006729068876965
0.031008100032305436
0.028557413943449128
0.004066381604165693
-0.0279210342057579
0.010874765376884823
0.004249332114481863
-0.018571839051604984
-0.008676491815505866
0.031496028700665
-0.00947578389261172
-0.0065990801335682
0.03250996581467247
0.004175559814815379
0.02401553826309214
-5.623276548293925e-05
-0.012768595623605213
0.015516985835167583
-0.017269560785390454
-0.050853823004045326
-0.0020184455576101453
-0.011673758609831088
0.006702002323388566
0.05641684095674296
0.04334057709187836
0.0927336390726566
-0.022430377663101915
-0.0030176313556336512
0.046844849742438834
-0.011617763456638189
0.055261214457908
0.07129666383698595
-0.043824555778367275
-0.005992917467040862
0.008676190608248802
0.03817251676564686
0.022719649176717358
0.01286249598049118
-0.0010256204868238055
-0.05104157102492362
-0.0016276599923745407
0.01695555805982061
0.017268518949008212
0.029425977667771972
-0.009096156899789546
0.04749465842259076
-0.23900645930388542
0.04176876138481411
-0.1859360103828422
-0.14581119608013746
0.09558092885357963
-0.013094652517182786
0.013782317597705462
0.009227693769754913
0.030215635324459676
-0.035076940756679095
-0.015397213923390565
0.00024935798484533085
0.016507693712088246
0.0069942228722217874
0.03172351699271828
-0.06267565376451494
-0.10599879065104313
-0.024248388978671844
-0.07928509362140897
0.05284509784280927
0.005248063479736868
-0.0018835599592130104
-0.015733102399585305
0.057954466724714555
-0.00024128519530564383
-0.014834399319368823
0.05495171563269327
0.037324408900973806
0.0256009965096961
-0.00136873527577056
-0.00870817037226464
0.006403951092022185
-0.010907703621012208
0.0004221792780735666
-0.005208846115942008
0.025839378293637624
-0.04038507142252793
0.0001942017249447429
0.03631542347636147
0.026615470473141535
-0.015292673247941181
0.03448327719559437
-0.014152208822654548
-0.020856458002646506
0.006000592492843167
0.02062737724115499
-0.02505938322756152
0.019491842782846897
-0.04123805114439339
0.19346990701063602
0.23913910484762266
0.015447185325573784
-0.0413727771372055
-0.017268886144433393
-0.014742328016705698
0.010388172689511624
-0.0038754410086876143
0.038468388582475255
0.0049756411139804625
-0.041158736444184905
-0.02960318502766097
-0.022469794876682193
0.006224858478970576
-0.017696843283982328
-0.0007171467573501292
0.01202089168984935
-0.004838951400883979
0.012176737634121929
-0.048987883697878765
-0.10482637224972716
0.0013901193541700474
-0.0029504590328216784
-0.01310635104319602
-0.022191711662239065
-0.002550338430453155
-0.05883971140706679
-0.04323245093621332
0.031203603894112246
0.012884075797135488
0.02776807858565095
-0.06265387593289458
-0.028657255085428112
0.0026572697755657382
-0.009925553855982056
-0.02894722101849309
-0.05204115947350769
0.009289955117486398
0.004677009349354165
-0.017273956898916136
0.013709011293270847
0.010524591696186952
0.008760232560302573
0.02767441224287708
-0.0066328988650892545
0.016426246384132245
-0.011691548212446527
0.004627494075331704
0.07705286645193837
0.049818239750176636
0.004135026086620151
0.011499570144333598
-0.0205013933805413
0.07385572995367519
0.03490705790532929
0.021604574776501562
-0.027634755003263435
-0.0006321826576033208
-0.00440156707724655
-0.027913334668476588
-0.0014597964111946731
0.019845110679623384
0.00607217069065605
-0.01494985386989629
-0.018130440410138466
0.006491117459384676
0.024077426348213322
-0.05268242327378299
-0.045932173716664006
0.011584990393138771
-0.010303051559634017
0.005855477272995572
0.06070591118344178
0.017981128050193248
-0.02580784812673213
0.02949205415902211
-0.16998286180706224
0.011118275691420371
0.0988495733385558
-0.019051263921027427
0.01070493788384842
-0.018381583248043534
0.008456008076879441
-0.0031394024317704158
-0.01984257203281883
0.010498300121326085
-0.008371077622106367
-0.0590427123792614
0.019683854867802823
-0.01046504968076486
0.0001111069640877828
0.006373519963371874
0.0017964583302039405
-0.013080070769192029
-0.026570957533551137
-0.01418843498185854
-0.03387562260320085
0.13146700480465753
0.17589225587791057
-0.044161572858737466
0.030315747977660668
-0.032433065522457664
0.01726835746862901
0.01737109272426442
-0.002604279758325509
0.0003984016865816547
0.0016289944804126558
-0.04713529918109329
-0.006199619438135161
-0.025000655011808048
0.0035456753409421875
-0.01651783989732359
0.03431114548575601
0.01283058801903123
0.00419485336203188
0.023347870608798886
0.04684603578371429
0.01977222498281607
0.019882386448984303
-0.08143058300732461
-0.10585221611408845
0.02218265378153209
0.012265524157417277
0.0123039795931358
-0.013230120973986199
-0.020136142332716784
-0.0001992205580288919
0.011873530794584423
0.016062769726604944
-0.018103296657021685
0.005370062340318524
-0.012829664490342048
-0.027383273254212116
-0.03508010821762981
0.011247863796937123
0.004902812568485149
0.001219434937260739
0.006520540991251741
0.004931906182388764
-0.06628912766645192
-0.0203800883131153
-0.005473848109127746
0.012337680810731909
0.016027119738913888
-0.011086978356704254
0.006641344948475533
0.03330821907698614
-0.005927039636176552
-0.004324998423857659
0.007567584247760736
0.015232368495163833
-0.08706339573140585
-0.008277008293040181
-0.009592484754291052
0.0174511272169009
-0.08242684881816126
-0.030286865670540224
0.032005887439826415
-0.02598848712004777
-0.006970959872267878
-0.015655634037654027
-0.005348481710102491
0.0006256278368507913
0.015861466904108137
0.017073227836881852
-0.04708220319196178
0.07891057399728475
0.09432610294298191
-0.023552921040649932
-0.012178522654095051
0.015183773892270673
0.10385643530892132
0.007752190777707438
-0.0059126673729802195
-0.043953360143346575
0.09310022618143594
0.07290447065452568
0.005755632575682053
0.006273118101622031
-0.03632881540516104
-0.016236162347182437
-0.022827945569863995
0.017277474498282493
0.02400736742417861
0.015395982591379025
0.0069242091630436235
0.005401154670468206
-0.015771171480724388
-0.0001446542884293978
0.0006605307030576955
-0.005504252795971623
-0.006993650212355335
-0.011883664004595139
-0.004872540022784648
-0.037624780112164656
-0.04201809505329399
0.012094721581518595
-0.010893594770379796
-0.012263293094410765
0.01038037953225295
0.05766249746239862
-0.015422000378599737
-0.023468568748624016
-0.011179760555455798
0.019526481760149112
-0.017940812080809727
0.022348423215693747
-0.01494457134951818
-0.011399657381243895
0.011090008544406914
-0.010881552318111463
-0.006830663071454042
0.0033315461980621955
-0.000615553158180901
-0.0002707094487004597
0.0007539053985167994
0.02553956828997288
-0.005842158591465662
-0.036134737597133766
0.001153661452566909
0.0036393949685762234
-0.048953017192575034
-0.09490448537778122
-0.005911704987759089
-0.026678142181994144
-0.02942027762646696
0.0035657301266653917
0.11446430619561128
0.004221852463273242
0.013764737738102226
0.008197019360579266
0.03086294598363768
-0.024948360946041737
0.09700354274635403
0.07964871196838239
-0.02828526116107163
0.05430135678940107
0.008634488671048218
0.006332105825486633
0.026885576731639164
-0.04336532183818918
-0.05984900922626039
0.025911761715027355
-0.0009183375498789342
-0.012101324024991944
-0.025202799427728313
-0.015340968759099044
-0.00037947971064137425
0.02227803786715482
0.014247158315136994
-0.02156302812985218
0.018047985849593523
0.025656261612471937
0.007563164198131731
-0.0004927521411451297
2.3183841346951335e-05
0.02897857969559817
0.01865309906320155
-0.05759001305360203
-0.03010468362181826
0.004758728130315709
0.024003968432982605
-0.006315746401162882
-0.040054924300331494
-0.004175508771213636
-0.06167248805056383
-0.027296220739328494
-0.02420841910352701
0.005755037743889215
-0.025527482373874328
0.0569404965367137
-0.039609308402185406
-0.058920448460044315
0.05298736402181988
0.025685615943682995
-0.01671614185078791
-0.022319480220574946
0.0079215603864145
0.017558219359483852
0.012197474652279768
0.009780777491647052
-0.010547831475194301
0.011806217072129277
0.004411881295633176
0.0013962126535188952
-0.0594031554719114
0.003658502398915761
-0.045648021665022305
-0.023483881232017327
0.00781724877389346
0.007743022076535744
0.006267932381657992
-0.001771619402187949
0.028223323160995694
-0.0007712867019581332
0.010922848657368173
0.04106944626375991
0.030621489319130713
0.010725077349113868
0.01766420102551061
-0.0015373323823571947
0.008827915951977799
0.025703612556535638
-0.016093861540710068
0.00155749396764802
-0.003701697376401599
-0.03930257402733014
-0.022655713223797492
-0.009526213137113741
-0.024448708464024586
-0.005275515788900842
0.022841259062841446
0.02010661208845262
-0.05308468435978478
0.020379872966064725
0.08478473462321631
-0.04311789929573962
-0.02294161639242502
0.02277712593843645
0.025763405524406865
-0.0073580032290995944
0.008394185322387646
0.026571075263420948
0.04257241246463575
-0.019508638810227085
-0.01957759139229258
-0.004289189886766994
-0.01706398232091087
-0.022837148692907816
0.03095677871114228
0.029195294044633165
0.0020606351846596954
-0.03565427421306954
-0.04982333983322837
0.015499463623633797
0.029791762116239937
0.008196190742489316
-0.012707209194029984
-0.02286652860473615
-0.002975484155787704
0.021332903393556514
0.0030073482310670257
0.01054734414994129
0.09900208909781441
0.015631519192776035
-0.007767298029344571
-0.01151171401790806
-0.01983607186262631
-0.005660474141721515
-0.013584392434486529
-0.016921334541982722
-0.1306909742100971
-0.06847196895233489
0.054003247309104586
0.023000638734281743
-0.02157815499136912
-0.013137923669791392
0.012391660304599338
0.009417307522473002
0.0327365027328207
0.022084995619412812
0.028428712353073544
-0.027393678502954405
0.0424217807079923
0.00394243911667966
-0.012743890537669689
0.004492266039287779
0.011468917523654075
-0.009065859981583645
0.002848275826757106
0.003061175911820064
0.04378846883007084
-0.003924344982399894
-0.0005983812022525725
-0.03757017432290263
0.018225638977420508
0.016872569940655942
0.03010512486714141
-0.0026897864210743395
-0.01193824546640513
-0.03451471102657363
0.0049751621646347425
-0.012382444903376755
0.03965461700910234
0.06421410419389212
-0.009198315671343878
0.002740871603898891
-0.03454356558137306
-0.0016193230771151157
-0.016819069703191105
0.01712067416218902
-0.003209282995589523
-0.04363701157401905
0.01538153050050209
-0.02121959307704208
-0.017140290407567857
0.013513951474792342
-0.03391411950762733
0.04286479835816472
-0.011865362221857833
-0.18338054593182612
-0.02604628176400918
-0.0025293225125249397
-0.03286895462285408
-0.029150615228231782
0.012200003249370749
0.012609992604678995
-0.009340162687032137
-0.0019532549514272224
0.003128347279387056
0.0212616706368339
0.0911882997764478
0.10151391662390749
0.014333366077054502
-0.021471833781814522
0.019117220712718593
-0.00015610881794059272
0.02428672002166992
0.01660187863992267
0.03702444367492527
0.07326336139937344
0.00034065677039393517
0.01865864693304575
-0.013380414369193397
-0.03858664055238895
-0.008707076814168284
0.017807328286652012
-0.016689864086866745
0.02725048624148312
-0.014838492628090177
-0.06483761155208957
-0.008859791872227497
-0.010347537566505634
-0.0139804481238708
-0.012162498890570153
-0.0033133987578055505
-0.008952714549407761
-0.0004429493080361845
-0.08811021479586371
-0.0037062093035356335
0.009818674255796897
-0.008328699651263514
0.009448050124372507
0.00967522933753068
-0.0005798033962582307
-0.021248047801022907
0.004939948362151872
-0.0143775486302929
0.011073821467246569
0.029979543830178396
0.006598827351066495
-0.004661230616387697
-0.012581769933269692
-0.02033081544853016
-0.028670380357518607
0.09036485834228236
0.028154662349045862
-0.0077794381557893455
0.013694623032244916
-0.055266305551343896
0.02868392293246526
0.056948839977432636
-0.026516384330033577
0.02162884589112082
-0.003719595476754564
0.02019993501104895
-0.00683319379675042
0.023009283433949618
-0.006129780281907462
-0.015788603569900403
-0.04004456606036183
0.005422913050431761
0.05116778585918342
0.022435379418438896
-0.019042773622871344
-0.03748053769225138
-0.012940813265897312
-0.015816735399160915
0.018687891603678803
-0.025234247884807912
-0.0040278105705020455
-0.02731120837801135
-0.04069371928326309
-0.0008623726514576319
0.04693798251792798
0.018127333244855343
0.023270703931177767
-0.060611199532059554
-0.003248736840895508
-0.0627051030984146
-0.017282115709083945
-0.019857822943332996
0.05034963706195517
0.08295134421763337
0.00725130708673721
0.038694328182519805
0.04155392514467932
0.030776800947380067
-0.02801456330369104
0.03037326582367381
-0.030408408624012458
0.012832140390790156
-0.0025004522954373857
0.0296592331024131
0.004269453160816753
-0.012285924026665907
-0.04463817671162188
-0.006338246745928282
-0.0009485413628368726
-0.01748633873335182
-0.011805564064712903
0.051269335035414344
0.032263143069871304
0.0061917632454289015
0.015629637766763134
-0.0012468466354841052
0.04410079078645667
0.08309640465205992
-0.011107544242403579
0.08379585730568612
-0.10211942872687486
-0.325189272291127
0.022738978346942613
0.015849002920377057
0.05560598757765492
-0.03310266320353719
-0.0034017166016954226
0.020320432709495524
0.03582450674599267
-0.007508658888465118
0.0340951121834972
0.0666249695144217
0.008278069342170308
-0.017176101010135458
-0.015889950443225387
0.04211240119686615
0.043224660315342764
-0.018609596717347514
-0.09357737008951889
-0.009880210396669298
-0.01354198946055395
-0.08705793655357946
0.01517174221448041
0.019736570309535236
0.04445695555278141
-0.024220328148059987
-0.02451054572581825
0.031560511538853385
-0.004950626261824655
0.0029839176160674544
-0.012421620478776483
-0.013533327025318481
-0.002924038444473507
-0.01889953279985367
-0.007504333931324075
-0.0008624134482594087
0.019588459710153643
0.03844633041727081
0.020908905119767684
0.019008128130677867
0.0011817834966382217
-0.03528575573753814
-0.008432742873758208
-0.011123469554886517
-0.021590116842716348
-0.017448736065204442
0.02359808788036532
-0.1302387216435587
-0.06495397614468346
-0.014278088815522382
-0.0188069714166969
-0.011490902907313305
-0.018861889488088493
-0.036240226918862
0.020586703249086458
-0.021723523986354167
-0.02399445895295991
-0.002362966893866503
-0.01679664738442464
0.04032132011522472
-0.03258671729181316
-0.015540405168023286
0.0798677795191249
0.2176609225683883
-0.03270888351276408
0.10701228653781478
0.02648300667847701
-0.08063818280816498
-0.04076153032227795
-0.04294142293481754
-0.006091890655723006
-0.051361141368520574
-0.05453773417370869
-0.005153741251175623
0.10289738800735854
0.10049963529444414
0.06994063192666522
-0.0394867588886885
-0.0021870728240920264
-0.03642743352309094
0.047425817861195256
0.26045291538558146
0.10877926711236921
-0.03502143825331673
0.046107926434267435
0.09324493839615682
0.010037979291006997
-0.029236607620974825
-0.03139932960206612
-0.025570975090240287
-0.04675371136304075
-0.055129265781177515
-0.01871926716048368
-0.027063051855544758
-0.027306876444934746
0.02859510059113039
-0.011861398122796643
-0.050232202207583676
-0.07540749156813842
-0.008365129965789727
-0.02170025377002194
0.034703361775242886
0.031745230422124196
-0.028413688639037062
0.011149198604177702
-0.032270676419820246
-0.012707191684410792
-0.017711024984424912
0.02294646832915472
-0.02542576577922231
-0.04363021949895084
0.028587663599548653
0.04240580952685179
-0.0064750572704196175
-0.017991737957159165
0.01817187930818482
0.016773474124687562
-0.01732602709661536
-0.0003466766139774886
0.021870215177860444
0.007814508180620539
-0.08138393207105138
-0.09744006110930925
-0.03209665500925248
0.04155948869293705
-0.002190932144069138
0.021054293213014823
0.007952971852965852
-0.036776682587916505
-0.016633213557681374
-0.029668155681763928
-0.026717557571016938
0.029303196612975767
0.019544128957435056
0.019109668761007715
0.0020419560563174014
-0.03049842500897387
0.004999276855862801
0.009786637281888768
0.011002237650000279
-0.011736324753775538
-0.026938988723414232
0.031948647640142325
0.029784816959818477
-0.018773125523301192
0.03549817881691374
0.0387820061966022
0.006599556115820422
-0.02120352998778202
-0.01605859171795748
-0.02116872405758929
0.021435041606193677
-0.02738693900872904
-0.010830102741480406
0.02464887979028756
0.010670982331737414
0.028317477722682047
0.008561851597086017
0.0141776804241479
-0.003935298429581204
0.014391303945820036
0.017905796763583993
-0.002872738828358658
0.04255478328971782
0.014818253703791744
-0.008045512766430795
-0.026659122416827136
-0.006092556748945257
0.0055410940064422485
-0.005170631031245388
-0.11850503436422749
-0.029202430077265668
0.049666011698073644
0.022504697618175164
0.015435510883114387
0.00960048227558196
0.03877628726169214
0.009979799124945695
0.03854567794080687
-0.037041757026806836
-0.0191056225366697
0.012952960875418739
0.002510134374682177
0.013637029606271747
0.0051538183919643
-0.027245571439358036
-0.003987479698679
0.024907354861472702
-0.03443857611354666
-0.032592524250895864
0.05316759397744158
-0.005023570077950174
-0.0031122050746697624
-0.02899079335511885
0.06821926583034484
0.037353966844454946
0.032351335240941435
-0.12704385488547223
-0.08441678485833264
0.04754822925523938
0.03390821749543748
0.016288571995612216
-0.0045752809183992665
-0.027534682961229504
-0.000911548660196665
-0.011664911181145632
0.019978535433454358
0.015696664239117582
-0.000508859775189219
-0.022785612149789643
0.012510684327425836
-0.0027917310205424783
0.007812721812009853
-0.12863049774232344
-0.08686551397770517
0.10856991649320488
0.08082970293370313
-0.008360429184352713
-0.15895279113583544
-0.03516200818976542
-0.027008878157943412
-0.023494048580873658
-0.0075668311207808025
-0.018879137900750628
-0.010914697513477756
0.016818416514950908
-0.013322890490649119
0.13110447892149382
0.07929429689725977
-0.0677510762729891
0.08822673010034197
0.22371111307730485
-0.0006122092056904308
-0.01834024356004413
0.0005322366563847152
0.0024060003489479675
-0.021046725884916562
-0.0008610517889721088
0.012189900702959762
0.006581369890844064
0.010751958536624627
-0.049818196843773414
-0.017456125896152433
-0.06890059702055008
-0.005271467546405673
-0.017192551014924007
0.002508929654674822
-0.015936467490969525
-0.007848432304376908
0.174542847149326
0.032248265971679464
-0.04315761683578254
0.013120885465486214
0.025546138733169365
-0.003897820647026275
0.010713851520995802
0.006078292886656477
-0.03853756241348268
0.022846376149962634
0.02223897196197134
0.015098852676655993
-0.034265678891532696
-0.05919284442070006
-0.01215241393287819
-0.0033394995145479374
-0.020196855281732876
-0.016225545808134973
-0.010439488734944234
0.0067438272853622885
-0.24710604754151344
-0.046076911048149566
0.0243216660285436
-0.013268625476302734
-0.006576146075597196
0.04202015692779662
-0.08762690542099505
-0.04426480699030145
-0.004665503943875719
0.0954859534614624
0.12079618614618577
0.06473668157748594
-0.020550563631228296
-0.019212109254253092
0.006850416033302509
0.01044693775520286
0.007778673866455888
-0.008620867632464469
-0.01788170743247356
0.026554695645173987
0.020656394253664556
0.00553463528795465
-0.0008880014486383709
0.05924680344898393
0.08585689022611422
-0.017873201405653738
-0.02838942576435159
-0.11008022728988516
-0.02320391906269203
-0.028686570960227777
0.09052874193897953
0.04820766519656649
-0.02994620466231363
-0.09388102373967531
-0.0034142469629619707
0.009919483754762586
0.011981936021294435
-0.053892352353803796
-0.06519989667006144
0.09936878201152541
0.20244406774977264
-0.02112545006481991
-0.04096181739066863
0.05429419420078897
0.012624953031387536
-0.02855031773628762
0.017194870651554024
-0.017202924194395983
0.013512527093188436
0.041325939701596905
-0.039976676992160745
-0.004474084676971488
0.004358190960663137
-0.01707251198541746
-0.00425723108756323
-0.029077685044127752
0.026020910805543706
0.04971722462168214
-0.03173038072831303
-0.030532540871260807
-0.021275350333550543
-0.021253075524254074
-0.027252558818474645
-0.030424470196380612
-0.010696683007670123
-0.004365435545209563
-0.006827069071643624
-0.005075891706091864
0.011876827079229614
0.010064451309892412
-0.03251748841776323
0.034642392989658294
0.04004299539449535
-0.024702933834395025
0.03412513049379489
0.099015105505274
0.011520951664701804
-0.0028557768638144063
-0.07254654424002065
0.04497681775910621
0.09808838230409654
-0.01092548893331405
-0.00231602376066774
-0.24092466300689866
-0.08204235358782987
0.11334356712875653
0.07418758524543183
0.023437779487888173
0.0893227809217181
0.02998665487408637
-0.19213122714029315
-0.21246669251983244
0.068689559743021
0.021772422498131615
0.02022106645660619
-0.07166910533788663
-0.03293376749637079
0.028699560668746828
0.10046380948099595
0.06597180777377276
-0.07298957864964035
-0.14323753508104997
0.02627074125999
-0.0015428574788164213
-0.005147615494011533
0.015104329838411179
-0.009858668652393203
-0.028048749422440303
0.07586198359143509
-0.00935075077743219
0.20851554905777334
0.038041700691034776
-0.007174198085106586
0.014291297484504528
0.010440854493609155
0.002107713135964908
0.002992948113656164
0.026085390849827524
-0.0034395526063485046
0.0013511170966637289
0.013992317658181961
-0.03274935405783791
-0.02414207328064411
-0.002658062860225732
0.004076037048234106
-0.004841576823522204
0.00423229551981707
-0.03473573975053943
-0.040583048943186074
-0.00961884362188556
0.0025195282015028535
-0.006020904441878897
-0.006429794172761468
0.01692177387783083
-0.014102628512597267
-0.00496244238068264
-0.028539851263029863
-0.0005791010844845014
-0.006032823774496195
0.021767623343718553
0.005873874522146275
0.04038364743652375
0.016869749806334336
0.03348301222184698
-0.04976059206580123
0.1399054799402701
0.007418770335851395
-0.1437661713396718
0.029224058556749016
-0.020837578759710373
0.0037561360156499425
-0.008185500805736408
0.10578128817749775
-0.02461882901449348
-0.014476872660537083
0.010666434452783357
0.01660579565324447
0.014457647497711513
-0.0410552766145712
-0.07325263105919647
0.08244020668635405
-0.019702072205886045
-0.015911586930212957
-0.06437407618533114
-0.004164907819738004
-0.040787071301689855
-0.02859609592761508
-0.03942677941696626
-0.012507372239288574
-0.10916329645115196
-0.03712639940787803
-0.00011122201863430296
0.051750216009689876
0.04161830313649933
-0.030397976012995605
-0.024231712792090715
0.0066173209853012446
-0.10831287037417062
-0.04516989281600011
-0.013157650262986965
-0.06250141482670879
-0.011710080534066898
0.08659789323250669
0.39726942072871635
0.12116537247545026
-0.009585148350486294
-0.12528807691369698
-0.10175792990614084
0.014168529301810997
-0.02377783406537915
0.14804103737547314
0.05780097809449922
0.035416930241092597
-0.002238462591235595
-0.00340617211451152
-0.0572127685860866
-0.0016851592998789679
0.03316220929534207
0.04925993571866136
-0.008947380367687503
-0.015798419697278344
-0.011938589208967124
0.0007492116035634642
-0.030643417120918646
-0.01231389841247077
0.0022934756154663677
-0.02360496476743045
-0.050125684211772256
0.03223048746429075
0.005472671241117554
-0.010067914565343377
-0.056768658640822985
0.018057398704483744
0.0996737626765649
0.007895007605987273
-0.038195002172745546
-0.019850944533148576
-0.04263487187644548
0.05321297451268603
-0.06617493926927978
0.07776095249051032
0.030069447865286855
-0.12181702922755072
0.06143526519586973
0.008465526447028334
-0.0736389572622148
-0.012779531143740397
-0.04845084576420319
0.034511265766139665
0.030485041399062083
-0.07841614250324765
-0.05449855100451895
0.09959694303073907
0.17400852522172197
0.003152073895467176
-0.011840081854856452
-0.0252789652167375
-0.015151701078537593
-0.005963966986451726
0.04823802566487383
0.003938229980591053
0.05243072650406993
0.0002981882272152205
-0.032562053680823745
-0.0402312862852238
-0.003157228946418553
-0.005011582032507822
-0.005376635699936719
0.01646266328665298
0.012937631978948856
-0.02204142416820773
-0.021086972791326958
-0.016866190072446868
-0.00661637499253957
0.02464068812420428
0.0094544289087302
-0.05955022253588523
-0.043964734526579216
0.013383626476494086
-0.021698134570674158
0.004366293127593228
-0.03484958171043209
-0.017966582808263278
-0.05620288373963788
0.0011633230000016002
-0.0036335647056258275
-0.01946544827856309
-0.043516007353311924
-0.010199726739741522
0.0008438710675115147
-0.03293926341468957
0.01555820457679142
-0.03945648327196345
-0.005706844293958295
0.034352074605036774
0.0011067058903133848
0.016890414872959177
-0.006986122886475076
-0.011212803599183184
-0.0011804493655389388
-0.0395830466996451
0.20607551962310358
0.0898722666974506
0.03168724986762018
0.042721450174801
-0.012500422643133058
0.028468586107736806
-0.03451010614056549
0.029839801300092075
0.21066073049912293
0.014202201003304764
-0.015562131634133761
-0.03987751013808742
-0.047911477365462994
-0.050348026775211455
-0.02245039439571864
0.010307554796923463
-0.019130730222897633
-0.021742374488618585
0.028924400359331612
0.04385025888528868
-0.11469271422186628
-0.09975475041434262
-0.034235505178741917
0.022294490504496906
0.03494469126334595
-0.0028884069685924415
0.008162771229561007
-0.01018562039626857
0.006209572774815229
0.02487748770495767
0.008635149439334106
-0.008374969171823683
-0.014402711381901372
0.005336054919049337
0.03428671972388806
-0.027132977542730405
-0.019774636802354133
-0.04726459088207575
-0.031558452617826194
0.0348929225164295
-0.017959319672275393
0.04629362166364672
-0.021447432168022175
-0.01564007522519667
0.009433625606558567
-0.007540524795387553
-0.020648012225664866
0.06040295248554619
0.022936039522777927
-0.018214013357128873
0.005274450440137563
0.03100172635145514
-0.017347770140083315
-0.013090792465321861
0.06796151480667333
0.06187135884192262
-0.014000036063726316
-0.035636037418906925
-0.062452525347999104
-0.014688858196893381
-0.003250429609807428
-0.017926675436375092
0.007324250558349876
-0.0033650534975191264
0.0007899377615192193
-0.09541116713691593
-0.05348885488073561
0.06692014279783959
-0.01621192475750509
0.0558988116764686
0.09430080316601605
-0.013093473637446994
-0.1809690898405497
-0.03760052172537264
0.022826125642537772
0.03021313776185573
0.008250394991440797
0.06660316692048797
0.15223534332997685
-0.10953236665102598
-0.015545660673319715
0.06448593075328976
0.022093110656357738
0.02160702974114211
0.02616047970580935
-0.020811223822548332
0.04552482580485101
0.031567565371214044
-0.03351964484237227
-0.012153450626978628
0.014781484586503664
-0.0066565819682812685
0.0013370976507455499
-0.0059403843369011935
-0.04139860064466265
-0.014904516612830475
-0.032645620883272296
-0.02159776700758506
0.03251494392970662
-0.16713101759489016
-0.15067837290463512
0.003686068013526154
-0.008151629562620657
0.005908915506697621
-0.007562274525768435
0.06014568590461483
0.046209348691570805
-0.006274627707566815
-0.02146487742796212
0.04855661323724123
0.07288918234826518
0.022041141637985533
0.06054243913467106
-0.08137017743584767
-0.05270618750694111
0.020553926825888687
-0.0011132042262395078
-0.028192784589425673
0.02064302355414414
0.09923916691582425
0.002033506378356137
-0.06610430886258922
0.1079889035217784
0.19682030447564522
-0.06634749448474844
0.010729802010597816
-0.015456835678640939
0.017617951919492277
