0
0.011073821467246569
0.029979543830178396
0.006598827351066495
-0.004661230616387697
-0.012581769933269692
-0.02033081544853016
-0.028670380357518607
0.09036485834228236
0.028154662349045862
-0.0077794381557893455
0.013694623032244916
-0.055266305551343896
0.02868392293246526
0.056948839977432636
-0.026516384330033577
0.02162884589112082
-0.003719595476754564
0.02019993501104895
-0.00683319379675042
0.023009283433949618
-0.006129780281907462
-0.015788603569900403
-0.04004456606036183
0.005422913050431761
0.05116778585918342
0.022435379418438896
-0.019042773622871344
-0.03748053769225138
-0.012940813265897312
-0.015816735399160915
0.018687891603678803
-0.025234247884807912
-0.0040278105705020455
-0.02731120837801135
-0.04069371928326309
-0.0008623726514576319
0.04693798251792798
0.018127333244855343
0.023270703931177767
-0.060611199532059554
-0.003248736840895508
-0.0627051030984146
-0.017282115709083945
-0.019857822943332996
0.05034963706195517
0.08295134421763337
0.00725130708673721
0.038694328182519805
0.04155392514467932
0.030776800947380067
-0.02801456330369104
0.03037326582367381
-0.030408408624012458
0.012832140390790156
-0.0025004522954373857
0.0296592331024131
0.004269453160816753
-0.012285924026665907
-0.04463817671162188
-0.006338246745928282
-0.0009485413628368726
-0.01748633873335182
-0.011805564064712903
0.051269335035414344
0.032263143069871304
0.0061917632454289015
0.015629637766763134
-0.0012468466354841052
0.04410079078645667
0.08309640465205992
-0.011107544242403579
0.08379585730568612
-0.10211942872687486
-0.325189272291127
0.022738978346942613
0.015849002920377057
0.05560598757765492
-0.03310266320353719
-0.0034017166016954226
0.020320432709495524
0.03582450674599267
-0.007508658888465118
0.0340951121834972
0.0666249695144217
0.008278069342170308
-0.017176101010135458
-0.015889950443225387
0.04211240119686615
0.043224660315342764
-0.018609596717347514
-0.09357737008951889
-0.009880210396669298
-0.01354198946055395
-0.08705793655357946
0.01517174221448041
0.019736570309535236
0.04445695555278141
-0.024220328148059987
-0.02451054572581825
0.031560511538853385
-0.004950626261824655
0.0029839176160674544
-0.012421620478776483
-0.013533327025318481
-0.002924038444473507
-0.01889953279985367
-0.007504333931324075
-0.0008624134482594087
0.019588459710153643
0.03844633041727081
0.020908905119767684
0.019008128130677867
0.0011817834966382217
-0.03528575573753814
-0.008432742873758208
-0.011123469554886517
-0.021590116842716348
-0.017448736065204442
0.02359808788036532
-0.1302387216435587
-0.06495397614468346
-0.014278088815522382
-0.0188069714166969
-0.011490902907313305
-0.018861889488088493
-0.036240226918862
0.020586703249086458
-0.021723523986354167
-0.02399445895295991
-0.002362966893866503
-0.01679664738442464
0.04032132011522472
-0.03258671729181316
-0.015540405168023286
0.0798677795191249
0.2176609225683883
-0.03270888351276408
0.10701228653781478
0.02648300667847701
-0.08063818280816498
-0.04076153032227795
-0.04294142293481754
-0.006091890655723006
-0.051361141368520574
-0.05453773417370869
-0.005153741251175623
0.10289738800735854
0.10049963529444414
0.06994063192666522
-0.0394867588886885
-0.0021870728240920264
-0.03642743352309094
0.047425817861195256
0.26045291538558146
0.10877926711236921
-0.03502143825331673
0.046107926434267435
0.09324493839615682
0.010037979291006997
-0.029236607620974825
-0.03139932960206612
-0.025570975090240287
-0.04675371136304075
-0.055129265781177515
-0.01871926716048368
-0.027063051855544758
-0.027306876444934746
0.02859510059113039
-0.011861398122796643
-0.050232202207583676
-0.07540749156813842
-0.008365129965789727
-0.02170025377002194
0.034703361775242886
0.031745230422124196
-0.028413688639037062
0.011149198604177702
-0.032270676419820246
-0.012707191684410792
-0.017711024984424912
0.02294646832915472
-0.02542576577922231
-0.04363021949895084
0.028587663599548653
0.04240580952685179
-0.0064750572704196175
-0.017991737957159165
0.01817187930818482
0.016773474124687562
-0.01732602709661536
-0.0003466766139774886
0.021870215177860444
0.007814508180620539
-0.08138393207105138
-0.09744006110930925
-0.03209665500925248
0.04155948869293705
-0.002190932144069138
0.021054293213014823
0.007952971852965852
-0.036776682587916505
-0.016633213557681374
-0.029668155681763928
-0.026717557571016938
0.029303196612975767
0.019544128957435056
0.019109668761007715
0.0020419560563174014
-0.03049842500897387
0.004999276855862801
0.009786637281888768
0.011002237650000279
-0.011736324753775538
-0.026938988723414232
0.031948647640142325
0.029784816959818477
-0.018773125523301192
0.03549817881691374
0.0387820061966022
0.006599556115820422
-0.02120352998778202
-0.01605859171795748
-0.02116872405758929
0.021435041606193677
-0.02738693900872904
-0.010830102741480406
0.02464887979028756
0.010670982331737414
0.028317477722682047
0.008561851597086017
0.0141776804241479
-0.003935298429581204
0.014391303945820036
0.017905796763583993
-0.002872738828358658
0.04255478328971782
0.014818253703791744
-0.008045512766430795
-0.026659122416827136
-0.006092556748945257
0.0055410940064422485
-0.005170631031245388
-0.11850503436422749
-0.029202430077265668
0.049666011698073644
0.022504697618175164
0.015435510883114387
0.00960048227558196
0.03877628726169214
0.009979799124945695
0.03854567794080687
-0.037041757026806836
-0.0191056225366697
0.012952960875418739
0.002510134374682177
0.013637029606271747
0.0051538183919643
-0.027245571439358036
-0.003987479698679
0.024907354861472702
-0.03443857611354666
-0.032592524250895864
0.05316759397744158
-0.005023570077950174
-0.0031122050746697624
-0.02899079335511885
0.06821926583034484
0.037353966844454946
0.032351335240941435
-0.12704385488547223
-0.08441678485833264
0.04754822925523938
0.03390821749543748
0.016288571995612216
-0.0045752809183992665
-0.027534682961229504
-0.000911548660196665
-0.011664911181145632
0.019978535433454358
0.015696664239117582
-0.000508859775189219
-0.022785612149789643
0.012510684327425836
-0.0027917310205424783
0.007812721812009853
-0.12863049774232344
-0.08686551397770517
0.10856991649320488
0.08082970293370313
-0.008360429184352713
-0.15895279113583544
-0.03516200818976542
-0.027008878157943412
-0.023494048580873658
-0.0075668311207808025
-0.018879137900750628
-0.010914697513477756
0.016818416514950908
-0.013322890490649119
0.13110447892149382
0.07929429689725977
-0.0677510762729891
0.08822673010034197
0.22371111307730485
-0.0006122092056904308
-0.01834024356004413
0.0005322366563847152
0.0024060003489479675
-0.021046725884916562
-0.0008610517889721088
0.012189900702959762
0.006581369890844064
0.010751958536624627
-0.049818196843773414
-0.017456125896152433
-0.06890059702055008
-0.005271467546405673
-0.017192551014924007
0.002508929654674822
-0.015936467490969525
-0.007848432304376908
0.174542847149326
0.032248265971679464
-0.04315761683578254
0.013120885465486214
0.025546138733169365
-0.003897820647026275
0.010713851520995802
0.006078292886656477
-0.03853756241348268
0.022846376149962634
0.02223897196197134
0.015098852676655993
-0.034265678891532696
-0.05919284442070006
-0.01215241393287819
-0.0033394995145479374
-0.020196855281732876
-0.016225545808134973
-0.010439488734944234
0.0067438272853622885
-0.24710604754151344
-0.046076911048149566
0.0243216660285436
-0.013268625476302734
-0.006576146075597196
0.04202015692779662
-0.08762690542099505
-0.04426480699030145
-0.004665503943875719
0.0954859534614624
0.12079618614618577
0.06473668157748594
-0.020550563631228296
-0.019212109254253092
0.006850416033302509
0.01044693775520286
0.007778673866455888
-0.008620867632464469
-0.01788170743247356
0.026554695645173987
0.020656394253664556
0.00553463528795465
-0.0008880014486383709
0.05924680344898393
0.08585689022611422
-0.017873201405653738
-0.02838942576435159
-0.11008022728988516
-0.02320391906269203
-0.028686570960227777
0.09052874193897953
0.04820766519656649
-0.02994620466231363
-0.09388102373967531
-0.0034142469629619707
0.009919483754762586
0.011981936021294435
-0.053892352353803796
-0.06519989667006144
0.09936878201152541
0.20244406774977264
-0.02112545006481991
-0.04096181739066863
0.05429419420078897
0.012624953031387536
-0.02855031773628762
0.017194870651554024
-0.017202924194395983
0.013512527093188436
0.041325939701596905
-0.039976676992160745
-0.004474084676971488
0.004358190960663137
-0.01707251198541746
-0.00425723108756323
-0.029077685044127752
0.026020910805543706
0.04971722462168214
-0.03173038072831303
-0.030532540871260807
-0.021275350333550543
-0.021253075524254074
-0.027252558818474645
-0.030424470196380612
-0.010696683007670123
-0.004365435545209563
-0.006827069071643624
-0.005075891706091864
0.011876827079229614
0.010064451309892412
-0.03251748841776323
0.034642392989658294
0.04004299539449535
-0.024702933834395025
0.03412513049379489
0.099015105505274
0.011520951664701804
-0.0028557768638144063
-0.07254654424002065
0.04497681775910621
0.09808838230409654
-0.01092548893331405
-0.00231602376066774
-0.24092466300689866
-0.08204235358782987
0.11334356712875653
0.07418758524543183
0.023437779487888173
0.0893227809217181
0.02998665487408637
-0.19213122714029315
-0.21246669251983244
0.068689559743021
0.021772422498131615
0.02022106645660619
-0.07166910533788663
-0.03293376749637079
0.028699560668746828
0.10046380948099595
0.06597180777377276
-0.07298957864964035
-0.14323753508104997
0.02627074125999
-0.0015428574788164213
-0.005147615494011533
0.015104329838411179
-0.009858668652393203
-0.028048749422440303
0.07586198359143509
-0.00935075077743219
0.20851554905777334
0.038041700691034776
-0.007174198085106586
0.014291297484504528
0.010440854493609155
0.002107713135964908
0.002992948113656164
0.026085390849827524
-0.0034395526063485046
0.0013511170966637289
0.013992317658181961
-0.03274935405783791
-0.02414207328064411
-0.002658062860225732
0.004076037048234106
-0.004841576823522204
0.00423229551981707
-0.03473573975053943
-0.040583048943186074
-0.00961884362188556
0.0025195282015028535
-0.006020904441878897
-0.006429794172761468
0.01692177387783083
-0.014102628512597267
-0.00496244238068264
-0.028539851263029863
-0.0005791010844845014
-0.006032823774496195
0.021767623343718553
0.005873874522146275
0.04038364743652375
0.016869749806334336
0.03348301222184698
-0.04976059206580123
0.1399054799402701
0.007418770335851395
-0.1437661713396718
0.029224058556749016
-0.020837578759710373
0.0037561360156499425
-0.008185500805736408
0.10578128817749775
-0.02461882901449348
-0.014476872660537083
0.010666434452783357
0.01660579565324447
0.014457647497711513
-0.0410552766145712
-0.07325263105919647
0.08244020668635405
-0.019702072205886045
-0.015911586930212957
-0.06437407618533114
-0.004164907819738004
-0.040787071301689855
-0.02859609592761508
-0.03942677941696626
-0.012507372239288574
-0.10916329645115196
-0.03712639940787803
-0.00011122201863430296
0.051750216009689876
0.04161830313649933
-0.030397976012995605
-0.024231712792090715
0.0066173209853012446
-0.10831287037417062
-0.04516989281600011
-0.013157650262986965
-0.06250141482670879
-0.011710080534066898
0.08659789323250669
0.39726942072871635
0.12116537247545026
-0.009585148350486294
-0.12528807691369698
-0.10175792990614084
0.014168529301810997
-0.02377783406537915
0.14804103737547314
0.05780097809449922
0.035416930241092597
-0.002238462591235595
-0.00340617211451152
-0.0572127685860866
-0.0016851592998789679
0.03316220929534207
0.04925993571866136
-0.008947380367687503
-0.015798419697278344
-0.011938589208967124
0.0007492116035634642
-0.030643417120918646
-0.01231389841247077
0.0022934756154663677
-0.02360496476743045
-0.050125684211772256
0.03223048746429075
0.005472671241117554
-0.010067914565343377
-0.056768658640822985
0.018057398704483744
0.0996737626765649
0.007895007605987273
-0.038195002172745546
-0.019850944533148576
-0.04263487187644548
0.05321297451268603
-0.06617493926927978
0.07776095249051032
0.030069447865286855
-0.12181702922755072
0.06143526519586973
0.008465526447028334
-0.0736389572622148
-0.012779531143740397
-0.04845084576420319
0.034511265766139665
0.030485041399062083
-0.07841614250324765
-0.05449855100451895
0.09959694303073907
0.17400852522172197
0.003152073895467176
-0.011840081854856452
-0.0252789652167375
-0.015151701078537593
-0.005963966986451726
0.04823802566487383
0.003938229980591053
0.05243072650406993
0.0002981882272152205
-0.032562053680823745
-0.0402312862852238
-0.003157228946418553
-0.005011582032507822
-0.005376635699936719
0.01646266328665298
0.012937631978948856
-0.02204142416820773
-0.021086972791326958
-0.016866190072446868
-0.00661637499253957
0.02464068812420428
0.0094544289087302
-0.05955022253588523
-0.043964734526579216
0.013383626476494086
-0.021698134570674158
0.004366293127593228
-0.03484958171043209
-0.017966582808263278
-0.05620288373963788
0.0011633230000016002
-0.0036335647056258275
-0.01946544827856309
-0.043516007353311924
-0.010199726739741522
0.0008438710675115147
-0.03293926341468957
0.01555820457679142
-0.03945648327196345
-0.005706844293958295
0.034352074605036774
0.0011067058903133848
0.016890414872959177
-0.006986122886475076
-0.011212803599183184
-0.0011804493655389388
-0.0395830466996451
0.20607551962310358
0.0898722666974506
0.03168724986762018
0.042721450174801
-0.012500422643133058
0.028468586107736806
-0.03451010614056549
0.029839801300092075
0.21066073049912293
0.014202201003304764
-0.015562131634133761
-0.03987751013808742
-0.047911477365462994
-0.050348026775211455
-0.02245039439571864
0.010307554796923463
-0.019130730222897633
-0.021742374488618585
0.028924400359331612
0.04385025888528868
-0.11469271422186628
-0.09975475041434262
-0.034235505178741917
0.022294490504496906
0.03494469126334595
-0.0028884069685924415
0.008162771229561007
-0.01018562039626857
0.006209572774815229
0.02487748770495767
0.008635149439334106
-0.008374969171823683
-0.014402711381901372
0.005336054919049337
0.03428671972388806
-0.027132977542730405
-0.019774636802354133
-0.04726459088207575
-0.031558452617826194
0.0348929225164295
-0.017959319672275393
0.04629362166364672
-0.021447432168022175
-0.01564007522519667
0.009433625606558567
-0.007540524795387553
-0.020648012225664866
0.06040295248554619
0.022936039522777927
-0.018214013357128873
0.005274450440137563
0.03100172635145514
-0.017347770140083315
-0.013090792465321861
0.06796151480667333
0.06187135884192262
-0.014000036063726316
-0.035636037418906925
-0.062452525347999104
-0.014688858196893381
-0.003250429609807428
-0.017926675436375092
0.007324250558349876
-0.0033650534975191264
0.0007899377615192193
-0.09541116713691593
-0.05348885488073561
0.06692014279783959
-0.01621192475750509
0.0558988116764686
0.09430080316601605
-0.013093473637446994
-0.1809690898405497
-0.03760052172537264
0.022826125642537772
0.03021313776185573
0.008250394991440797
0.06660316692048797
0.15223534332997685
-0.10953236665102598
-0.015545660673319715
0.06448593075328976
0.022093110656357738
0.02160702974114211
0.02616047970580935
-0.020811223822548332
0.04552482580485101
0.031567565371214044
-0.03351964484237227
-0.012153450626978628
0.014781484586503664
-0.0066565819682812685
0.0013370976507455499
-0.0059403843369011935
-0.04139860064466265
-0.014904516612830475
-0.032645620883272296
-0.02159776700758506
0.03251494392970662
-0.16713101759489016
-0.15067837290463512
0.003686068013526154
-0.008151629562620657
0.005908915506697621
-0.007562274525768435
0.06014568590461483
0.046209348691570805
-0.006274627707566815
-0.02146487742796212
0.04855661323724123
0.07288918234826518
0.022041141637985533
0.06054243913467106
-0.08137017743584767
-0.05270618750694111
0.020553926825888687
-0.0011132042262395078
-0.028192784589425673
0.02064302355414414
0.09923916691582425
0.002033506378356137
-0.06610430886258922
0.1079889035217784
0.19682030447564522
-0.06634749448474844
0.010729802010597816
-0.015456835678640939
0.017617951919492277
-0.05212844134242373
0.048641079047417754
0.0927021611547574
-0.014074365876378428
0.0010611936813252308
0.020118334668896145
0.008184834780452378
0.02875212724206419
-0.027107258499752263
0.06877461446585738
0.009721335312635734
0.007546439819056259
0.011481108345733947
-0.002248313256449282
-0.04360988534550186
-0.1035510615229663
-0.02489902012227199
-0.08946998015241318
-0.013599175026961795
0.03303893451839755
-0.02416197808449167
-0.06331382828274158
-0.006458242393663283
-0.007182627904994279
-0.01914387721976948
-0.011054243993678749
-0.016205882719790572
0.014956175930794966
-0.17906823290050966
-0.06798910808922846
0.05395688399421678
-0.03266893753611842
0.022569581165442863
-0.008339703206692991
0.04281030342135187
-0.003942506287193387
0.03544558324474931
0.032832028422834024
0.002146361969720808
0.008622469614100388
-0.008099711877460438
-0.007936833192178925
-0.020591594383049555
0.005526847840828442
-0.017715231668386774
0.02143012711950705
0.015567211622820508
-0.019061897467383914
0.008263571175605033
0.03976750232365412
0.03999929582147799
-0.044742156418630115
-0.0017086434688063765
0.008702731068521518
-0.019820662057676075
0.0027652911097151363
-0.014894240801683063
-0.01199415222895457
0.07077533906791335
-0.006498165265950827
0.011871795732157018
-0.0016114026358112783
0.018908882313728677
-0.015762031020373404
-0.002492959673244743
-0.005396339689011625
-0.002537334770627817
0.051270125288212294
0.166330677081018
-0.19415436606432956
0.0516763800964301
0.21107584080374056
-0.04466805850356843
0.03590632985545074
0.0033038778209305707
-0.0943429753043153
-0.1113298771913828
-0.008273202300646694
-0.03736060431459386
0.01714256487495124
-0.017532305019705468
0.012163126559388648
-0.047026330264778274
0.0075809209234878865
0.004642617332386037
0.11016725062191472
-0.03645784893125269
0.03152898659458766
0.03938953636105535
-0.008976202756442701
-0.002539322407885505
0.005657617360367824
-0.005206873308296279
-0.00373376398794989
-0.03260428918696503
-0.013377389585003726
-0.05056929300558182
0.0655506147984402
0.07631699647119432
-0.02090049860236452
0.014179213713070233
0.08063591055391252
0.012008315906817344
-0.04757917952981724
0.0008827887075672436
-0.0033816312360945124
-0.042976755679936494
-0.03299220149622883
0.020515192510420874
0.024715251571040837
-0.021068852449380178
-0.060328996567002365
-0.011121562835181472
0.023424006552808744
-0.007313069051659525
-0.07187707969849942
-0.0657694405150358
-0.005171365022300761
0.013937829102708162
-0.0037476138521280187
-0.046699308865966835
0.014977669402791235
-0.035541604917190606
-0.018898758650221222
-0.01269749220231545
0.026477846582656825
0.037111783395037984
-0.020036274494931415
0.010628895628445168
0.009221193972786042
-0.026998594369748812
0.047786063777653015
0.01860735916592718
0.0033428881146308027
0.04287337604035669
-0.0031201305907001074
-0.008937296338904986
0.03342447857028177
0.0031147815200645436
0.014049003514578603
-0.01298157652989455
0.06501358527689545
0.04637900039457895
-0.052973661541547916
0.016661128332658162
0.014124880327066217
0.0005826699108785642
-0.025636188983420932
-0.02101423758213693
-0.018271619400673643
0.02748189946403844
0.08251565466669065
0.02633496958610922
-0.03594612702493635
0.0004941052104024897
-0.007409788252072316
-0.014061319154173073
-0.029833382178777672
0.002930561207450241
-0.034702815448738475
-0.08517746639670389
0.006858641994729344
0.02437319145547136
-0.02843687978818046
-0.02342592834102389
-0.014549594449004104
0.008136884250689574
0.005664086194851998
-0.0365692566365445
-0.04386809795145749
-0.03126191053446502
-0.03660362051936463
0.009701910317959776
0.03599330526094794
0.04774170644874291
7.57416219793408e-05
0.012316419171192947
-0.024251293211661532
0.01677694435494046
0.049967455211041276
0.032856607193996995
0.004135374174884181
-0.06481792617753841
0.19071647735156522
0.050414083963705766
-0.011672743686773544
0.01820279271332076
-0.03676619636795233
0.002136027550966027
-0.011167983772498266
-0.06252192849788003
-0.03254219631401667
0.008830622720557058
-0.027841246667945553
0.004676813522103664
-0.02152557339242665
-0.0073292923604330795
-0.01958746671201763
0.029388451267902304
-0.06524233516701661
0.07615585532645085
0.1049346033540204
-0.012647671729430465
0.01993115182440574
-0.01762656531558426
-0.03020686450610609
0.002482841631413398
-0.006577614158394791
0.0773717543889722
0.047071628234031535
0.040677280745548584
0.005674327108782821
0.006858627461068866
0.024191752455491478
-0.019170023981932596
-0.017904751431631217
0.004963942509836433
-0.047005624598025014
-0.038944355548361335
0.020025562386328508
0.05872733961564579
-0.027324768126566944
0.030685172966395287
-0.23864624769740284
-0.15237587433899355
0.04538029237141797
0.026214220636097154
-0.013587109090617975
-0.03304654174930108
0.005396887873532801
0.02402152463931956
0.01061886723262803
0.0008495721981978226
-0.0022236969907914505
0.0050251840026064145
0.016512877298801965
0.020875248154167296
0.011823119078823247
0.002979591314759746
0.036185596064969794
0.016504630199836404
0.041024637182295993
0.04870856913177018
0.017383489111569367
0.008172709286683948
0.002145353003304719
0.07025923952813642
-0.029868401167483488
-0.08868839238292359
0.02229687613806819
0.007358765566776564
0.043156013736777944
-0.05528122240517038
-0.042048716421503096
-0.003514302869614702
-0.004205306113987451
0.028118578511811848
0.0029237379124490595
0.07583487906848058
-0.019640414710469147
0.08654555716585645
-0.12095992756241476
-0.1005736066590325
0.009582433321140463
-0.07065309971497408
0.03160269999175012
-0.012456454367846401
0.013567506738186373
-0.0262921626053868
0.007553089745925961
-0.0380837011219659
-0.00010988655046835322
0.007205983167408118
-0.01812865972583761
-0.018691467855274816
-0.002623941319816935
0.004682611686350615
0.026666089486772966
-0.019175428480808426
-0.004611355035300741
-0.022045047849643225
0.019319113037737343
0.025661056103424878
0.052041381278782384
0.016759923239790316
-0.004401380504004734
-0.04534736619310933
-0.01640427165521481
-0.07485488224905533
-0.001365063276346712
0.09123420789483362
0.000970980901711445
-0.02324875539653341
-0.025588896560169598
-0.0011320418133692438
-0.051357512708914095
0.042927711040821465
0.10906251866873086
-0.018512201698541942
0.005726555985607635
0.014316659570135433
0.00823591073984664
-0.02394917892676312
0.01202660854141175
0.0010613924829883858
-0.0006419663966687683
-0.005031445313370242
0.002720013650242646
-0.03011882145587143
0.002965924386067157
0.006063384274087333
-0.002262046601758923
0.028024929485039297
0.13257318163357912
-0.018032934971390753
-0.010249840483605086
0.010503230330428983
-0.007919945663818033
-0.017148313545172073
-0.018534531215265892
-0.026606058133877546
0.0007078175967953309
0.02251852222223074
0.01557322659448082
-0.010264713170580158
0.0028773549154096005
0.03303439049766312
0.01775922418525896
0.01949422950769763
0.023765706852814348
-0.00023482172750906695
0.017358880311002408
-0.014559735271046054
-0.023434293218777942
-0.015923875304133354
0.012325497853878308
0.01355233967755355
-0.0005924217583081313
-0.035353909503197056
-0.0040443388377388555
-0.005623297816365339
-0.001583288807986403
0.12310516988603798
6.09345465185973e-05
0.003457777206019602
-0.019087415008243437
-0.052758306392982915
-0.02008663871874335
0.00925377461524143
0.037465647367811966
0.00693246572631575
0.01737637522883375
0.017315075271673707
-0.008529559679724685
-0.0254213623531561
-0.02344484435066424
0.007568558142803815
0.07087989446761894
0.004361298004926222
-0.28038504469474146
-0.046384032916127284
0.0024861350852375236
-0.00537227392084869
0.0028174216273729948
0.03181506443152789
0.018893862917483774
-0.006267558800834024
0.012228468683264465
0.0370759968263926
-0.008440535526402582
-0.0068918723288668516
-0.06536799087655286
-0.020205621391837455
0.02288368380207185
0.01225678051396343
0.0006046137295875024
-0.011469553514698186
0.004209492989826701
0.002038531901926459
-0.007068107721323223
-0.03049662741014283
-0.026682218129670483
0.00011282557226622367
0.013959623458762347
0.009608800349184066
0.008371320905240296
0.03304966119870982
0.0685193138420418
-0.07471848675262738
-0.01204293742675038
-0.008605219225001353
-0.04642143330983217
-0.0228310437057527
-0.003317780671815104
0.017213672007208216
-0.027372629034593535
0.016579096791506882
-0.01870642450194029
0.005555210667287738
-0.012293480274446537
0.00619001303307731
-0.003277497127126832
0.16416654767148853
0.033459302324421264
-0.03428052638184258
0.022192975703446787
-0.01942668859429527
-0.057974430561658234
0.08388746630581836
0.05149878646264785
-0.02569389054002976
-0.0023540941642774785
-0.009154651026990432
0.0052498337705058126
0.029313692710695716
0.010875376750714845
-0.007802571306917183
-0.014810429659177853
-0.019929439160704294
0.000946243910480964
0.030781520297368036
0.0034553022854897234
0.011943706198625977
0.04703053629953108
-0.019172157077115143
-0.016746277371344175
-0.010917848041967429
0.020252475175199378
0.009911028340587323
-0.058370108802130845
0.06899653798110575
0.07022605655549768
-0.0006525140062077017
0.03068518258704036
-0.04929893354285391
-0.05038925790699286
-0.0016171758772714124
0.014386641939172627
0.015556089901617295
-0.00018314090320904985
0.02338555726027404
0.017279961513688682
-0.0006358475356734822
-0.003955183206689913
-0.012355781872640494
0.015868088166589918
-0.010704045732839193
-0.029389475140433094
0.06125606000977868
0.03036823902732434
0.0016335589166363886
-0.018191238463840395
0.0027964546529331323
-0.20886082793536587
-0.12942557707671135
0.04984298740501501
-0.03493804624605682
-0.02467803316338643
-0.00915791518467295
-0.015031182922917066
-0.01709082696617747
0.02281530005045922
-0.022534561201008343
0.039157118303171125
-0.027223671896604778
-0.011959358093699407
-0.011974890359202121
0.02084829445779964
-0.020597846118527434
0.11728428857812902
0.10217277163301958
-0.024119689825865414
-0.006056113917113018
-0.04769634627281451
0.0008568851610252707
0.007542020354444011
-0.018291532515542764
0.0034306834006553088
-0.019357592937960258
0.026676979506043738
0.05467429831746119
0.02653284783859275
-0.006681257136872306
-0.004006955282035451
0.027422444120491704
-0.055733598845032796
-0.06210946167218
-0.02136782999729359
0.0915317301533422
0.0034752672966158285
0.006295405961010204
0.002216614899214654
-0.004616605103150557
-0.06202232311153233
-0.0447550983752907
0.04622898809689444
0.1356953350946012
0.0263663910227224
-0.02391433252619733
-0.006661566067652612
0.017908426616044897
0.006018379781062668
0.026447873871573283
-0.01426874563613037
0.0012619022247751237
0.007041579790841329
0.02561997523363425
-0.05434787364311957
0.008597074612034095
0.0072222132689391825
-0.008264835963837938
0.0061420949848717266
0.003397479637234734
0.010051766903247304
0.007588327018111817
-0.20079461703773713
-0.04273789536701617
0.009594028790646296
-0.027115336324604007
-0.11044068254800463
-0.07816267111245648
-0.0011251830425121942
0.018537013993566023
-0.009449549017401427
0.05326737002328786
0.05073767205643447
0.03291921707363773
-0.04092953423934721
0.10274705514316296
0.1118784298036198
-0.06266265765083441
0.01811430256741288
0.05826251978948119
-0.015387462733338223
0.013296222118497519
-0.03943393630223578
0.07527758153838167
0.14709127502391783
-0.0472275330920637
0.006581880870481149
-0.05030754827782581
-0.004055296951542532
-0.00996008327271281
-0.048150078207361155
-0.16174334049046754
0.004466103313402735
0.0028184938796719265
-0.011443132461419401
0.02448903336730182
-0.016544508924731867
-0.032369579885982824
0.010654313494746177
-0.007156182407212567
0.0009671792960678427
0.039690483291795406
0.020480595497239913
0.009071499542529643
-0.061987845735760626
0.1424067503063176
0.19362751853248772
-0.06154634887733126
-0.0038967360160151107
-0.03056526835146327
-0.013661714945000633
-0.02595572518308286
0.013670089116685552
-0.024912979776649746
0.043132634637585376
0.0010906040562163857
-0.01846740034446677
-0.005488966614675347
0.003574514015236341
-0.02496656370783783
-0.0020477687365779464
-0.016380469334261145
0.003880715060646681
-0.03337579100918667
-0.0026975097605056292
0.02295949682873862
0.03405550308309389
-0.028428111808805768
0.0356364382055324
0.014413437874234492
0.04658452676773259
0.01568196892328016
0.02085904483893036
-0.02794794840303684
0.00866402373785609
-0.016306268606513494
0.015609717074722518
-0.048784892470055366
0.11176059891944218
0.12876466584918964
0.013195455363371088
-0.0030607035723789274
0.020333710078970405
-0.05504538535817502
-0.014819483182269852
-0.05420263643095082
-0.23295682633859058
0.1394981434018207
0.03975765347983468
-0.09390097918638446
-0.19722864772311732
0.008833820837538425
0.0046025897485261445
0.0349676893111649
-0.002790718850081387
0.0006173322824423186
-0.05122444239690955
-0.019373751504078274
0.02709900377359591
0.023389131490940376
0.020257406061993444
0.02907036709254054
-0.050029937463257734
-0.01872016986307809
0.011485856356584678
-0.004375423543975248
-0.009941295826829635
0.011688584482482077
-0.0031649385198408387
-0.009023735580351973
0.012951900245477738
-0.055726543300681365
-0.0059466097791042805
0.008844388737640378
0.007069442985675843
-0.04845986376236023
-0.035914678770211254
0.030641839026651678
0.005112309733299238
-0.0010496238172322426
-0.0062289708987462
0.017487200913906296
0.09225302649956738
0.03392937711868739
0.024899545942758974
0.013137159826874363
0.01771299900700142
-0.026816436626894806
0.0056726494995474365
-0.03634930026482831
-0.06002132961861634
-0.0006642572068302128
-0.014303128761944159
0.009724838989717956
0.009760977001917994
0.0016279753961406104
0.11703271354810854
0.04396051579331268
-0.040901432333515654
-0.02224266498776274
0.04415808587215353
-0.010331480285007515
0.030405382976637294
-0.01626105343124917
0.010221859197017506
-0.004815900622428702
-0.018262936109880078
-0.026360762277855467
0.0068753898086845915
0.036864732574788416
0.0577166122347183
-0.025506438466365675
-0.012680649204484723
-0.0036419453256969587
-0.013008467291354842
-0.011164034709625348
0.021874558679878593
-0.010147215613983481
0.0022273897537219236
0.00256082750723561
-0.004138025038183765
0.00811967017448722
0.003050337850719911
-0.04883624875250242
0.008514045645080645
0.0187223263656445
0.058549257506909695
0.0405313952009402
-0.02141187611228803
-0.021838801214045245
0.0035370209945866627
0.022861210737292005
-0.00817749956824435
-0.03866402871406726
-0.013009660341382167
-0.004346181834557842
-0.03991814222059269
-0.04847647346560232
-0.017248221405759216
0.011158736906521124
-0.020166605173500694
-0.03876161130754496
0.0391029041789543
0.025804250322840443
-0.02749317932022265
0.013552731933980827
-0.038061010699087065
0.03899041829124112
0.16016285156854554
0.005240496922286084
0.01591694519951205
-0.0010368615225805457
-0.022603402337776288
-0.016956508419137456
0.0016686642709049036
-0.014855082975045723
0.0209009196908231
-0.00187376675936625
-0.011692661859747188
-0.025509419771114553
0.03599543055059291
0.0070871176991741305
-0.022433924947671793
-0.03834003885637607
-0.09972525574965992
-0.09532297964918408
0.06974062463615238
0.015563767699703268
0.02038420635684905
-0.01819084326773235
-0.013455068146160435
-0.022284065191913616
0.018875465063620242
-0.007855489715030752
-0.008820787789929622
-0.03767707517833335
0.029491415032082788
-0.031496064450134
0.016952379652267886
-0.23510324572365704
-0.01894523850099619
0.21977951385117322
0.02402450115191998
0.03426643220999845
-0.011933070571799502
0.004656631997659737
-0.009287616816327579
0.0027920409028068327
0.18769631745228632
0.02019167375040235
-0.035412368894459506
0.0031303922944458636
-0.023167747852520775
-0.027855614022541893
-0.016355714627621656
0.005609810947149978
-0.025450545057767254
