0
0.028816469459338193
0.08914851163677509
0.07478266340735054
0.0693002495536972
-0.0047504222892397925
0.07419803834599181
0.04325783062596771
-0.02332093193578761
0.006971598372760267
0.05076505064479209
0.05869562960238803
0.030923033922075616
0.033524067746024434
0.03378714022354426
0.054882700027807554
0.004627889233787723
0.037224495547762255
0.003052827610536488
0.11036041933150677
0.21771838577084687
-0.0450385180062819
-0.014589232135701471
0.052914096240356256
0.29977668728333157
0.020311108286722092
-0.06172156031861145
0.007205133474195966
-0.03226169170843304
0.016570723561279015
0.0015747440584358567
0.014046777252247419
-0.00423034296120252
-0.0037272259416251405
0.05075860304540817
0.04452972357273378
-0.02056074694182337
-0.024172573162780087
-0.018947564051367924
-0.009354068441380538
0.0006407355167093951
0.04996593918145941
-0.03655414426194823
-0.0015984698812721847
0.0033884851173280723
-0.0004129794372542292
0.013321972828181662
-0.06313741768644957
-0.10972995533306601
-0.0011428611525660143
-0.026362015786643288
-0.02775072046030353
-0.009492271759908077
0.002487139015711429
-0.0865838335141259
-0.01580310282130372
-0.04650665236201039
0.06614482830942792
0.08521361698190613
-0.044333950133105246
-0.04533911081317681
-0.024537353948407586
-0.0012828285323504794
-0.010351389610248138
-0.026479511120942406
-0.006267956269904299
0.008945217206482352
0.015011384661060688
0.018343001015274342
0.015802613499247668
0.0042182604775937126
-0.003069433646035265
-0.047999159115778206
-0.027763545526997748
-0.027140824073898725
-0.040176899696103024
-0.007003158983053158
0.007210853862099543
-0.03597085845737271
-0.0198346083648688
0.021437802578747875
-0.006687821318779041
0.02818529104956759
0.0076816578689560605
0.022912875976401667
0.014610476211604759
-0.004284518403545672
-0.030863565459340395
-0.026474724470952983
0.018539644922129235
-0.04076384166109324
0.010157587514793178
0.002776035375479288
0.08149471142734885
-0.043303372147044605
0.004792320139332015
-0.02719035281180374
-0.09261637838936074
-0.07051118134631361
-0.07338536219914675
0.03355328382306586
-0.02297560785101484
0.010083736746258842
0.026204982438375532
0.040716347440659814
-0.030653871405908476
-0.03679261089032074
0.00902017050519244
-0.030316123027583363
0.008495137132439906
0.060693739418635845
-0.014824991615163501
0.0460488706793061
-0.031691821417188626
0.020439195277946635
0.24785578894602853
-0.018567943323488937
-0.0033545069346428585
0.04718349028442017
0.010634329421696858
-0.011638648146079976
-0.01578392813719817
-0.007701111777409079
0.006638872268257809
0.042851792905800164
0.003003943564924104
-0.001749531574276698
-0.002787759923131678
-0.007108927487820121
-0.06622585222394277
-0.007563791881795503
-0.02436060614527333
-0.03561659096244572
-0.033112547663298186
0.0277610534849495
-0.032981638049282835
-0.026498395667055554
0.006685595737627935
0.010459631032410729
0.016079531115927692
-0.004004900089660529
-0.006971940985425432
-0.0032811753712720768
0.004479380953798068
-0.0455254818443116
0.019456616604211486
-0.014887632719704827
0.042523621014908156
0.12532922194043156
0.006478009756674983
-0.013495484341653983
-0.019577452360194175
0.03534305532714734
0.04443859395819661
-0.006556020553913568
-0.08496393054485409
-0.008575288655749354
-0.001424795077435014
0.0020334278186155052
-0.027828974968418928
-0.0016959820938488835
0.009574153656053417
0.018101105777411263
0.009307273868110392
0.004642739400407382
-0.0057251606002314895
0.016754566719814262
-0.02797434563917754
-0.01748182812149965
0.0031171386385038602
-0.0015246413820478339
0.0015187835279762973
0.020354654220055488
0.014196339490175153
0.01521827128829362
0.008707554133024181
-0.016309614922804527
0.010016943205422646
-0.005962014633017928
-0.045131299785539876
-0.02971181377855416
-0.04516949116614417
0.008391742213882105
0.001683968236844615
0.0063547950437663
0.019438806446995048
0.0011848284977262937
-0.001321590919786131
0.020363108197058458
0.019264488443816674
0.02516725471536191
0.02667172021123778
-0.03460645061566389
-0.023242205190279832
0.02078206454733727
0.019079302100144555
0.04494682049895627
-0.023156088245920387
-0.07500217410096088
-0.02426177230090848
0.0013378123812160213
-0.03393620161724238
-0.009798202888553015
0.029659369567477768
-0.005062674332281218
-0.021450259920036525
0.007442736677725729
-0.016374217068600132
-0.03815968992643427
0.039847739944437265
0.12352414526379626
0.037343953265856045
0.01630655905469557
0.0067540461289708285
0.028519447774221326
0.021592039207361507
-0.017975663752296433
0.03335686276571834
0.008637484851571564
-0.006333374364267019
-0.010669232765254572
-0.03951883734215181
-0.04097999505061793
-0.02256555190172954
-0.0497384502950158
-0.0024737191466959844
-0.0187595727907177
-0.005985255900620583
-0.03501811139086645
-0.06860159858073737
0.09920819173898279
-0.04113196584247649
0.01502890665303673
0.029162628965453453
0.010799354858678167
0.052869600475234306
-0.008260043696938944
-0.02409624179835177
0.023067542357013575
0.019335825462914735
-0.04604843050402585
-0.03692681032383408
-0.020086497597221552
0.031802041928719625
0.056413007373016424
0.03670622638666032
-0.021632707241491293
-0.007313222771817924
-0.012618215907735663
-0.009682256604973414
-0.0014627886174719907
-0.004092808724875392
-0.017758109850490193
-0.008858131935434214
0.01869042758928175
-0.01707580246986715
-0.0198721326603726
-0.0167811678552525
-0.09588883460505412
-0.02522340887829914
0.021568725627301957
0.018876685877805627
0.023511693756523875
0.014144267342730731
-0.029115698292290302
0.04669569687813922
0.013877176217241311
-0.012387198537548738
0.011331972698404925
-0.02840903000040099
-0.10026785989088763
0.13039780243919608
0.04039504380909264
0.027538436839059786
0.05048467076579592
-0.01712483737226633
0.005978495857151897
-0.0062451752634343615
0.006644833176682294
-0.003970106349151487
0.0001962644286255591
-0.011725659245971064
0.03242226443861785
0.04540095224206452
-0.028399777603327944
-0.016239895554899773
-0.0348982541530456
-0.037342757091718096
-0.007985253640609946
0.05943096708052518
0.031335254729105706
-0.0032001550967271568
0.011722281844393221
0.07603203159288899
0.06771990854012198
-0.007807006269521107
-0.08389249622184435
-0.01971797768050645
0.016686546112999093
-0.134045168784182
0.07277077574370566
0.09653297905292281
0.0031325258348339014
-0.016705602431087086
-0.012640047614916612
0.004184465426400708
0.010185100809708778
-0.03193523446649968
-0.05529797050311277
0.0055178645642690195
0.003926096995964178
-0.0011182287131890618
-0.0024512211808283384
-0.027763104317917876
-0.048982672122158046
-0.017477826502831775
0.03979153393774893
-0.08885665279224679
-0.04754864166745885
0.016305120764553455
0.009838226506738034
0.020723533141331234
0.0010733334892762778
0.0073832366905892555
-0.013272700770134063
-0.009731608339973474
-0.0072524558029028185
-0.014853411392854425
-0.03906206887244133
-0.023864008316121392
0.0035603507638451385
0.0011954342446611644
0.013500918981786902
0.031271001623558996
0.02896945170295747
-0.021003772781779326
-0.035206173012301514
-0.0034786459744090793
0.033551917390661365
0.04911797390607912
0.021069426543149736
0.010527663786960026
-0.011940648877741065
0.009605863765341793
-0.015585948961798666
-0.025999584901986856
0.020868187920832653
0.006852574507236109
-0.0163904216740437
0.005804392034156077
0.0948817031076215
0.004232760654205577
-0.006077561807049994
0.0006455710948046317
-0.0021051590616226203
-0.009824297719926049
0.09132312220611435
0.0464488304962298
-0.014539556018021524
0.023221151708869226
-0.012466859802086156
0.013224255376598168
-0.10531806505651814
-0.06915740085925885
0.03791316070931251
-0.024025929145664215
-0.03420888344921175
0.02496384839772368
0.03230833784105791
0.01169976023743225
-0.07329059194161372
-0.016843272282312322
-0.0602802304120201
-0.09740105695249511
-0.0035879935680385613
-0.00453654003918028
0.08881066375908214
0.06756146655577049
-0.018830863421338963
-0.00015179483765904257
-0.05796438088602657
-0.04970531539805865
-0.014478761647987733
0.00461685743636965
-0.08646262473885251
0.24835019333170508
0.1947839768347884
-0.052712168051847585
0.020925923907748
-0.03195955545588732
-0.0019015661019614809
0.014572176575389345
0.0363300643083939
-0.0022227950101907593
0.0371107626883747
-0.005499907111725457
0.0028929254646016915
0.013570101233624926
0.008459279299541964
-0.0036479599536226996
0.010076129888807272
-0.0026951886660278772
-0.013954553640208263
-0.0880804620940192
-0.047317571796149725
-0.012046302973221174
0.0010480489543322577
0.007609037376831094
0.015746369532032258
0.026314780968626328
0.0073484527487144725
0.001060673047046257
0.0035434642729285483
0.003987686528904755
0.018435697140025274
-0.005276817921189637
0.000938401842525571
-0.033590529277055546
-0.023068563960931633
-0.02297445251413686
0.003865046932912401
-0.07513599854237944
-0.02118694677288969
0.03022102880062777
0.0017875074177878944
-0.0014070464406768838
0.024241956974425202
0.021616183769629888
0.04055672508339572
0.0074885420609852645
0.020761577388948092
0.0037896226678422783
0.006589084786199998
-0.11727082461112368
-0.08532809541782208
0.05151486190309215
-0.05721233900809054
0.012696609411398847
0.02291414211261262
0.014107367861363256
-0.005360879184386337
0.005652088185900139
-0.006129275016619842
0.040071156038315986
-0.019622850381678325
0.005332384663245473
0.03695759990634431
0.03867547731936235
-0.009408443089889007
0.04310681807300994
-0.18466406615860606
-0.07569029038630264
0.10880817726909599
-0.00898457696654207
0.02712371464659725
0.005438935641480875
0.040436690030009624
0.0013548016223844796
0.029861288542543874
0.020950342818559724
0.013220507369311183
0.02987200433645276
-0.018781219834852547
0.03404677350048472
0.02465557524926614
0.026613544982661476
-0.01227592020184138
-0.013909037079448317
-0.013112635188574617
-0.20215641780409646
-0.012718065663435366
0.012146812483238815
-0.02595162966290546
-0.0027719311816446542
-0.010433417897371244
-0.030786703346783264
0.022669833092689638
0.16457116250489826
-0.09147198150039096
-0.08737970441251251
0.05229589899953879
-0.00015556956290395244
-0.016458595209729067
0.006144663047843099
-0.009917580223096053
-0.027286078835964
-0.015286181297977564
-0.025919020718893012
0.03704019757100283
-0.0033428804256243733
0.013118932571103043
0.014052885980049322
-0.013275387636935494
0.005693309885304235
0.01430300531528352
-0.0062853918051978905
0.0056097477611964704
-0.004110097710527349
-0.0021934244200148044
-0.0009066882231923823
0.028413368202967672
0.008211779929172623
0.13712363381442552
0.10292041541145487
-0.016848484932770663
-0.01933252434592214
-0.031245303264406356
0.029226634332510614
0.21299235694228447
0.014067370301085323
-0.03798077406638197
-0.08275674510725113
-0.04671620870883684
-0.034330337970605286
-0.036641609485463675
-0.0049446862112887515
-0.035589629567275356
0.011768828455513759
-0.07223002703850906
-0.08783083127668416
-5.277012952454268e-05
-0.024995262397731664
0.009772494010765588
0.008280801003641723
-0.0014870896823785237
0.011725835720150348
0.08712014986174248
0.0011627058174482577
0.016844880356657797
0.02471838525176003
0.01255832622035376
-0.0618498408935583
0.12382279602784013
0.10498718519085787
-0.021513005920165255
0.034984283546757665
-0.02689529394617108
0.01620910520784097
-0.019062060633805257
0.02078071909260404
0.04601976305753519
-0.002179738132041415
0.005842255139399514
-0.005685214870069076
0.03189469914298192
-0.009232156441026948
-0.03945362170620252
-0.027987743899956452
-0.002654651346094245
0.043867516439280246
-0.16292007622845753
-0.1127043383809173
0.038149045763456825
0.004357852737498047
0.01608989640524919
-0.05130736443345379
-0.09058242899190573
-0.02108257478798005
0.0026583712615883535
0.004984046427503965
-0.04493071356010406
-0.014267903732442539
0.003488878407525892
-0.09145012956650377
-0.022899150877060168
0.02383185839189327
-0.013723729780310417
-0.015651915646415108
0.01585310248809041
0.02370791439416169
-0.004057451071301766
0.01576553184840694
-0.016323853687060654
0.015435035726405049
-0.1260613703295628
-0.004650591136547117
0.11717669178535256
-0.0183132731230465
-0.01834601570934619
0.13706475663859144
0.0688450314333287
0.001131821488142426
0.017904158395203592
0.11438510012738097
0.08867494090677343
-0.046520868401910394
-0.006422485938833162
-0.023027369982903154
0.01810624171881121
0.035403200276917186
0.014518327737916923
-0.004613121910911923
-0.02059593753325739
-0.023638373132354992
-0.017457868076820825
0.04282862421676313
0.044126846193869244
-0.029486877599544412
-0.09051562320269647
-0.011398694345169064
0.014840763045523694
0.009796604191903384
0.009765564383016073
0.0005112948489881661
-0.02673224831060809
0.023052230291944066
0.0340445396434719
-0.022731888829318585
-0.02353064762000172
-0.01718023288699331
-0.028710627247329052
-0.061264741512085774
0.03273747844602811
0.11904072618781712
0.0069219375331314
0.013073308253773184
0.011521062359330071
0.01713219611897094
9.485194166469527e-05
-0.0031548821641885854
-0.011185333515135395
-0.08117007833883327
-0.0037797189759903194
-0.00045210210789981817
0.0022818581623499385
0.013574407061992514
0.004177462473695536
-0.02549648661731829
-0.018918840900866592
-0.026303526369788038
0.015609435519689125
-0.01106044507114208
-0.002544279894827409
-0.004758000995570465
-0.025489085296571953
-0.017802212348245864
-0.015802517271915745
0.0011760861496919908
0.026545035914495974
0.022572736819084976
0.022905779928645682
-0.0026157697685824507
0.048798389252136636
0.03874031243284433
0.027821809712693688
-0.048948967360361334
-0.03328736940763164
-0.029556407351078274
-0.027613791506623516
0.02115230421189217
0.030034741813485737
-0.002661490328993585
0.004233881044695029
-0.0751248713389332
-0.06321502784908099
0.01967346387407164
-0.023030821056756478
0.03838170233207551
0.013857574233752246
-0.010024465345501542
0.013403302334246487
0.019744198259976184
-0.0017186183498657905
-0.028663317342743036
0.01727477415122547
0.04142758560742656
-0.028495640027949562
-0.017959316536214614
-0.016419794618361322
-0.03308734643292561
-0.005878970056635841
0.00020448130278387
-0.01008353792440073
0.007533204017820435
0.06316027119795453
0.005480877138734921
-0.01580032860842378
-0.01954466679490641
-0.03267747840536027
0.20706911789715368
0.07758726626335317
-0.01428320702828675
0.00985198943494452
0.010861577680991228
0.011161342621754987
-0.19417680897955963
0.0007422316223740571
0.10058741669758908
0.0324928156179882
-0.04059462336644595
-0.016017723174858684
0.032793813425827524
-0.010852635235851303
-0.020379433795658947
-0.012953082623860107
-0.014513005651829914
-0.030470089628335136
0.007644552354077884
-0.0004715142661431061
0.017884207894370202
-0.03576336628541708
-0.09108745545285672
0.03557281362647457
0.0035531746519828823
0.007928498420322594
-0.017151453379380118
0.014416837837297105
-0.010454307981701116
-0.004994196445927481
-0.012533678451731324
-0.0016950109136376957
-0.001055684325010059
0.01722008752223857
-0.01347479161797467
-0.06979918405964469
0.05062509811274305
0.12691284307568498
-0.023874923293097466
-0.008227669858715246
-0.0005363494820967758
0.0038282473967907412
-0.035417706312559305
0.050146348969664696
0.03473268563614638
-0.0015489990219873934
-0.00992546495091473
0.03550491905371921
0.07293298557946827
-0.03560276398505346
-0.015276764807974533
0.05403963404325282
-0.007801993703035718
-0.0018288590260499371
-0.03633648824827708
0.013212548511266605
0.020298049310452024
0.00279064410830086
0.015616167844677151
-0.011375371321218795
-0.06598346984014432
0.006361479447754327
-0.05365439670008427
0.004915059934145845
-0.08205422165024974
0.02503884154854721
-0.021962239653267344
-0.00307642829442088
-0.018672494990885278
0.02370089377629568
0.014294030271650942
0.005332599935078958
-0.046748648771855424
-0.043935545787997646
-0.01266528897471941
0.011055859377136618
-0.004499841632694658
-0.014878352222447485
-0.02674491780238318
0.07148462280152511
0.04536661470004553
-0.0396116136229342
0.010115112151081112
-0.015535986895584171
-0.002888967433608988
-0.017212557181865804
-0.0027537655109941225
0.09877194315685422
-0.021031625985150716
-0.04336038902428055
0.03346193429518436
0.01972597767132895
-0.002324465814451325
0.018626808162905947
-0.025361906132144823
-0.021258964045864626
0.013736173686109139
-0.00035537566099203883
0.005580564435949675
0.006566094091564031
0.010112560764790767
-0.02582392959424084
-0.007293553705829693
0.03561580071899429
-0.07268748850337942
0.062600782004076
0.030894372115504363
-0.06835718731872108
0.008488039578652809
0.0027133557769055596
-0.017649308769217435
-0.002384227367626622
0.012522043070068422
0.011340305422319737
-0.029921208941937807
-0.030840194611167587
0.03183095446927758
0.02647742094360735
-0.0014751504657667441
0.013016071438018396
-0.008228991597099698
0.05679813439109884
0.05475877285196411
-0.021727787867855394
0.017182586681570366
0.007883994783321335
-0.030717237603865438
0.016654753620658495
0.08585623515822625
-0.005210873959791423
0.08418124854861346
0.04013906530484549
-0.009145399469207173
-0.0170178899010368
0.014782368532646622
0.025353932998964553
-0.014515205015715538
-0.16460609934942746
-0.040985787301785176
0.02537027882383013
0.015462188571168592
0.0059667874575313725
0.023435938971233118
-0.026954573023889265
-0.0031364074582600414
0.00445194925362813
0.00119146703690504
-0.014667090376857603
-0.05461696991698878
-0.10215995934457214
0.003912633940883235
0.027772249461967047
-0.013600975644721538
-0.02993888035532671
-0.028055762333720265
0.012335879943441362
0.0030668767523637386
0.08820051070253618
0.05740282076562473
-0.009900637919750504
-0.0025778489991385703
-0.0667608672933848
-0.038678655040913716
0.012893042894419268
-0.01890208614672993
-0.008044547323151728
-0.0029640195758459742
0.009363639711502239
0.019939010225258465
0.008557242928785016
-0.002571485590400294
0.062114977625738886
0.09601207343985861
-0.03714978439302385
0.019890091951428605
-0.11510379401888535
-0.013103079150021145
-0.00911007116535232
-0.012536850084599769
-0.016234250142248562
0.00020567668912203433
-0.046649099901915125
-0.017857459436346063
0.05375873246716816
-0.0382790881276341
0.03674154154499549
0.0033655510612410774
0.11728908646977594
-0.025716198267757104
-0.024342604709645808
-0.00631361088766593
0.003427536602134483
-0.01595197332349566
0.03284092724272389
-0.0707316008223151
-0.1695728711797861
0.05175836173573723
-0.002047329553314648
-0.020020637276321415
-0.003121933949548591
0.16467252998691706
0.004786734402400281
-0.026933037399490652
0.013007655605586893
-0.022071009443791006
-0.007588231794885801
0.031802114965786304
-0.03280571510134753
0.049603538716831375
0.12366822933168371
0.019613209888160364
-0.009220098435607291
0.0007725096516738178
-0.023267684650924013
-0.021430821517431912
-0.024487599891247987
0.053479814933755206
-0.0004439557710590723
-0.015812832221927926
-0.013001047897881389
-0.019606069262058073
-0.024273780117345576
-0.028264849363066717
0.002562089237702375
0.008484616330864546
0.0215246816959486
0.08766421902566793
0.021898533513535646
-0.013035871400946555
0.0023923196740640337
-0.050063354468603126
0.014500992665541028
0.056882387213875306
-0.01929282981826004
-0.019428405985812705
0.019257540452127114
0.04677428332119274
0.04051001800806154
-0.00485691838464815
-0.030331898789778905
-0.005462265498074461
-0.0031714549452470666
0.021883063383836002
0.004751759532250635
-0.0404439027339404
-0.23044149508576406
-0.042352868349419946
0.05394929606843322
0.07262051504253102
-0.11570325339936793
0.014196971990400414
0.023833774111407382
0.03538513154032389
0.0020143457562504137
0.05819813267984587
-0.09855977394470146
-0.17268608561065268
0.01836907961263704
0.03768583637583307
0.03901667551959074
-0.004877124743764655
0.015456385610581169
0.10855022718975436
-0.0274459941698987
-0.04167701046515899
-0.011614965950015611
0.06905438673732667
0.04088395126737077
-0.0027491725725139198
0.033218986753306944
0.0032776347355671174
0.03987168291210925
-0.01922327437241672
-0.02381460741534947
0.04269653450770099
0.038685346997411864
-0.00667152492134541
0.0055234433880194484
-0.06052156326956368
0.02300201004775943
-0.02583779351275245
-0.023585394149895626
-0.03975840634896763
-0.01044765573465541
-0.013182434015037473
-0.040256148980425156
0.010643596934419405
0.007200118207116009
-0.02983851163675949
0.18349888492689612
0.0958559597133973
-0.024777019711503336
0.016564204441496016
0.0017657379273185074
0.020485982434048162
0.012551579201853106
-0.04366437980396897
-0.033158462142722
-0.01757497140473878
-0.06672306751217477
0.007508732294897905
-0.008843673831153474
0.02070411789866521
-0.016453295726324767
-0.0027512743533361058
0.003567242172493926
0.03824273637299223
-0.014449151002381705
-0.00896746552380326
-0.004309384050160319
0.022501439886447795
0.04360559342739912
0.01017512650209275
-0.007490367278976712
0.00614742619473479
0.015798009470048537
0.12914078672224152
-0.013040196405877323
-0.3153287614576203
-0.139360883145374
-0.009921925762199349
0.011353311318466642
0.021414133744593267
0.024767174403746116
-5.718960766388564e-05
-0.003999429006692185
-0.03810356796948887
0.054110919740687394
0.044631300398362335
-0.01174004681285719
0.027879033286627303
0.013720559523526374
0.022339267717780897
0.033200840191211715
0.007640259777584192
0.009470002777630987
-0.024453434809809438
-0.00017432247925986758
0.016287816733638768
-0.009372766671928368
-0.08111057038853879
-0.06311710659159908
-0.043138837326541786
0.044495954479104746
0.000655073356874514
-0.04875424346154596
0.002189886807324202
-0.037337266119598006
-0.007119042930820197
-0.026853731855436925
-0.019459849295287174
0.010508156885984882
0.0044529602650338175
-0.0021466185471884845
-0.00961855494725528
-0.054571599000842
0.09294788233150138
0.09545953342330632
0.0023279792416795457
0.024948879478514662
0.12335026817681663
0.02993028278491929
0.004217843345756441
-0.02952190948517547
0.026104013768004856
0.029762480802028753
-0.016868733604680046
-0.05441380186673333
0.07871230201753165
0.1517163990090157
-0.026351386522621582
-0.02981611887109761
-0.006403987625983833
0.01718837333033228
-0.02553863480740114
0.01991884178550231
-0.0018434436152633144
0.024522086033575294
0.002584782933561119
-0.0020289027302752586
-0.008339862086940415
-0.01708779552374556
-0.013750057006295332
-0.008304894203463555
-0.006878213228201827
-0.05643450390244377
0.09951214515398842
-0.032713477271788784
-0.02737155515569834
0.019331134375379883
0.0262126966102451
0.03661391325584758
0.016633284384081404
0.05340722578309025
-0.010498283947636676
-0.01159107615606321
-0.017976757205162966
0.04794352117043513
-0.011373522348733308
-0.0237269382980415
-0.03717898756529574
-0.013561886382987014
-0.06204292355284968
-0.03983745613746461
-0.006285252393126163
-0.0017113918155696474
-0.011575269902182049
-0.04455932099025025
0.06385527471460489
-0.10896342260294596
-0.28469792636979346
0.023192044562347334
0.02822254748824385
0.05082063235091135
0.028485199232541246
-0.0966767414315022
-0.08766378374498332
0.04722960152298868
0.0033275159785732906
-0.019369590570549062
-0.03640786800593702
0.03503403829718973
-0.0004868215766960981
0.030422978689322484
0.02941146857595602
0.10224987362863859
0.030783546022592638
0.013228169338360506
0.001679117855714621
0.11522037887838706
0.09667112039460958
0.03962495639071932
0.028653802628301542
-0.011262552234555193
0.007210922149948378
-0.014724693000568969
0.006954502521738078
0.0007624459180789766
0.049766690718324014
-0.0028008122234893574
0.003584090907691557
0.029340356748174305
0.0391717501815794
0.012959313393958047
-0.017487028554471363
-0.1894037168345172
-0.1106586343178501
0.03451366955228755
0.005007282613224413
0.004102013830381101
-0.016689215815091113
0.015179454846921087
0.04685158918041507
-0.011252238450492995
-0.037310267564313514
-0.18692194362865072
-0.050173117267229596
-0.04140757796126274
0.020939454081977824
0.004011566174821072
0.056373594976939174
0.03498286966744849
-0.002600635798229261
0.014536276695367473
0.009628071815988605
0.0663992809688693
0.010336088221384949
0.014945182424403765
0.011786730017584809
-0.020425034964180525
-0.021379809249507206
0.05081448150824744
-0.00308699469947731
-0.004153088738386997
0.009374672155898272
0.000648897639866998
0.04295591541445302
-0.05062955915544547
-0.09069103805261654
-0.0024146867766909282
-0.01099626779509632
0.024537308876170852
0.045853663285688344
-0.005896209688225743
0.0035868358632528646
0.016181982373559254
-0.001893952690602453
-0.002801673032152318
0.06507001775621525
0.10231448057402144
0.0038751819581364345
-0.010593191176438243
-0.018626154588374556
0.01158940837444861
0.046674630719944
0.0432044832997988
-0.015108962878639396
-0.01616542608734018
-0.03840729678208628
0.012956763825942439
-0.015112362042651976
0.0025389695889254256
-0.018679817331181556
-0.05559512026273044
0.008348938374155852
-0.02443799401855406
-0.02596331360304276
0.02937127752288369
0.010242481288445937
-0.028636059342723
-0.002659709552194159
-0.028499098131298136
-0.02620899567626174
0.007443876074395778
0.002952017314447123
-0.014229938806343453
-0.0013452081265759145
0.00591448169671568
-0.004110872991728988
-0.007753596641986353
0.0192740554420784
-0.03665031819115964
-0.0411101259461339
-0.007609163923764807
-0.032673690467198375
0.02178176259070952
-0.03600242152490737
0.03905349213662283
0.10586386163956434
0.06936258202684968
-0.0006372556659333552
-0.0013294924239138097
-0.011016043412283051
-0.05395802047498254
-0.022643771762129422
-0.021752469634565903
0.00740580601463588
0.0424367698730251
0.004658743663159998
-0.044099034481991005
0.10657086413174485
-0.0036331126669110966
-0.009953952852312197
0.036350171077970755
-0.031019520386723187
0.015099572720471563
-0.024833791837209764
-0.035214455682294976
0.035039355783267494
0.017544001277845243
0.016628224285501043
-0.04691951240736768
-0.11214009999736337
0.011182050214029337
-0.05208453371325503
0.02860191424124061
-0.007061496831142375
0.012272907278628694
-0.002504298658506146
0.004307552635523987
0.020605625306539286
0.019033708366263828
0.06227004209196073
0.024479755982535198
0.05023365689395981
0.03141809611030599
-0.03447675508007426
0.0378780872467877
-0.013771332963311267
0.015853977932469305
-0.004053305370768906
0.023038119260290976
-0.0036103281339113992
-0.014802278260532549
-0.025203831776732973
-0.002348349025374231
0.008969886795679905
0.0482534555828082
-0.039680668696066165
-0.04954653868203946
0.023695755433946197
0.00419759810384346
0.011529810159273825
0.024118953817992755
0.00016669161798818358
0.00022401833373034374
-0.009256318318493436
0.06021217969370411
-0.07921411650365755
-0.259533184943034
0.013214782847060647
0.007450645625328842
0.030973821717187367
0.0043250091765973785
-0.018138581087768973
0.03781179528567382
0.08597000753244662
-0.01750413392245604
0.01726315162044848
0.026030572528570214
0.012982951834253312
-0.0037453472388517214
0.009674447726430073
0.002138614966017444
-0.04552896966563797
0.017041550365446113
-0.016924792704477828
0.01467064178529416
0.012275840679483466
-0.0025985587008022196
-0.008177376977850764
0.0391703720981244
-0.03934419282878935
0.04929579746699208
-0.14703523007547392
-0.17772484167655372
0.005142017080147657
0.004475540643298258
0.022127167341080375
-0.007965646504204905
-0.04322163408515956
-0.006079498864722861
0.015840784208315483
0.03280997404755309
0.013277777754500578
-0.0013383986117731334
0.18149821980990224
0.07960314201384294
0.01188807395913794
0.028965373467669024
0.03173135645408046
0.006930664677348111
-0.009400075858120173
0.009099682923160202
0.014013764156590723
-0.006927410656314522
-0.02014679299174699
-0.01997692654521116
-0.010731350477148835
0.006210864274290084
-0.08495699011477637
-0.03230277829843273
0.02873627933707926
-0.02321112213009512
0.007722902725123132
0.015445722070815363
0.0003705944420025185
0.05878558248070536
0.010048775951645042
-0.03921835576135735
-0.013498621940686892
0.02844147893028396
0.015114110453246605
-0.002536826571627217
-0.02150451784242234
0.010930350550152597
-0.01573419195422273
0.016139790384375505
-0.11139948857512758
-0.10345172974310926
-0.006889127521439912
-0.01723268377817571
0.03540817818106367
-0.030568628875598445
0.13718639801173593
0.04420275421014384
0.011787939024341549
0.03446944961172901
0.06636582151923334
0.008383036798244333
-0.045047400997493665
-0.01306926548391189
-0.022149402543715797
0.012847221068526269
-0.0008424205125695999
0.005129896994766369
-0.009634030128796055
-0.008716405331038186
-0.02236659751997417
0.01613064672487478
-0.0024736135921651667
-0.005614118525805084
0.0193716472529655
-0.02834940820840678
-0.018922407290174616
-0.006183464668589478
0.0009798447216908788
-0.014070726228691582
-0.008297672401774073
0.003324956065040697
0.008078254265353456
0.035665215719279816
0.044118488857321975
-0.026264600072445316
0.051250376641468844
0.03503147503162975
0.006073320747391947
0.027869174789304983
0.012407968088124595
-0.024144924585518326
-0.09164194093792964
-0.021524637070368238
0.012372690736917547
0.015168959377198506
-0.003480123241619691
0.022296653294090103
-0.02835628939753184
-0.030046138300772397
0.022046917700974368
-0.030088342115390826
0.05755311086623858
-0.048694324781040514
-0.03566513655184449
-0.013077941979058132
0.0261279649871052
0.0112636530827618
-0.05708245375637171
-0.002623765703637123
0.019215032629236163
0.01848968911174775
-0.03812102963934264
-0.034081329622010374
-0.06784066469106606
0.01739627404390346
0.1086137045023867
0.017836212847348383
0.009437347900497422
0.10359841994226975
0.049283047790412524
-0.005603382719312926
0.022836885154020884
-0.029869208229908472
-0.03216315349799998
-0.001680883889653572
0.005663312823858477
-0.020135107539761176
0.11923965039167275
-0.12414928020050651
-0.16938167660656364
0.047953398033498525
-0.008993420257573428
-0.005504626983950467
-0.01085911912817444
0.03431245164479605
-0.026127547149245256
0.03520765570744959
-0.09459046343352581
-0.11604822170961118
0.01398516364917927
0.02837037702276598
-0.0374505377056245
0.03618351495085873
0.034484732367617066
0.1762002404588233
0.09077984228781362
-0.05183701674833108
-0.03309056005538596
-0.016115203956222658
-0.014221091237377706
-0.005262951468028993
0.036714622811934945
0.08565764049836197
-0.01212503615592766
-0.018561673882999494
0.012593201582314006
-0.009647364433144956
-0.036171363859315575
-0.004334815073743922
-0.009859129819115258
0.011788398135341271
0.002652465167744001
-0.004943967360358139
0.008131484222638107
-0.0400590461602152
0.003937582199845053
-0.00876125080200313
-0.014725743648664611
0.0061536227610717534
0.017545111771486387
0.03789591993881705
-0.006571792237842646
-0.024716951757365147
-0.057425767965690974
-0.03437936877459859
-0.0035691719371722004
-0.0029455746128593027
0.03769786713069021
-0.03572230826080626
-0.03497686685704168
-0.01002715102759571
0.007136332640679963
-0.019848046090848184
0.007310449312108285
0.012748131550953116
0.016360405281427175
0.02768513371015602
-0.0235568482376965
-0.008426016141458888
0.04180226651130391
0.006969330237390908
0.05501267742082361
0.010529386619682356
0.024940370511626356
-0.03436211511787032
0.028719113858076233
0.007056005119022638
0.02004842997792274
0.04887830471865297
-0.12369803442188475
0.09599184414262757
0.07458410981048294
-0.05090987339168207
-0.004795236339938758
-0.0021043329945710293
-0.004129266085644421
-0.16367214544280542
-0.015361487967313724
0.018945068787407086
-0.020770783832589
0.0029105825039357496
-0.023965916476275138
0.006693175691001846
