0
-0.04937718697128682
0.0340134538986651
-0.017910812312995263
-0.059983946840734874
0.02253143454741112
-0.02732094413224525
-0.02446994181948544
-0.05206461214391103
0.01670627808002791
-0.05957563387172035
-0.022143967741898304
0.05685315263994541
0.07112517132205326
0.010417727670824382
-0.043614580673899964
-0.030843097919224755
0.0010470356415000776
-0.011371154981679052
-0.011380652176193976
-0.024587739326541805
0.02300813203537826
0.010611095166068821
-0.0049502766591952825
-0.001849323793460175
-0.004112473190662844
-0.020840839656804794
0.00957429000795878
0.0027839339773077752
-0.0060379965634175135
0.005244728381754131
0.012219084881633225
-0.0078867442618502
0.01097140071559086
0.046428816691608435
0.10314371555690435
-0.006037215206143403
0.021076220828034044
-0.17479795489925187
-0.08497854928035033
-0.009774401444385935
0.014103100882645521
0.03144927668938485
-0.022301461963175877
-0.0599151358386869
0.022070529257162425
0.0483083224609066
0.0019957104398301115
0.007424420299994966
-0.003887463735099134
0.025890512728630764
0.020609946405452478
0.002379826917921282
0.0027361317084396417
0.0025950311468729953
0.043038193975804065
0.06047162070912967
-0.013182363475617102
-0.03476208498075503
-0.020561863848794684
0.03791666537127157
0.052392550370048294
0.017099132028290595
-0.0031727204025236823
0.03715701311272851
0.004233144030457249
0.020184524694163045
-0.016414073955575967
0.023630324163286427
-0.0521100541312518
0.020367820378893148
-0.16114513296442345
-0.14992216418480542
0.04357934695626629
-0.04905283781495342
0.027595447728274384
-0.00408565690178882
-0.0036596889381183694
-0.005144223596742931
-0.02044971293823899
0.0026451783897825398
-0.008183095103409952
-0.009465782084270702
0.00134399834044077
-0.010995924746629035
-0.002268250177067408
-0.02130685184982954
0.0532435769129362
0.010866689706175265
0.07069952435024912
0.04725457339855788
0.035314520703947735
0.008353867750840013
-0.02973657916582155
0.0078091537911139
-0.015534379476182362
-0.011639405831023145
0.062110813015050344
0.04098793079120832
0.009414643238770835
-0.012697590956896116
0.03967894951758401
0.006767651190801687
-0.00720874717364474
-0.016669335476291822
0.009622710412725406
0.004200736126089226
0.0015999567699544186
-0.02878420535945673
-0.007451225376981677
0.03168617762196696
0.005049809760696362
-0.020888050792979927
-0.006506580290620606
0.013280439695040365
0.0228271292966247
0.029116894637766077
-0.02397869612648428
0.004707144698482826
0.011425934050098804
-0.016730544095048674
0.005980331566941105
-0.005771671209090242
0.01853584753319564
-0.010440295671423
0.050885489568582104
-0.18972423852394535
-0.15832127828765702
-0.0018611576537383894
-0.004557557447478279
-0.003301261810319013
0.022309266148661112
0.10465496239086855
0.12363171653394364
-0.0003587207761127405
0.020494187656637554
0.002601061698998829
0.0043377266328295154
0.023248143957951564
0.03578092881220272
0.023161547669122144
-0.04677438087444606
-0.0058063948561589895
-0.008003745758586474
-0.007254210137784719
-0.014922435208330611
-0.07771735927760791
-0.004819744088603802
0.015424763884694445
0.0015526090849560092
-0.018669809049912847
0.011084996353901961
0.04304368129836999
-0.012934266548904996
-0.02513496591207872
-0.0351775107940485
-0.014739115037189426
0.017393237115469005
-0.03990358068539462
-0.09276182384224378
-0.08630778442125826
-0.0825075563286613
0.006248997063368457
-0.026210982197327655
0.02184613595509504
0.029927612549955695
0.03623902393967467
-0.003488126378298288
0.01463397207305784
0.010471216790863712
-0.008531467401244877
0.06942399905592535
0.07779651628874146
-0.06698028104926222
0.12751110924238548
0.0334603837877428
-0.009865800371712082
-0.05898285279760777
0.07943900536573605
-0.022059114914131556
0.09548480367624736
-0.01773448991395339
0.07236069290118717
0.06276467447308515
-0.037851914511792324
0.029750352160185425
0.04613154958703706
-0.05270241831956368
-0.04236567039651475
0.011082744044216442
-0.02299198249536861
0.0037190936001128714
-0.04608254132513001
0.014108112807923448
0.013919519180526117
-0.003425986034033094
0.06192878496521375
0.010040986456806837
-0.022751261200231427
-0.02237438337224231
0.016036438860154774
-0.02953022414632258
-0.06553708872261575
-0.02481821700130084
0.04074147067707216
0.006890345386368092
0.002454282356561842
-0.02086045258476971
-0.025870690278063872
0.0008037583707799792
-0.014958173863199628
0.03768691269792781
-0.05161688174446822
-0.04432900820391095
-0.00989161374168674
0.01240372063866247
0.029547610890758698
0.0051233417925228624
0.006616585681392133
-0.007037091568736505
-0.05248110719655119
-0.021741589075670097
0.004240003886869158
-0.053909822970100434
-0.055882114983688995
0.04701647450206847
0.00205061704454688
-0.02689039263437495
-0.07720829181553314
0.017596292103859115
0.04973694577417895
-0.016996091218364956
-0.0011446522200210826
-0.008798991763054109
-0.0060850065235097655
-0.04179719266185281
-0.0073387289577673325
-0.026804760890077692
0.0035652718007557877
-0.05761932019323908
0.1348004566849551
0.025515943020182393
0.0055379307972055845
0.0901435436799123
0.0717381081608084
0.0643260091415102
-0.03866366898283362
0.09850519680299262
0.01818236925657462
-0.05505883438994268
-0.004049194002955023
0.0003429709165844247
-0.03732427720952541
-0.026037661894145425
0.02304156568075093
-0.02141225560439353
0.010590343868467002
0.009255468281528562
-0.005189230799224699
0.02343794968480436
0.011904478792117569
-0.040389916716121375
-0.03282561101185536
0.0017270894436171792
0.003024148954764167
0.02112547773213516
0.015154717983223284
0.05126403522948257
0.1110542138367605
0.018842305583649556
-0.03524488210075512
-0.02596407947079038
-0.0042836979349969145
-0.01271575141121693
-0.006094543721649374
-0.0007053409284969766
-0.012686867711885812
0.0023750123366179407
-0.0017880736505244154
-0.023118512969142677
-0.008651326835371457
-0.05595358780035539
-0.060399772862633525
0.003415115653830056
-0.014256166689312734
0.001485988245618738
0.05015502105109568
-0.021166229240671245
0.000946978529832588
-0.01814798098882405
0.008874997118689875
-0.0031579722284188153
-0.006769924895229111
0.011752287328859672
-0.05787580241879339
0.019806430015119808
0.06978573223515629
0.009043994290890969
-0.017054393915007984
-0.02837267161802734
-0.010738674758699374
-0.012723023457439043
0.0010711101213886592
-0.012053059634926904
0.006567502011895406
0.010251320188050786
-0.02805089104167588
-0.06219569659926593
-0.028132168360783374
-0.010201058965958253
0.014244764059077172
0.010342435563463528
0.02692527302578007
-0.019098995699641335
0.015405623736543212
0.052809130957760554
0.007400024143785207
0.010942413035823524
-0.037331035741383835
-0.03145198631114235
0.0011837681269403217
0.029403834169315458
0.0028399253204489596
0.025376039973449654
0.008428156336352337
0.023556527397264805
0.039941977240527865
0.01706648592499112
-0.02871517104852739
0.02766908975035974
0.005647874343759285
-0.024549177426251696
-0.010917119617026948
-0.027453985186770488
-0.03869985859189236
0.04353956933846594
0.07949869952012321
-0.03125284825097788
-0.02648051793870852
-0.028372046271822847
-0.017641607905919447
0.004012620460738788
0.003943191345840766
-0.04581376628489605
0.14910714706435874
0.0385005409202153
-0.02279161463568691
-0.000387491772343644
-0.03412434523634058
-0.024304699825827406
0.0035974272237031123
0.012112921962865005
0.11221141495575032
0.025885153940019535
0.0034883707144680513
-0.007152224390176913
-0.05097423437529682
0.014042392592424882
0.003403878954357165
0.024136154674873303
-0.047576312334675915
-0.050383652543758185
-0.04568278882320004
0.028047204031242296
0.030540194506429034
0.0046223042226546515
-0.03496004309329482
-0.0535569705973495
0.011789413859138233
-0.04425252923429708
-0.05114239426053825
0.0008090852672547037
-0.023606711289349373
-0.06349461657364727
-0.031149234962543893
-0.009184476081358334
-0.03928508766127575
0.022750604713601175
-0.0022032145651305676
0.09617064313810932
0.03509558300742352
-0.015168933028116578
0.011308524149103563
0.02570486872117049
-6.49342087238141e-05
-0.013724783357933023
0.0026125858481910453
-0.04443224201947969
-0.02500451800344153
-0.010024882919899933
-0.02356934461128195
0.020416868533337892
0.011634309189439808
0.004389823329092321
-0.058570693547034036
-0.0025712762707671977
-0.02343537188554593
0.06066915219985402
0.16398151721553433
-0.0012598256049300403
0.009751404470424538
0.037497078588924225
-0.037942612823387095
-0.033575314870018295
0.03458166773843771
-0.028359450588189502
0.0300562328539602
-0.00941459953418536
-0.005384571278517634
0.02301666196813508
0.05851084742012545
0.195770769408977
-0.00038014096373680743
-0.0245698176068514
0.0008156016761762067
-0.0044601911760737325
-0.0454937023323734
0.08014417704696647
0.04062133034938289
-0.13836309563912366
-0.061626973688706656
0.05262137400211943
0.04074951586345327
-0.017724137171935342
-0.023926989755050403
-0.015388674354731135
0.0005985054253003027
-0.012289844000246028
-0.01199893094556908
-0.09362316460179969
-0.0320692960556504
-0.04302620717365084
-0.010415609595404097
0.08549527719721842
-0.011718843782830635
0.009381874436134755
-0.015588249453023253
-0.0366873157177602
0.010851808769597229
0.010589100906060439
0.08579781392656496
0.05480008431328772
0.005596513584496232
0.030587693811044443
0.05666747706171371
0.00918721461163988
0.016873429124303528
-0.05570217604751531
-0.232068966522047
0.008224200313055171
0.025268637258911226
-0.0204346798138268
0.029595403970743787
-0.1555573412649556
-0.029052185532830104
0.026504423940238338
0.051258411220346335
0.0050605330760721025
-0.005101520114855402
0.02309368181147548
0.04013969358465812
-0.0005918225464696229
0.02485438058643293
-0.12142330150541565
-0.13801134539911805
0.1135028998257091
0.00966355357817518
0.05312224664421202
-0.012830465048547972
0.014767292627449375
0.01859398503903779
-0.006098408639934123
-0.10158968950532966
0.03777114575975761
-0.017357054147396758
-0.026238768795317228
-0.016833696976590814
0.01108040201558372
0.006788421890032431
0.02886124316304116
0.022244121655118586
0.022494467087193284
0.022373013748755992
0.023207630612054837
0.027891350639435705
-0.0062176453750033694
-0.0037737225537259845
0.005101932712651289
-0.022411212003126617
0.02121364197454441
0.09309395078081296
0.0239330472120357
0.011968941770516852
0.03640848144624845
0.0003472470613450494
0.010955940376184145
-0.0012211319388710524
0.0021294905023638002
-0.037605375550132505
0.02646066072708624
-0.07520402377391851
0.02126369905045541
0.07658399279270142
-0.026671042698228075
-0.00038890741187301824
-0.00493765736888593
0.010030971831073843
0.008145000250542229
0.025376379212646915
0.00919145248118319
-0.043195493710573546
-0.012823696301929586
0.007323715387129238
-0.02992594111608731
-0.01590227786993492
-0.009086559371953939
-0.020238059331416838
0.013353974448185497
-0.0007760721762220185
0.02183288275855171
0.02380686329166602
-0.08344668957147497
-0.028522687424442347
-0.058047268865734504
-0.045306243182476225
-0.02939904050598392
0.0023697495881207114
0.0039035634603846185
-0.009354008077438136
-0.007472944837910892
-0.02306282761804187
-0.01822528730734929
-0.01290320187055143
0.0028253986635605266
-0.0058691991897742895
0.026144743229451383
0.024156007998385395
-0.009478040374014745
-0.1080459891533092
-0.03213383555792408
-0.019135980350036705
-0.025257798863084716
2.8108934237457346e-05
0.11409242532105508
0.18331313024372248
-0.033682708742438595
0.0847415534646819
0.06823775083470371
-0.02351706030445593
0.008581231835105
-0.020917444182378217
-0.04567249075016607
-0.010863045043412716
-0.016070060399350095
0.03082716123379245
0.00733606934092978
-0.060008534181663076
-0.01601501031464872
-0.00921024055072915
-0.05429751938903898
0.11714610954657782
0.11713086469959517
-0.023350475512196385
-0.0024552448183699505
-0.04595505010610358
-0.05081708370195934
0.1465854660661015
0.09575453010115102
-0.0877309644287875
0.003717481141809842
-0.12602981902259086
0.047408958333049825
0.061089134298956946
-0.017140179962545157
-0.024192903642175995
0.0020641876698987553
-0.04179065504830508
0.11830516914770446
0.11306230281944407
0.022850184227771454
0.02357517331368656
0.01571478849239851
0.019885241291013062
0.0004564901567047083
-0.1284343205560654
-0.03394111080031042
0.017136974236158762
-0.04005889073751274
-0.029163327824622717
0.014874706513135215
0.04119087078996535
-0.020347902336537098
-0.038242100461036044
0.011202277683622157
0.01423452998633824
0.01071015899281724
-0.004653050531269088
-0.013522701696274998
-0.04030777348278913
0.0017101559771374002
0.0023696636189865046
0.044033965466968195
-0.036470195761560964
-0.2381756125941351
-0.006115555376064032
-0.002147235965342584
-0.0015013572996433488
0.05260589406782558
0.027401119650226315
-0.020853509463017932
0.019674414432576337
-0.0004595461275156519
0.015306721566466395
-0.012310326483837663
-0.020813948228202567
0.014825187157797034
0.00409334877412754
-0.039510874991403634
-0.037393281428711206
-0.010202748035118541
0.0272214273206502
-0.030759369204710348
0.01373346894477575
0.0029910708911958205
-0.0016943930372270643
0.014512019941489103
0.0014260037203378125
-0.01935076382482144
0.0014776735362308072
-0.04973557906932428
-0.04266679468915577
0.02183037463241616
-0.005185259640240732
-0.05545209051311022
-0.020825372494710483
0.08478342828078722
0.06597201010380224
-0.01545577174899441
-0.001640276716280458
0.05690850527871359
0.06255167974565569
-0.0028345849648145267
-0.01550127790148456
-0.021265254967303998
-0.024875524047129307
0.01214268751334885
-0.054330154159621766
0.07880799417684492
0.1318268858977989
-0.026276891320158056
-0.03735617355550094
0.04412803113682272
0.11803156563329624
-0.05166473839827954
0.0009021575426819241
0.0052347605973292344
-0.004843625903017888
-0.02467249348483767
-0.007327646161205344
-0.025463902942466164
0.04658508737909165
-0.02101972878040924
0.02057604468123508
-0.026144191355006646
-0.0191812824172095
-0.03591039863203291
-0.021744171639206562
0.02294778549629655
0.03534191217426646
-0.009396224637443596
0.022223153175043905
-0.008215250379805967
-0.014950765886436802
0.04198081047882682
0.009589294799373684
-0.02420816071137616
-0.0021869479738695586
-0.004613852493125394
0.005690482569919778
-0.02568819693432586
-0.013920209010376933
-0.012066563513489992
0.006680371056399164
-0.021297345742819163
0.01411861404061821
0.008365667418184595
-0.009524718641788244
-0.01837478366032185
0.022727310489062603
-0.017137335326813316
-0.015248995815160057
-0.06141722174720756
-0.001967471219664694
-0.02340542424088591
0.22998419431634007
0.0543117445647451
-0.01714447876664857
-0.012775124940467742
-0.04028536619621444
-0.10245736009567646
-0.09646713643709726
0.024279630890192094
-0.0013043365539020244
0.010702620192774926
0.010847305244311359
-0.011171375503590224
-0.06528772282998961
-0.013179302502634263
0.014024398028700608
0.03109634289838497
0.003841656957002389
0.004171249360973011
0.010159606388212065
-0.02511167132855988
-0.01769804311554113
0.024954199448502645
0.017900263932518153
0.013028969860639877
0.023268913126170545
0.16039373690283737
0.08330333526743192
-0.009187237288980311
-0.01947529903257549
-0.105124763153516
-0.02395907387493387
0.05604761291493356
-0.019960115650128604
-0.011965261876069165
0.018869139048999194
-0.005690484888842644
0.023354529245373058
0.010626103196799987
0.0020304640337144224
0.0002575949552289385
0.008446888861665643
0.002782788774077275
-0.012407908937380245
-0.07428448054540891
-0.13609933822407874
-0.03568799793186279
0.0014603967802396696
0.01748486903266241
-0.010449819565338381
-0.010207326081696274
-0.007894629941685487
0.03366781729650378
-0.013552450886383433
-0.03165772448374885
0.007493325260742348
-0.003970963490205593
-0.01828762966036843
0.029221427853051683
0.013574862589766812
-0.02613622758943957
0.007106384084843865
0.02329417118129982
-0.09783201541837333
0.013470336305342327
0.013397022878962614
0.005914113494617063
-0.022862802198336887
0.018365063378196208
0.09116068397519463
0.0028623807493959983
-0.008083723819182967
0.008717785411925994
-0.020582075394126865
-0.0057879445906008865
-0.0005784904157909326
-0.027139409174682782
0.004454133851823979
-0.06287414140112078
0.10712423010134675
0.18325178984115018
-0.07280801271844785
0.00019749224194428965
-0.015281311261563669
-0.017262296360506354
0.010524605651854752
-0.036689645271610685
-0.022702424319314282
0.18108336617322246
-0.020578654238844456
-0.018986377395464965
-0.018673108999586668
-0.026240902070073544
0.0055674558455629415
-0.01922046270648729
-0.08000653597951778
0.020364594846982755
-0.020153188695183143
0.12432495765773117
0.09121788238233991
-0.03650879710566559
-0.05153799878932517
0.0006264262583816315
-0.004581502781519018
0.0060589449881335205
0.003398889157706473
0.022211189146351673
-0.002128217715965812
-0.0017004285618724868
0.04056644241021638
-0.035305747601024326
0.013295764996233275
-0.01085096059429521
0.005208457192471455
-0.10718951047795341
-0.18062886513826784
0.039954069540302395
0.00604016120104897
0.020579938046218
0.01873238638554543
0.00478476969092092
-0.00324161127251672
0.07825964111583388
0.06618258603631702
-0.03139611049654606
0.020865455636503057
0.021232516341007014
-0.03300185055912961
0.023466004754649553
-0.0003256765656735956
-0.004267289332241521
0.02656497458562363
-0.014743453278351838
0.0016570728271594318
-0.013807005924868974
0.016801719373849496
-0.001349487081791844
-0.007408737485186402
-0.028616403233901633
-0.01911059282109128
0.014725240532797142
0.009294048371765985
-0.014900523012562285
-0.0024418438073399813
-0.03920353687104546
-0.13486915212175532
-0.0006213558121100147
0.029023928101231226
-0.03871975919057961
0.07933775611037931
0.14147400019346487
0.0031719839155180595
0.00012151344617630855
0.009834838273124454
-0.0758958004509711
-0.0032918762257960026
0.002727830099140517
-0.006036524295186701
0.004847258896047323
0.0017039860611418281
-0.010727672669691574
-0.0012309786129770467
0.010864625180994443
-0.03441018575273129
-0.020363885801532745
-0.007718847575001081
0.004988262164045106
0.003002286380026991
0.001929018723386569
0.03634541911615246
-0.018846444822439523
-0.028170335000547626
0.014015784176342676
0.019106972079321626
-0.0007625643076341877
0.00449121113644893
0.04087887587273461
-0.015729379074198885
0.05289967029593712
0.02572227509203873
-0.010734829242438435
0.015398302971965667
0.023957888854272767
0.0010915680735114701
0.0017703377943822298
0.00784185729950933
-0.010324169998542269
-0.03831280762004477
-0.0007967255970932198
0.00965998532818228
0.0434802858850024
0.0020440239380573703
-0.005962656459219799
-0.08005155001850073
-0.020978239856575185
0.05101523545686614
-0.033474990718098147
-0.0442271035970849
-0.011822752489114265
-0.10267598166252243
-0.03246232776964475
-0.007014976922087028
0.0001851946429956324
-0.0036659846899442005
0.021317606682974603
-0.003442369089947685
-0.021087853797951542
-0.03212841962885575
0.02173824684804623
0.055161182408819016
-0.07622743432238016
-0.06069007890647114
-0.020631774932814057
0.18257209997636784
0.03709692537752351
-0.03311655447620288
0.009675285102020858
-0.032916170607747416
-0.03283847879430718
-0.04606081408133193
0.17986920533944603
0.05046497025816816
-0.07632201624169008
0.028964592161530543
0.056312058821259656
-0.03594728137578765
0.053401908625293704
0.06355023279768791
-0.027103158278102956
-0.002997981006987835
-0.04689325618289148
-0.03536315537898952
-0.010719389162607357
0.005795487516659461
-0.04034395269212263
-0.019075666298886986
-0.006011415897473053
-0.011593146947586607
-0.01727224823939044
-0.00881588822195532
0.06769706349180152
0.05286694642271641
-0.04337394955345054
0.06773742372582991
-0.008637198781588157
0.03819594636265759
-0.010376303966447772
0.06031505042756777
0.04123279277307831
-0.04999008333132569
-0.007697229277213242
0.014786463906100472
-0.0004003922440212885
-0.0507872246943482
-0.02081949222636888
-0.014615133617583338
0.01291821319513021
-0.018656818890759742
0.0024187030350510865
0.047390713886311005
0.02869843115770181
0.009280897869314322
0.022502474595283917
-0.005286815298623582
-0.027344086310819315
0.010815890917762952
-0.02459128714583657
-0.023672570744253416
-0.01794942193041002
-0.002755423945961973
-0.0029045161906414317
-0.0060308793315042245
0.013154679894721357
0.21837735375643388
0.045986983682257815
0.02199391104460534
0.06255372222555297
-0.05672838613489606
-0.17933332192450818
-0.13653831478826245
-0.015455519206804198
-0.03256589892739652
0.036572390693598376
-0.04702627678050361
0.023269772418235666
0.003674033965494551
0.011578889935942005
-0.0614344904799506
-0.014639493240494428
0.02199645463019016
0.02440185357074877
0.03846630895920509
0.02902517722046454
-0.0015425450637053856
-0.06338118917328497
-0.0533874619316872
-0.0007690239603594384
-0.0467012938205225
-0.04578059110640197
0.005000376790672809
0.01181793033976272
0.0703918909623572
0.06457887372951711
0.028023871445201572
0.08182859717578134
-0.0324547047901858
0.04149545030978136
-0.0219651622013972
-0.03347892362632244
-0.01636506304343826
0.011671550809737485
-0.003371005075866057
-0.02816198053824455
0.010880747322791696
-0.023576547445188365
-0.012953724127198276
-0.09687566805460798
-0.10275256309490793
0.010395505009145265
-0.058983520818830106
0.019445841624725752
0.06706611623691218
0.03897785087886159
-0.05753309772112529
-0.048303585805242924
0.012025333064264386
0.04233443262152732
0.11134778481653046
-0.01618467859014575
-0.012011980176998099
-0.029147691934756793
-0.026254812566222547
-0.016706918776784062
-0.03806951585934177
0.0002890876626672849
0.06972675352361059
0.028166716889399
0.028237627305465297
0.033949426630456456
0.009369314069209302
-0.01831976582211237
-0.008360600445842123
0.013456823131041096
0.003577750512939173
-0.011035155241207732
0.05654878661206707
0.0034936835065992023
-0.004298685470882494
-0.06721851029894756
0.10406149439807338
0.08726724355369789
-0.0480770733017067
-0.0497695460662276
0.06369107917644179
0.07907916393316376
-0.05205418108505889
0.018167651343277063
-0.01029649998185656
0.007955415440895569
-0.0323897345053884
-0.07951039414113534
-0.01593639199447929
0.011930099275182973
-0.008682088966896932
-0.08989978186640121
0.03454029848571289
0.0364341757561878
0.06701372659725888
0.10418113250469017
-0.03823069906479556
0.023949199603601205
-0.03392180405646396
-0.022935619225302413
-0.03281881591365806
0.014509922300138575
-0.020147966020072308
-0.03428270253169626
-0.016538826699139055
-0.04326516591063043
-0.043156826417100724
0.15216377652999566
0.011775675184900775
-0.022835556621177085
-0.07669636214909281
-0.03613118849328246
0.007406376491958236
-0.039256612943803074
0.027687744089859172
0.003866498370070678
0.046033175446125084
0.07417271231424188
0.047294221054792744
0.010337223852127474
0.013120784739586219
0.02964031821458064
0.1302241673435277
0.0480553676666711
-0.034484894117534415
-0.03304345030547165
0.0030460781106813432
-0.04527108509448635
0.009280673546358992
-0.07050790134728142
-0.32392749449212704
-0.022668752406886483
-0.019098507046085324
-0.011589198168401092
-0.03990923481140812
-0.004466687777933142
-0.0024641696327990454
0.014651613179961677
-0.023900094560815214
-0.011996424831702006
0.13830249521767823
0.11569485136314087
-0.06953733059596241
0.066869385807062
0.05559244801379712
0.10746047677864043
0.05042430576649729
-0.02966772659243191
-0.061920748017062814
-0.04595978809569927
0.004124419113047307
0.0204267221055121
0.017636224910356883
0.06400795354246336
-0.019766312780687533
-0.01438417044620975
0.007013671530162657
0.015621798098426048
-0.047507687321399254
-0.038572089672136094
0.02106115909443211
0.00806749075247253
-0.03939166906324904
0.026496025488408535
0.02340619693892423
-0.03905382852553923
-0.0690810293786112
0.03019603448035276
0.02666988889806423
0.0004727719131941732
0.013761771553836623
0.020690851000090965
-0.041950389781839924
-0.04782576051408693
-0.005256370478892089
0.0017907587781652967
-0.012149612244331823
-0.0024876934109812738
0.001048401157447743
-0.0195731560057452
-0.008340179407940617
0.03531631939372168
0.007145239858417075
-0.015198490775984097
-0.09931834766219028
-0.04556926903438891
-0.04357033718197745
-0.03756899410223712
-0.017208370765975114
0.02591701352349635
0.0060064916130168206
0.006743933969372965
-0.0038322850423004504
0.07424508207056597
0.007897024702252408
-0.021708610983176255
-0.0014132482676288177
-0.023239285228344914
-0.015980683111695117
0.023483030929388186
-0.006905576356215753
0.2227613688206806
0.055868616942156085
-0.03852337597740586
0.0015225994587458331
0.14797530222659513
0.07369998607376302
-0.05878715438995995
-0.026905880865373055
-0.04339950102733399
-0.009855049869502223
0.009126951179450374
-0.03293662326750139
-0.04823923708233169
-0.011932317833244
-0.0040632586667782656
-0.021264818003138695
-0.0050225616684383785
0.026449481515880703
-0.021117147199496464
-0.0267600929181677
-0.027062437924575952
-0.0031022050111779937
0.015081432334212549
0.0021230696445375292
-0.016337993328903625
-0.020766643171900898
-0.000696807175315412
0.09019180632384231
-0.0005551485059951596
-0.01664521696900273
0.008156615771967529
-0.0052567829716896435
0.042336281398058215
-0.01797729646148467
0.03649364953739281
0.14308768521335258
-0.023848742249692224
-0.017697660847230307
-0.06706603192149478
-0.029137600752164015
-0.009709554298730312
0.029854030259644792
-0.008743706878427793
0.018001577814785556
0.0102639708502472
-0.007779644999891313
-0.0009552580637858182
-0.09462207121164
0.031309376234255566
-0.0014782296049062704
0.014401587180654542
0.01308059391140862
-0.03620160585833268
-0.012566474419853847
0.03150577332472914
0.009146752105891425
0.04828305634806629
-0.10575981262132741
-0.07730243929574487
0.04328466161151798
-0.030964318986577068
-0.011518970872656877
-0.004576722616204782
0.023395867857403642
0.03014388372119421
0.0281575694808336
0.0076971285604077455
-0.0010302655614533472
-0.043471829593884605
-0.0021520204029768664
-0.011673456085711248
0.009961033177931289
-0.008881019443089276
0.0007068666856592477
-0.05566147766311794
0.010019839504332502
0.03372017316037606
0.019101233417199038
-0.00397007306312269
0.021630340603013724
-0.008099426537714553
-0.019555488357417435
0.011199441007338556
0.002319258099070345
0.011435736983830928
-0.012424081873562236
0.004185274079436581
-0.007287392588754515
0.06681473213775552
0.0713215601962043
-0.014457438938668216
0.02375235481972199
-0.08566969597678238
0.021759179094554635
0.033028838454964134
0.02732220914012499
-0.025865220585325626
-0.0014082071840121298
0.03405571077478925
0.026977592019259613
0.010498887493425873
-0.06908475545696618
-0.012974090344734833
0.027128568579045283
-0.012136795950867743
0.02720707574716767
0.06793088397699495
-0.037544931166608723
-0.1784495684673941
-0.055438315579017496
0.045483103177675524
0.025358644138888154
-0.013970677154338031
-0.007825597358619226
-0.005358908330180981
-0.00017867211947734325
-0.02701929350103666
-0.11921305120636633
0.01297053439199591
0.02615279882319628
-0.0018899231224410726
0.00017595458866344351
0.00218739791952843
0.006789006929651107
0.039423834862894004
-0.0029880867122927387
0.00571298367733342
0.06820826502335031
0.024999831526413704
-0.02996416611704726
0.029957207274074166
0.029832730778866764
-0.01572957909956513
-0.021790955654827877
-0.016484589704498436
0.02164037252211247
-0.06014358540250343
-0.04461427319638599
-0.00928668637275272
-0.026894611851825092
-0.056727114342452936
0.03309961577827154
0.11199311608654747
-0.0029489154278868656
0.03870717289182342
0.08264510951617511
-0.019063663340051044
0.004552470169473581
-0.027081036047837573
0.10392062063097675
0.06698769409667807
-0.05333652904074639
0.023448820236974487
-0.007031625820324194
-0.010177417450914446
0.006627636032165844
0.0021532393072856526
-0.022551495938735143
-0.011142589517246474
-0.02855455922698539
-0.03248940064327311
-0.07570396941756269
-0.01065235758285119
-0.01700360387772284
0.0006609811623052245
-0.02632408852852674
-0.013433091635132675
-0.11893972355767957
-0.02123131441993919
-0.04196297988021049
-0.01054317042398505
-0.04119618362576548
0.020081123153403574
-0.024496156435696536
0.22694487456227083
0.1737215135314999
-0.008475893607111384
-0.051117986855242076
0.07569856280701111
0.1300129111821474
-0.01024490591477076
0.0325926487467186
-0.06736955416196506
-0.05735936021065699
-0.024159541081895695
0.026018985639772417
-0.009090969762385227
-0.006785860524341168
0.017746254259673768
-0.008420677358243246
-0.03536306856964839
-0.013441772742964962
-0.05811245669637991
-0.037936984119566544
-0.023551622334752643
0.18862303978037256
0.04282758089108711
-0.05181788918672043
-0.22099576463222625
-0.0729412427441272
-0.020980688450650768
-0.0011920287969533789
-0.03042740046222459
0.10747085082854012
0.03800762339870336
-0.00840726183397069
0.024749129338346564
0.013793529332498675
0.012308842384494721
-0.01885735518495456
0.0070765381833883655
0.048036426444634045
0.0023394746173247636
-0.0010937301582593377
0.2006956643716268
0.016178287837854112
-0.026374705120131233
0.028404191132943842
-0.06561071837399304
-0.006375350094090659
0.02518277757280803
-0.017245054530818395
-0.028690491865163075
-0.058151035904815615
-0.0373651308547332
0.01308708208354097
-0.004772925725846683
-0.02458354740757352
-0.0011952176294938585
0.01667267728532414
0.016885253668849718
-0.005062703548358837
-0.030298343433905636
0.014742300925532314
0.06396682065220807
0.0013282357618016655
-0.03466461662667663
-0.010486848947992981
-0.021275508326280976
-0.05782117734116557
-0.040630678931349584
0.0794938720561491
0.08107544521547799
-0.02624457591799083
-0.007042238948322176
-0.046661322830528575
-0.008919346486464643
0.0025639860654229642
0.04243682808836252
0.047454017036505924
0.024387626655932693
-0.02163178345959587
-0.03075719107366445
-0.0093507826886039
-0.01838527795248983
-0.03282228752086378
-0.020977753444011343
0.0012175618344198648
-0.014697726692042952
0.01326057472952156
-0.006137439981346108
-0.008532533138094881
-0.0016299214666033784
0.014268962192279168
0.00976905950507607
-0.005455266473720318
-0.016605394580444906
-0.0016171802430131512
0.003106665314513281
0.022294525911834617
0.07711249136836279
0.004933338161982111
-0.018584917465479085
-0.005183599159096715
-0.0012165191930699362
0.00872487609376436
-0.007946785377373422
-0.010068168240098473
-0.004581711430920041
0.029807172329859032
-0.028311405992267266
-0.2516423638046661
-0.03793729034186646
0.015887666689802606
-0.009284503251253656
-0.01904743122202113
0.04695980242861164
0.015464814597460142
-0.01973342283891813
0.007097577895946631
0.013501451447918996
0.00028049753173025753
-0.0012447851751212974
-0.0008285924027377991
-0.001705842154037606
-0.0152543861866253
-0.02004328592480486
0.006627069530287634
0.24762511773189855
0.04462829417290785
-0.03705586586846403
0.031085120249821546
0.06413371082446336
0.036866069771328995
0.015205520003678127
0.02727513073910911
-0.023196015160212684
-8.280981719812913e-05
-0.009169838835919306
-0.013389221093257532
-0.0038317971657561138
0.026499199152059554
-0.060291040356543764
-0.05156592831839083
0.013623907604756836
-0.02024585668128173
-0.04250984764253507
-0.026440150955724797
-0.019547755241973983
-0.06524195226678282
0.025451915447300005
-0.02963881243600469
0.09590439802903833
0.1836991150047273
-0.035360038559899186
-0.015729032745137362
0.007304677250394388
0.0399194969365114
-0.012169829893022155
0.014859845338394765
-0.0013406651748991633
-0.007821149369968238
-0.03158797886816347
-0.026485880190689884
