0
0.022644234770130035
0.048144070718083624
0.05071765169526902
-0.2295618011520238
-0.1046861135604414
0.05777650855274009
0.012651548316860741
0.048580501298854106
-0.014500419900881911
0.06650330632240789
-0.146638271504143
-0.13760298834275927
0.05662755008581499
-0.0033706825999591087
0.023717279432579178
-0.004158680335384234
0.028139278786103172
0.02158747276373186
0.01724154211409756
-0.03299307642235962
0.01485052265480252
0.013437190403789167
-0.006086517298314211
0.005314179668112706
-0.015060977103835348
0.011273854758380704
0.02271381727268823
0.0017386376389134663
-0.0018539996853351123
0.015473146638885833
0.006477156873028979
0.007522120186871742
0.013504630380738049
-0.02758160769810936
-0.0342738675287575
-0.052711155234793874
0.029486248579010676
-0.000543246850637334
0.00033371331712067815
0.018587366241650374
0.00846240966022037
0.01862265651810728
-0.001917535054191557
0.06173810037033305
0.0360514242919134
0.05018789350663247
0.06859808001683648
-0.0029004688098487764
-0.008722236904670206
-0.0027778040378209335
-0.0016171050046204834
-0.01927457537647909
-0.02234963107685014
-0.022027898906228912
0.09305631647606039
0.03562399220800307
0.010884170474900796
0.024815716076013346
0.010370230122144029
-0.012120552411180882
-0.030923938594603885
-0.044332501258075335
-0.016448075979430838
-0.001584927676472194
0.020150615643174653
0.0005244559074968025
-1.692916619259815e-05
0.009859932286856997
-0.006985601963372793
-0.035321140685635646
-0.04876596084726494
0.030536049049292077
-0.1457721760671639
-0.19864186665996614
0.0038737665868462563
-0.026943421682868222
0.08845001117318638
0.06385425120136712
-0.048109868848884824
0.07647314300626723
0.11658369053766326
-0.029566881128050417
-0.003689100546051386
-0.011916664374436456
-0.003605935033970764
-0.021331940660205113
-0.015466064994102118
-0.055645232122536435
-0.06627179650757306
-0.048080184329772
0.02762883212453972
0.0014744098398058526
2.721570026697436e-06
-0.0223831446846559
0.027227797713902352
-0.012223909695309376
0.09100089999400979
-0.010120149874794421
-0.027436294236729435
0.025899679092667677
0.053758709559091296
-0.008839045636912837
0.013470406626772104
0.012469907639071427
0.030992617284594248
0.011141205804637608
0.027074937311821035
0.002887598533246924
0.002920116853923976
0.021572481795903865
0.036689965130962704
0.013777013010549016
-0.012405327051228857
-0.01859865990735684
0.008555453431966792
-0.04997557927924494
0.009473658143947067
0.007296772196967716
0.01799897103021958
0.013992678081671765
0.014055335828972282
0.0005692102120120259
0.012647125431222228
0.03889583381985431
-0.001989068023474409
0.018067206923751366
-0.017494748752322035
-0.001457756965240851
-0.009217343882155962
0.007051744332086968
0.02204821938309131
-0.016035039199466826
-0.02733785213599593
0.017583749766510812
-0.01052128958471377
-0.0037321823269540625
0.02579971625646115
0.05918098185710737
0.0007967529263391342
-0.01930088738262585
0.002752176206430226
-0.0010307433451656254
0.02261400039958555
-0.036289829122485885
-0.08126927504702085
0.0587334434075178
-0.16714458667141727
-0.21208186902095186
0.02366069495061603
0.01539454118475027
0.02048796035397939
0.02171559877474472
0.015848421110776636
-0.010440283629938612
0.032845367662445744
0.019101859367378963
0.00526963472707315
0.02074385905129947
0.0014266657153169638
0.013328846822737205
0.016868488644620087
0.011550868658042637
-0.04943244194990623
-0.062239025283119476
0.004880827787670346
0.0437659256614731
0.03200040978196263
-0.0021681489182102166
0.08594785798485387
-0.009521062074047399
0.018813186745615693
0.007932855071351821
-0.0042862445258753275
-0.005865699519309872
-0.005520495559990164
0.007386240310104365
-0.022426985926563676
0.030469470502772173
-0.1534949756368122
-0.08142872077894113
0.01124613322477737
0.02446755067847652
-0.05813358270906648
-0.009899990885132898
0.0634763159050119
0.03615258202508193
0.01701160950293188
-0.06956272201385236
0.01697366149153073
0.03273410876960571
0.023721574757989226
0.016972651786483738
-0.003077775213800111
0.05966941535593861
0.09621017780402148
-0.017740734139732327
0.04393666135794111
0.007340138896182382
0.0325292320176587
-0.012141542832840841
0.020825950635334645
0.0284180087834081
0.001866632477420577
0.0022571923824133908
-0.01042952170533368
0.015094245367923103
-0.04424868307182068
0.00164864839334422
0.009551137505879367
-0.017182343709339694
0.00758242125061887
-0.03430692053329566
0.016647355379977677
-0.01025663990701428
0.047751870483745316
-0.19692937510680983
-0.11641853692166351
0.06818044473174989
-0.009921932974043654
-0.0013901857115661666
-0.021214737838262332
0.03625213421655386
0.06425027937591797
-0.03410749571655936
0.021195718343567847
-0.005327941350562958
-0.00241360809509594
-0.04385286856160984
0.04650310088141138
0.1393076598655452
-0.010506447531898751
-0.03586391709992928
0.00838908202748277
0.1225530758816483
-0.08503450203418311
-0.07198115089947615
-0.017298730400379166
-0.054651462657658766
-0.04114837185596152
0.0006349292596991977
-0.02709425051588418
-0.008469828972042749
-0.014277221267327323
0.02438166035444477
0.07813537678773082
0.011588752697171557
-0.040111512853408186
0.02113879090531559
0.04133864691398695
-0.018171540690487636
0.020438990029338428
-0.051514740879282185
-0.05982191858191562
0.007071514270902957
-0.007609549732840685
-0.05665782988941572
0.033501218871797
0.04387754604117043
0.06685714307192643
-0.019357484566496636
-0.05877706281013338
-0.021305394936713337
-0.010625349226978545
-0.04497248050997231
-0.02256425523081086
0.08809326899466607
0.015659980556862567
0.070883511593333
0.048542216248603706
-0.025737162842280486
0.006947080909103249
-0.020574791480621954
-0.025881359185430098
-0.025159322069995178
0.019464746448617773
0.004603023682317276
0.010905994778927605
-0.03770878845851649
0.011490933449824953
0.07841545361097922
-0.018061478576295226
-0.03151805142382388
-0.003940812077859858
-0.05613525846562146
0.13572495178352018
0.19572198619348632
-0.05378174020515484
0.005446991704123546
-0.0053430658152619475
0.03484440879492601
-0.0972002754737015
-0.0577520664745749
0.05528964368027218
0.0023730228830079747
-0.03594979656701145
0.04421557075118968
-0.04265638350562693
0.051427087593380424
0.06591894384910875
-0.0460092476589589
-0.01916629622200329
0.003793687880927247
-0.0095207686945243
-0.011205681536188328
0.0015301510774623477
-0.01283053160626874
-0.008347555915745914
-0.013986119144330105
-0.0013858840560542198
-0.030603398862375973
-0.023714406027636033
-0.008634631282061687
-0.02437629904667824
-0.03879894247158986
-0.020876378299078697
0.013792050273621731
0.012761481408302364
-0.012830461427471667
-0.008267493390866536
0.030693693278182207
-0.028499236385519315
-0.042349634185329686
0.03090809481872141
0.003110172915853508
0.06752642729409028
0.05868121115248659
0.029048258932720117
0.01741391579874402
0.03063084999118205
0.012913913802102025
-0.021652198153433142
-0.0031988284408785875
-0.09153505019490725
-0.053622607538170226
-0.01882000145290694
-0.06380344977384121
-0.0034034956813970775
-0.2281765383183496
-0.060969838159087894
-0.04188635501012486
-0.005091975496877463
0.018901542477265727
-0.023841813336783514
-0.026760374282025188
-0.019392386083907146
0.010298096490001619
0.3314833101032331
0.12115174023623079
0.011269599397675165
0.021868567515158737
-0.010223022661805367
0.011691565725202427
-0.014014448295858151
0.042021505088977985
-0.02188062233824754
0.09125274861309679
-0.020103508552730243
0.050707005082053655
-0.011750248843968258
0.03933430887316146
-0.04624517912856705
0.1919179529895592
-0.06163718056850195
-0.12121212916002001
0.026337167251453717
0.020560313398958537
0.0368749176451436
-0.02193896788446971
-0.01112970417579259
-0.05835033853857055
-0.031311198870218444
-0.0008922755128876963
-0.028098323960237027
0.00044876212992636747
0.02883757209393233
0.023339293988474164
0.017589139417554495
-0.03552350148851212
-0.04050215342357696
-0.025685950737300095
-0.019142245959614324
0.005069212239743376
0.006902676280438998
0.003094312222377539
-0.037376842969844754
-0.07575659634752614
-0.06099005193412447
-0.0299840594511752
0.0042083995712269
0.07081086903220432
0.05104636904278458
-0.01796059654802286
0.005983168271714961
0.004790574910684578
-0.01619751320346462
-0.016890661447833633
-0.00039903628395525907
0.027549781340908946
-0.03600734439741254
0.029167559513643145
0.04811390784084792
-0.04971445144963205
-0.04985393593465067
0.017367917784750976
0.008008060242053156
0.011286084634759165
-0.024418703808461138
0.012110569978826091
0.03485563081858741
0.013455321429838234
0.019930577319126636
-0.03190730090047779
-0.04889444399662984
-0.03983890654352223
-0.028864491603879574
0.02989794689430325
0.0005688016620057479
0.14516738460314135
0.06579439961075363
-0.02939053689747954
-0.01703758982451926
-0.000398038489828968
0.03312904484511035
-0.09917301525539331
0.018207417465244208
0.03805081683793495
0.07490107879504104
0.019357851878363436
-0.02068258904123425
-0.017611571666134564
0.05720200304511458
-0.022004076110065645
-0.007020270657102394
0.039319780806036465
0.025195993153662832
0.0053410296737090406
-0.00823444026456627
-0.0017125522707744287
-0.027363418096245103
-0.00799377252130295
-0.01590669075959722
-0.003627952408142356
-0.07213865531846371
-0.02471307072112708
-0.03155618000054659
0.026105103687613474
0.05470045388668472
-0.005734942562553103
0.007780184337160497
-0.024067541446044772
-0.0005011919418612081
-0.02685587285661478
-0.022551824413128325
-0.024014087331535146
0.012936293712776442
0.007757861675025788
-0.010451617458657574
0.0055257194878224935
-0.02354741752480241
0.003825522143103498
0.0021531585118961514
-0.014511697931676257
0.0018876499750659522
-0.028113056889565304
-0.017949950807911567
-0.03198166610572209
0.008970542090126895
0.026605446211101804
0.08909416752099282
0.04659377762241895
0.01348716819849167
0.01980453149537154
0.0071406102521948105
0.012132958837529592
0.03656465793789315
-0.0008780434465804639
-0.036544800708021005
-0.02458336437636042
-0.01942910991128846
-0.05709605563552837
-0.041951718000704054
0.012909410687602863
-0.06323819170047416
-0.037480598803706536
-0.036059698023187564
0.010090034872630578
0.026562468293999712
0.033133576515265245
0.003998670252389963
-0.046302708254332296
-0.013491514232526276
-0.04702401025367608
0.006507931358155972
0.0014667202052982167
-0.05665909449416381
-0.05521350002474763
-0.029831943506771156
0.1920755218492798
0.03499391794063177
-0.018843026367255166
0.0015426722598777256
0.033827427595585484
0.13650540139405268
0.12469384019661627
0.026908306969425377
-0.041768869129590075
-0.045340058465299274
0.008962310272259596
0.02246557416174658
-0.013868843403555403
0.03822766187049287
-0.017127949156707165
0.005692347123301005
-0.006000380997166157
0.005193613728078247
-0.044572508647779695
-0.029523143716286896
-0.024985577467175918
0.00854069456211639
0.010464858478014304
0.004473223455699712
-0.03304955821661306
-0.05314810021305077
0.02833360961032605
-0.0010666709105813094
0.014001771528106055
0.02360466716877151
0.04427129409034613
-0.00972546204185315
0.015261795522017398
-0.0077678668316535065
-0.010939906527175728
0.03638050404091888
-0.007043250596031858
0.0268915369737061
0.010614836369633394
0.046627063573003565
0.016606812193775754
-0.02186254833717274
0.0032054364459455555
-0.029954911492778777
-0.07795623774820411
-0.07043706122608609
-0.02486508287488313
-0.015370865802756184
-0.02516346178432832
-0.011460103436971462
0.007509991175290447
0.0009375104165386358
0.019504598743723293
0.020612503948800896
0.005834167521584213
-0.005095780830547147
0.03088782551237014
0.04076304268443661
0.01765379036902133
0.0308789057902179
-0.048957623850177386
-0.015060672219043378
0.028168954674627555
-0.011466671506095228
-0.0015641166176519979
0.02219230219457733
-0.0023978455912781254
-0.014322354250148226
-0.01087153737462334
-0.04909041228346614
-0.057413355353230916
0.012600877297779658
-0.0028792246259295422
0.011838336100080522
-0.052487640586255865
-0.02220028002686199
0.04965211873233478
0.011953225675381327
-0.06994162269834263
-0.006116270182494963
0.02193654811286259
0.010493805346687266
-0.021670662588194577
-0.07952500991636982
0.11478706849862817
0.04719523221964221
-0.006410821111681386
0.012415831979487375
-0.025681154422260315
-0.016058128749555596
0.015306736509589998
-0.007240320408601922
0.0040801667009013375
-0.02058304744725709
0.009243052689792032
0.003377190309448902
-0.0010366593818148407
-0.03890571046320186
0.0009266403920488622
-0.05297487213167979
0.046788972251882235
0.04558746698565315
0.034962608165353896
0.04560828190024173
0.046727060664282526
0.07473207792454437
-0.023084780099747775
0.011047066957143296
-0.024807038752705735
-0.0024226652397096008
-0.03779851280258893
-0.011898346805234526
-0.0071732733419443955
0.022778875846883307
-0.01093313771564714
-0.03649756430040085
-0.0013088977610064977
0.02066060100415983
-0.02116267388555706
-0.0026934868255545103
-0.03846259192389264
0.029708122120078412
0.03292708614580625
-0.014708187003450435
-0.0076583742747457235
-0.018286446831775213
0.01951624875709349
-0.003090578218253198
-0.01723773850425159
-0.03565987837642606
-0.002160358507648318
-0.02008559243735104
-0.013745195173008559
-0.0843095065318407
0.04580838258018787
0.043870022897706216
0.007364443848607061
0.012578695467728045
-0.0069717931947393475
0.00035335844631162764
0.017851781744181134
0.05711017878086547
-0.021033748247564717
-0.02324618339804245
0.03261805899694676
0.15332734707742995
-0.06828639377094667
0.02514818019364025
0.003341412577594857
0.008279535254043947
0.04500444329045705
-0.04869472927266525
-0.028817739369335345
-0.020776546249569122
-0.041251285501786375
0.008711920184267892
-0.00641279706921768
-0.018146710161598783
-0.011494910851418894
0.010869645136505268
-0.022417692655032552
-0.026353121802040115
0.023560288129988758
-0.04533073287230864
-0.018606733715229095
-0.0050742481979714725
-0.02164928825572266
-0.007482644586070969
0.001828649911393691
0.015584764861562302
-0.021547085500832074
0.06538132267323443
0.033623761941762795
0.02583036912753569
-0.002799896918255573
0.007951768434665584
-0.01351523145612666
0.005219602778031571
-0.009275225180660158
-0.030300114713321807
-0.0076736608467100976
0.03262678379354586
0.12325722790318712
0.02772825029471018
-0.03683212778875855
-0.01823202609891398
0.027932252814123527
-0.10341133757198702
-0.1433747045157842
0.10295570934640051
0.10126667999136951
0.010364533846826098
-0.05523272996477103
0.007844365344447648
-0.018030958222744455
-0.012277513626040772
0.011992961003028697
-0.0031887539495440097
0.022179517081968945
-0.014670186641346486
-0.036148824881148636
0.012649539134325358
0.025477955136786933
-0.011773891552402906
-0.03388901996987579
0.008667312502733102
-0.014304380578518879
-0.022239965510891798
-0.01439414436191167
0.01697205720041822
-0.032143255015849644
-0.0027598436384771966
0.0021805171173104043
-0.03601230130086715
-0.01937658123531823
0.0049625763078926365
-0.0361716811314547
0.016807392819525792
0.04163817841389663
0.007329899659027552
0.016270938728444578
0.061576366935059315
-0.0494469173352943
0.05885598635434853
0.03054957320317168
-0.0653745737621709
-0.03376176273910904
-0.022273508114729695
0.0032899446866048506
-0.030848275834395276
-0.01773578064068242
-0.0015242848844333903
0.07852647070828274
0.08440483498691485
-0.030836612458563804
0.01559092224194361
-0.04974337815009107
-0.011772647564568747
-0.031116872699409045
0.008032328708281623
-0.012517623191194446
0.026651512101771167
0.005842959826028299
-0.0009954080849783622
-0.02454362514800333
0.015408655447395938
-0.030983016057174056
-0.0001145649693020519
-0.04917819221846423
0.21567274399351796
0.17248196521119694
-0.013203626200242898
0.03637964079516434
-0.013276122177391068
0.044167903287471236
0.0016554815662571203
-0.016695749542334697
-0.003938128671543346
0.07120220082869318
-0.018200579268498055
-0.026924879742792403
0.01951809070289891
0.005288179148988582
-0.019795717807235946
-0.00886879044106161
0.007948396096814574
-0.010383350083433175
-0.03502563425886219
-0.04927618004740366
-0.01577988975125792
-0.02525763493989257
-0.16041135821392724
-0.06498199846445732
0.004453064720346067
-0.005339865500740648
-0.030140677759370293
-0.03884155514139728
-0.027043632416988664
0.0034777118888487894
0.026079498461882702
0.01817728570117505
-0.05609458346623831
-0.04684929098433732
0.0031730440780410527
0.0023129759913400488
0.013353229193177763
0.02393666983266381
0.11065007834384258
-0.014031264204526042
-0.014201911887888628
0.017415892434441676
0.017014515646436832
0.007453433780499807
0.0064060568548229835
-0.003915713055869544
0.033324144603903885
0.03144876659143051
0.014907621143410352
-3.513961553641255e-05
-0.008282226685497548
-0.0012403525865205911
0.0044005931686697305
-0.036580811674212795
-0.004582577971082754
0.01600596839487893
0.0007839015955782983
-0.06850244862380775
0.036690412103174364
0.012650503583215988
0.002286709990923994
0.010825631636135499
0.011252631649970058
-0.023669930348834526
-0.004274828168059993
0.008656424921372127
0.021440591928373137
-0.02303066119533101
0.024489505180250417
-0.017188460245464776
0.0713677510208957
0.019156185540462414
0.02100248048379489
-0.11352469577766344
-0.12759288777024763
0.0837835353174809
0.018547168684781852
0.015879968168322014
0.011531305909524888
-0.011080722882938631
-0.025996967995892507
-0.0530934395601521
-0.07662473588034355
-0.004850806911912046
0.020625261227637134
0.06894423697547868
0.023961358475033695
0.013025009794904487
0.03643520640061577
-0.02599932634769714
-0.0004253190258377244
-0.017735111401778893
-0.0025036791228366835
-0.012978749830792627
-0.026245384371373442
-0.006980787613542219
-0.02355596473307373
0.04096703992208019
-0.002226301989446245
-0.014420081376557538
0.0204626643955072
0.025428475894577404
0.006205874515289718
0.009686221647377875
0.002375638839484175
-0.01737417508268342
0.057985962120619496
0.005127028540474225
-1.7022046252247082e-05
0.04083166499777323
0.0503412068286363
0.029777662990261026
0.007301445743602002
0.011760609117329549
-0.024077510414949294
0.006933190114811335
-0.016706146448801685
-0.0495618604777119
-0.03112976171383263
-0.01036922263404151
0.029384999046543556
0.029870861615159082
0.0020864702068474988
-0.009522713644568961
-0.04496827272074387
0.1082463783917151
-0.017253575817878723
-0.045264977279629276
0.00018049198529106718
0.011814165263020995
-0.0002755635269092618
0.007991307328296011
-0.011503657750294702
0.0014163270189934795
0.01903817401663817
0.030409156137349826
0.015358615787178793
-0.014033855225061015
0.008045944827054034
-0.2127831424747069
-0.06181702086299613
0.010168650272223623
-0.00953535240651082
0.012472379329239516
0.017504301421372263
0.03899427491381057
-0.00866601516677518
0.027627303937864053
-0.009607773740568846
-0.0002847153050651402
-0.004741179981913618
0.015828821667830624
0.0038468247101024486
-0.02229368727886299
-0.012029391192482766
-0.022150517950771414
0.025486724168585217
-0.034967342225729975
0.0060816061797063
0.058973497325324
0.024130676343918234
0.02198405725992835
0.01830445821073085
0.03181952334785906
-0.03749772063831152
-0.024088953719355467
0.0063277988030094965
0.0015884568257738803
0.06253976632439257
0.015698964095386438
-0.0029811238024355763
-0.0208547725156182
-0.014809497062059798
0.0023537955333030386
-0.010347910155171627
0.07247067716136395
0.055009561591139955
0.0074309105696842076
-0.01196091584366839
0.04837445168153017
-0.13951839550618692
-0.18971361651245558
0.03905265155927281
-0.043427038234202235
0.10502457299163893
0.06474531833478123
-0.03332114615847513
-0.029018031313065674
-0.004730169309649985
0.02785508501834653
-0.020388397362150753
0.03642795595498898
-0.016716324195935495
-0.027862962413080127
0.012608572905321939
-0.012257029814434387
-0.012578314852784461
0.037025270793515794
-0.052764114855091124
-0.06259834439688312
0.0009534798246792092
-0.007667505541007111
-0.014782887406701563
-0.01990564696239749
-0.021489068954948863
-0.012215778417130679
0.021026789324935853
0.17243494002504847
0.03380225214008074
-0.01911109630331606
-0.00914854073650899
0.021785918946093746
0.012937872463135268
-0.006489545745124346
-0.0019688876716228826
-0.00012288590979625877
0.010605590792000574
-0.013599994230711314
0.004675031850683844
0.017322112456161325
-0.028972491954501675
-0.02175984925403974
0.043757669609528864
-0.005407288888016502
-0.05456963528956413
-0.09257212660546092
-0.007656687958735348
0.027461367589581943
-0.02348786304367047
0.015929585785338134
0.03075810975214723
0.02062748329475005
-0.029977775010385965
0.019574646585663713
-0.01998894456908487
0.02382089598715418
0.027927012677741052
0.009975743596352785
-0.07161103015511067
0.04175409729516744
0.09936171328551846
-0.0196271921183264
0.008471672273565857
0.025207943116306638
-0.005144539490930954
0.005496170427879792
0.004194570115888359
-0.053854230589753554
0.01703496716093725
-0.006727357366561679
0.001217152270746137
0.06297581516500891
-0.008375838137095052
-0.012043996643450057
-0.003473684078778655
0.012407905031470622
0.04280065500906842
-0.014771517710877436
0.029288560963221293
0.0036917054653129353
-0.026883811962127895
0.007927140794542606
0.006617586991169907
-0.0026587680843505068
-0.018807963897143544
0.008515748844981264
0.0001564317362059362
0.051728843826085905
0.021998565175616422
-0.015448191474876057
-0.005763732482774049
0.041829560024978625
-0.23548759514133139
-0.09607127813552531
0.031478704547704815
0.011003785757583515
0.003720948878722026
0.0008494655464498258
-0.005658757977709038
-0.012695986660922474
-0.00794500559724495
-0.00783660961644836
-0.049355987308778125
-0.03869822278223167
-0.005254961154768296
0.0030135466749813457
0.028657269161482597
0.02744834499392705
0.02686703891420731
0.05476607763005219
0.002905706011789986
0.027889538601916338
0.007870873171105543
-0.028481221837520818
-0.020149254553477308
-0.040675411457970254
0.02325141303789007
0.006368751193758869
-0.033590465344377735
0.0018003265078609394
-0.0095806576732682
-0.021369377744836188
0.020200408657424732
-0.032987186964536265
0.0960811556080693
0.10031853636029624
0.08331808460948752
-0.0007803874178115845
-0.009179953398173174
-0.01797450325024525
-0.008153014416989022
0.04062888590769931
0.03237377905383452
0.005488339963548256
0.011177999232394506
-0.033957659570365825
0.009422440175219841
-0.09172722699583864
-0.2480731452222252
0.01103178628418046
0.02885887645508181
0.00635220164352728
-0.033240042726655476
0.03370887285296311
-4.765495061325712e-05
0.023328465306946124
-0.030940014180611156
0.05083726827055191
0.18383173066613143
-0.012973473005600637
0.046325344064824324
0.021644473457842758
-0.02203535977701824
-0.016868294171296976
-0.020609073292377194
-0.007138700118126579
-0.002451309139611128
-0.0066982619809162055
-0.016770270323933932
-0.011370113767553067
0.01285359869252076
-0.00013731802920684516
0.00768890418982655
-0.030973782231563284
-0.012527348660264628
-0.02128710833055141
-0.00429425745591619
-0.006453292134134977
-0.005476471525461948
0.051757246951041294
0.04089158954818177
-0.07032756831364889
-0.010218787046362601
-0.02787132903948067
0.00723149480400782
-0.007372660087022307
-0.005857629803721978
0.004598939289937944
0.03461308073021374
-0.009555171196584372
-0.037836684481081954
-0.03312585543989709
0.07512200725281058
0.11118838267692839
-0.04422909651073261
-0.020963677459883295
-0.10293916087105677
-0.004677684239404935
-0.01286789291174549
0.0033400234408759626
0.02244296436635225
0.06749870441572678
-0.04315385652992807
-0.039685476545365764
-0.010803730728168918
-0.06283826322811896
0.004507987340451397
0.0010577137817537987
-0.005936458834143757
0.011507137177123098
-0.009029222877401842
-0.026105998045116263
-0.032042439099359415
0.14327585691655423
0.17783753493422141
0.1129069760839658
0.014238911831320247
0.04542409043500047
-0.17866591764016113
-0.17678294834383942
0.039962504010391364
-0.017551716509982714
0.07022140998996754
-0.027324148480658127
0.08499045879593142
-0.0010762523000869399
-0.006507721657314286
-0.0008951708771359255
-0.011996388781575603
-0.03702052848482831
-0.021920298968644288
0.09251480987461748
0.02787604535895925
-0.038614368350611106
0.004197063723562188
-0.02754400254209734
-0.16264392193160615
-0.054947585049698544
-0.008531091624802582
-0.05040315202199949
-0.015919322677001194
-0.024384334494930212
0.018876728499563816
0.025808529764665016
0.24669217863748583
0.016887812048672877
-0.02082316451601932
-0.01777301778517737
0.01876163075289573
-0.027477769274563982
-0.028533810901683054
-0.04817673522201053
0.06958838891435831
0.002123775396073998
-0.06634100215202242
-0.025678705671791084
-0.02910188248991225
0.02437705512717543
0.03290305892303506
0.04791075130220832
0.08593458147601707
-0.037634936654919016
0.02256406165862904
0.01814871314728136
0.004787178408841113
0.04414478457851747
0.042684535221695644
-0.02688501231838117
-0.00037584276886117057
-0.009171658279215822
-0.003394407963270775
-0.03419961392785558
0.01197616490519018
0.026082422334411506
-0.010531866391048977
0.03567715324544375
0.1547273230888026
-0.052880749552265884
-0.02843369635646908
-0.048845089876363205
0.009991265528276248
-0.03651233270339576
-0.020945428100550043
0.01645989515993866
-0.003059789224456857
-0.0237641883318775
0.0013855207851795834
-0.06845856116694657
-0.06703084998381963
-0.06180400517900622
-0.11767534262029823
0.007371646193569653
0.05538724757022183
0.004590468748178395
-0.03615573834347464
0.013954731560700285
0.06703026729573897
-0.022299787406396987
-0.0819107137566363
0.0004989367208991245
-0.01934818470131532
0.04552770824611335
0.06968319979241012
0.020643631056423424
-0.021771376772388315
0.03047588722793713
0.05113385959998797
0.008164640723572574
-0.051202321148881985
0.028716135198850044
-0.035985240992674236
-0.06749394851523431
0.00442969883340626
0.014182630541889396
0.04927312700005807
-0.023453901888239054
-0.016290824587037806
0.013372858787909336
-0.006070588734994468
-0.04220466120380732
0.01968778702676443
-0.027235318406749327
0.01302553433935565
-0.015033145781841376
-0.006360839252774966
-0.019440493642774077
0.048134803456031716
-0.05064023376385984
0.03084761222969251
-0.028948512222186445
0.12278987710126797
0.1617194520623088
-0.06168115661324406
0.0059373353872363204
-0.005308614420322966
0.007389329127847689
-0.020708861798266313
-0.04918555984021826
0.05750668398245897
0.12646396741778626
-0.019603642137505126
-0.040095007507623
-0.03813041968037799
-0.02210507617032067
-0.008702223338000196
0.017027627722178664
-0.017372197067256064
-0.017026744460913026
0.027280257989319476
0.029086002341221856
-0.026985236130600495
-0.030286747260789598
0.008477758092025242
0.007303675985455269
-0.04209190592047197
0.04189480465195507
0.033753309838273
-0.020948436832361108
0.005324312838832421
-0.027788489623349077
-0.034120394059467554
-0.004491156773848179
-0.002797832075144985
-0.009697077389921172
-0.03472631749552398
-0.022766900029255497
0.04725097842305472
0.013564400980429697
0.007095518579000264
-0.022608815873858993
-0.021330263454349623
-0.02392313588666712
-0.03211873060542219
-0.017505977025007096
0.041047873665636544
0.02319176341910532
-0.0026013740837461997
0.004933830228779105
0.016466701662089352
0.12542348015778473
0.04032916635626349
-0.03687789049277958
0.0010267452199225736
0.009878609390194061
0.0023217386771695247
-0.004826725176702861
0.0026928938374154924
0.01950988383001706
-0.03887803075181052
0.036060699582085666
-0.1040177354975783
-0.10335262311444801
0.10726789972957072
-0.03850465758509402
0.0037054655421285545
-0.009269435919696426
0.0054015359061998945
-0.026580091874458332
-0.015644486528125546
-0.015633820739782207
0.024513672533531875
0.011265234849818954
-0.011986434285795277
0.007731707974451561
-0.03479088430870099
0.005477506253337732
-0.008359415682339277
-0.0006893062658225807
0.03807450636942798
0.07827682335970756
0.14419832799461696
0.01687088715162291
-0.054107400596367566
-0.0558260363542242
0.05286707987582617
-0.04404556382845062
-0.019936495975475182
-0.018699005433598325
-0.009281978889250373
-0.016036132370194387
-0.023866714392254053
0.00231035632247584
0.016152772394961584
0.07375166432075506
0.046561386141320875
-0.2770994622508144
-0.024703402148699153
0.01801532412516744
-0.002814058497462926
-0.03828429532954197
0.002060449130423327
-0.01890223413713453
0.155618137788956
0.05577085563612584
-0.010666356060693485
0.02448169402448126
-0.0017085278384430579
0.0627820434824619
0.022751514367895093
-0.01510771971178067
-0.05491753764419473
-0.02322276038999748
-0.04377096573974123
-0.02790646871674085
0.015611016650933032
0.03294446167547683
0.008536466590830807
0.0030590809850649537
0.003731400316675463
-0.02477642512206859
-0.021418590098142894
-0.02784210127466007
0.01915278869995436
0.07557728117304639
0.011013178890149978
-0.003401566847784497
-0.011220850759490437
-0.038537487213770046
-0.03080096894403157
0.02333001893031444
-0.0019067431672923727
-0.0022286843844045636
-0.006480640934272381
3.0352232035909757e-05
-0.1123611606917775
-0.06969708330448941
0.08467087989204647
0.01196632857294833
0.02939395987123037
0.06501589307916227
0.021099434783007145
-0.02486351091739871
0.01290680556564733
0.03183382520839171
-0.024030269551633898
-0.013139106059568362
-0.02106474097246971
-0.009135811656529798
-0.00028174937651919286
-0.05477627311206916
0.008470004503543021
0.0053469198941366695
-0.016759233061772023
0.15372434018381706
0.0136569403368761
-0.06989799676220852
0.023618408740665422
-0.020898664796426443
0.036266986796623324
-0.03314582820361591
-0.008546541240257412
0.015957239868414727
0.030246164013097657
-0.031037554433231262
0.003013865675570387
-0.02246248393551653
0.06371649619972362
0.003045774523953363
0.0037210976221394793
-0.06434184285669771
-0.022762036180402553
0.015327927215758987
0.0038105331677043847
0.013183991662074566
-2.856198014445576e-05
0.00498083083376719
0.02249353042772262
-0.03055433580907826
0.008966696314529846
0.04646700903934123
-0.0024552891553484553
0.06503634993831695
0.013192830599855739
0.0017327894616277718
0.0019972918350214283
0.030337589739450624
0.026156135810007114
-0.028764473060497578
0.052073643514269664
-0.00839233003807522
-0.0018456767618152006
0.006206956205141013
0.027733237934314255
-0.014291254783440198
0.0760167333784262
-0.18864011694289806
-0.23937857767616955
0.05772965174796431
-0.008290094912680611
0.021304793674252115
-0.011288756456773713
0.01224091703850079
0.007655917114911955
0.01891725126079199
-7.658707962765907e-05
0.02729317178279999
-0.03905726201407003
-0.09807807836957287
0.00038917322313896855
0.021813805787178637
-0.011414025860156192
0.025542729735259458
0.0008771153905943503
-0.032273481061684185
-0.0025768403913261086
-0.046351542526993944
-0.00041397141458858987
-0.002082634211399068
0.025387947532817014
-0.01418245176405929
0.03441208771310779
0.043060491454492915
0.007133809031204268
0.0087068901531161
-0.006419941567308843
0.015331377528205627
0.04338721956228262
0.024900711357652882
0.00019464092491434343
-0.005477142561575696
0.07147682434802462
0.007934636971559885
0.02800912709402729
0.024101213654215595
0.02493988172282856
-0.044120313092505824
-0.037816183309874345
0.04903667648850461
0.0023573966278615513
-0.017583416787497405
-0.006611916205158434
-0.001671080411222143
-0.037567574750023605
-0.004874047387262007
-0.010925424557709488
-0.016994976005152332
-0.012974938939211632
0.046904971361775426
0.06144309340237824
-0.10762200989915346
-0.07715960287622095
0.03527463310533747
-0.029439970425658817
0.04854516330108771
