0
0.02279220232392047
-0.01861618934215649
-0.02148902586861872
0.04153218051702172
0.0362061221904125
0.008306496011441629
-0.030020513447646124
0.023148852536437985
-0.008337617655435153
0.004715963368055187
0.02194176530245293
-0.020069402597897485
0.014009851350159386
-0.052333505851869286
-0.049590199721844155
0.0025075513439505414
-0.0188131817456915
0.04669507820441719
0.023942687133956465
0.004114990645404518
-0.011322848659396215
-0.005997447555086518
-0.018436127373949965
0.0070213761660069055
0.014658360122203382
0.028569917972524898
0.054956689324596235
-0.08811474354420566
-0.030130009141290583
0.05729857431020844
-0.04033879352369866
-0.03468359609026131
-0.04188288344439047
-0.00455004377226616
0.008463874848802677
0.010631568783274153
-7.886357978329606e-05
-0.008889175514349267
-0.005206179735233962
0.01965257052518314
0.006043279249962324
-0.009252955599771441
-0.03665019345767498
0.07999146369848528
0.0809619711513069
0.0009088272134018401
-0.02425776245988284
-0.010280349599759675
-0.028187029323658002
-0.010075450816260455
0.0466684598891332
-0.03066042280332359
-0.007081831340308496
0.028890028377484795
0.027879025744530675
-0.01761908949577384
0.01721281049675732
-0.018167948380423394
-0.002851200774148143
0.060613165632847237
0.04409558365486558
-0.002950443870023749
0.02785598585019559
-0.045533196875893495
0.017991312893298913
-0.0451706823037325
0.01367970292849814
-9.17646943318754e-06
0.02136474953334724
-0.07798727141820642
-0.08969577884752183
0.08156339713998684
-0.022734455871876526
0.017724181631290834
-0.010116171067012701
0.03453410910005373
0.023527018310732305
-0.025092233778884407
0.04735465595513239
-0.03853556231024218
0.0029405842611036964
-0.02614212185863497
-0.14653323936137544
0.028170586779090123
0.00046238251417691774
-0.011081955755879218
-0.020878440230382732
-0.06257898639619033
-0.01164998090943417
-0.007765505044890417
-0.003795540546190349
-0.000848854744932436
0.007597470969354619
-0.015049680910297292
0.0437489946561295
0.025769794856253837
-0.02190762218620977
-0.0011034889057164998
0.014059555699450816
0.013338377788330621
0.015211660875947445
0.01288065537277621
-0.014938206029314862
0.029979430794844268
0.014566948908371782
0.03965113132725197
-0.006418790890837386
0.027482046522331022
0.014915392894780838
0.00998279315823692
0.0023104434864062136
-0.013967522291196745
0.05164625854746161
0.05758237979235925
-0.04691830155919271
-0.016380691623937144
-0.005567914818662605
-0.01571041460404712
0.00698282650189667
0.01182204491842093
-0.029030636497839667
-0.05960544133203957
0.0014854255914571331
-0.01303957375430114
0.027248568460832092
-0.04174606620328481
0.02901411470126067
0.004810881961934328
0.018747459376932903
0.03715836556415813
0.008187128227680123
-0.0026962645334722866
0.01583636623003919
0.022438708733776517
0.0030505941013826646
0.09454824677735608
0.01967352556536604
7.807455698090489e-05
-0.0297314814576445
0.0136279521389973
0.0016440144498628172
-0.004388756945855418
-0.02575771386240555
-0.061974155095754255
0.014711763696309083
-0.03621247129590395
-0.025590394794736494
-0.01888807943308517
-0.027376306529178426
-0.04894250771150604
0.008232964454088562
0.00988706319802835
0.017569340070342814
-0.007088109039475561
0.01610264622316116
-0.019239541973258178
0.004075571314346837
0.038083707531811735
-0.019002670497258407
-0.03432226096103033
0.009647720412428154
0.01641072572976947
-0.008003213744439805
-0.019408278097216104
-0.0034096212900128343
-0.01631494979576658
-0.0020059222706862016
-0.016089244975141116
0.007331392298283312
0.00387204111633723
-0.044825482502744575
-0.005612183591249784
-0.02870440849067094
0.004591732439666873
0.020670523006066897
-0.006010673680951759
0.0007741782500374636
-0.06314047998411473
0.01615226632710921
0.02492514173452769
-0.023600731865015306
0.02010260630605234
0.0158509621381962
0.05958053950098771
0.15465530805090777
0.08115747415827458
-0.026919336006626274
-0.0017632288547339914
0.014415442100679422
-0.021986497771391944
0.015005281246216157
0.026894422396645388
0.03361642532846088
-0.022640650594149957
-0.09141453153798616
-0.021154545083883588
-0.016748651405906517
-0.020567231151227983
-0.010165750988069957
0.027089968329863198
-0.0572635333270024
0.033637229593520085
0.03183625151943867
-0.006905860510331911
-0.03289013534651545
0.022080053806455543
0.011441722199539284
-0.018529555913486557
-0.055174903906296154
-0.009398653472646066
-0.0002217191107796394
-0.03539097638231314
0.037228556392972914
0.04526748053098545
0.026452145118720564
0.010234339866491516
-0.02848929008800743
0.055743375085768126
-0.004889062784998921
-0.05476268823016493
-0.06673101848509151
0.011528958645238351
-0.010381726363892079
0.00034584124935690513
-0.011237720806412162
0.01125245615222422
0.02523083502555173
-0.018310417893061093
0.0041946128671361054
0.005135306156841747
-0.00037626285115468296
0.022806823667945095
0.0013215779647972187
-0.0026426676803889488
-0.030980219224577644
-0.00255045930649751
0.02276217887116807
-0.006970479930709965
0.020044597099891575
0.015274307162867456
0.0033201931831064804
-0.01973609756792805
0.0036716824545049358
-0.005347850167236607
-0.03210839660645439
-0.023669704285188192
-0.01119541128915569
-0.02602021262722938
-0.0057935079666772875
0.1505557071491325
0.05052296070711643
0.02358459047836044
-0.0008559920064450449
-0.010871981234678465
0.005454893741731623
0.04479694235913338
0.002886656992469593
0.023093534495177512
0.011752722609733117
-0.0009541699816439814
-0.10386131022473033
-0.14874819638363693
0.05482363027018538
-0.00029726849510897004
-0.023093129355131397
0.026449030714110623
0.0180980760091157
0.034174138242113176
0.030386853908449026
-0.002260683035262692
-0.03175045533975687
-0.08454298690932784
0.0466338041008742
0.010194511777109144
0.014059933529044555
0.06194539251491624
0.024357809615137352
-0.012001502350511768
-0.00482205956145143
-0.010447722972091561
0.002799843923507728
-0.01641716541080289
-0.05952238591045536
-0.16014096902056305
-0.026532488796341
-0.0513126211340707
-0.009833981566101614
0.0411853787714217
0.05523849382189992
0.008895718631013868
-0.02986011551455307
0.012373955749991016
-0.01146712930993632
0.019611224027988833
0.09708659151633835
0.0004989370186430734
0.0024643678957924583
-0.004639014838766931
-0.006474605055164529
0.028025466771946724
-0.012901257523633658
-0.0010002288980377793
0.0010124941718349797
0.04489861835246562
0.03560196528352441
0.011761621377794058
-0.027316679896414318
0.020142290552601198
0.0037556367176517537
-0.009424847694481455
-0.01171673535349587
-0.03616484570728128
-0.030752377313493274
0.018971303943505425
0.02667467422237448
0.028150515716186538
0.030576844068659483
0.036575738605783
-0.004770061747537353
-0.0025049255814226833
0.00407764903390511
-0.009677368999608811
0.002395926592050442
-0.017947073795140635
-0.004940224019083063
0.00892486682420224
-0.029784235417973936
-0.019860526742528323
-0.011522128980761569
0.011655171499841478
0.0012233557025836891
0.09536418569426552
-0.010887857003268811
-0.04420034122151695
-0.0006467621266183512
0.04951443022893509
-0.07590580158673997
-0.06832485839299311
0.034951569299900224
-0.036862301808990444
-0.08712083644404386
0.025040207229608646
0.04139304106380644
0.0008260996787851786
0.01762408571691263
0.02258375573981656
-0.012640595410069552
0.0002454668034164809
-0.014402830048114148
-0.028178304455222153
-0.012569542475004232
0.009178128607004898
-0.0014439980755239204
-0.026377312930103366
-0.05325113729161821
0.005005996013333016
-0.02334704335679304
0.020010132130013132
-0.006590395113671526
-0.0008891014747127446
-0.009964972078032522
0.016789774400131956
0.04908521816432606
0.022378807998416645
0.036509199605943114
-0.010861838118110527
0.02472407216914073
0.01894333671281401
0.01233524356055993
0.0012624938893685885
0.0390649914623765
0.037051341062101825
0.03411458433768118
-0.03018325985582517
0.0012421928839575073
0.030102801089193002
-0.0485985627305323
-0.00021359142734744073
-0.020750746795895357
0.03866659076477206
0.0027871851772853125
0.0728041470843504
-0.009696504947130686
-0.0963188872944731
-0.009243885472283001
0.04385654527099247
0.032209414748261236
0.029915239919382344
-0.009316081222159387
0.05118237609126329
-0.08529493280674101
-0.12945590580562918
0.005897895685426488
-0.015743237164881473
-0.0002759145794714226
0.0012287252933950838
0.03530035114038295
0.025408979399979836
-0.029777113776704608
0.02716478540203585
-0.1044359216171312
-0.03863100824253384
0.030412881361589872
-0.015734374076343732
0.00691537554868729
0.0665797026418528
0.0058541477315080205
-0.029611293213113888
0.016920804473623326
-0.005845383366770111
0.05521409599664548
-0.01550527252105984
-0.0002826733733340826
0.029199145929898643
0.020419105339036122
0.006511319342247147
0.04492029767229325
-0.010145968514878348
0.025644715015256767
-0.00803599256262408
0.03726889527918024
0.006529723183390103
-0.04955020686282623
-0.04080417615034058
0.024969002174854794
0.04759359890762302
-0.028638043363540495
-0.004057039873370529
0.014045601363172455
0.007224987210444833
-0.00018031452398587774
-0.07052381723122643
-0.10869299816327628
0.038832521166892245
-0.08356458792334227
-0.037043034089595014
-0.012075411167621251
0.001862367924534851
-0.014962064329862742
-0.008126812359383895
-0.019309444104546995
0.021006639991593364
0.0021623876874111206
-0.0077828776555942305
-0.017751383293825175
-0.016133585225650567
0.023751960522338786
-0.020685714960008716
0.026595108998352022
-0.001523808068308888
-0.031119972563014124
0.043765263839889566
0.007081647480426206
-0.036077043171584
0.013003751062233584
-0.022760469633881914
-0.031908418248201356
0.027943893495859306
0.028170742237971665
-0.02079340444850446
0.07481791223403374
0.001435709047621842
-0.026815791826659545
0.002082812645865398
0.012750353520563796
0.021113667754874724
0.01760874705154726
0.11134927258166265
0.05277213164203967
0.002459552193135254
0.06904841132796183
0.15064335588087122
0.007531623412607202
-0.011750018250457732
0.0036303495888843165
-0.03145207989276221
-0.029939184469396498
-0.022791464963006283
0.011779700972781039
0.0073702951888473455
-0.005207201254649872
-0.006353199357793792
-0.028024726431269777
-0.009572796703366835
-0.0423593455192584
-0.006693987662700262
-0.026796494861839878
-0.025576604825789606
-0.024392487964060364
-0.006375339632821796
-0.03480854338044487
0.010578269465375732
0.028115196616660718
-0.025858127430929533
-0.042643994363173676
-0.0678756920230468
0.020766758554524017
-0.08083700899074613
-0.02725351036561751
0.06801121089015534
0.020635596206825254
-0.02704519526797223
0.037742628790662425
0.03734960205457538
0.013245984018926803
0.05793862063735261
-0.0023606017003600897
0.010343695573954061
-0.00986075671718712
0.0010150828663965331
-0.01723473438697027
0.009675355462316439
-0.012428677918783274
-0.020180326602927096
-0.022613345824764368
0.02723081844240761
0.08106643046613697
-0.018419621773190405
0.0062630908232083424
-0.0095731683313158
0.02674296696839743
-0.017117996542257964
0.015592445105359795
0.019461260328914213
0.01780243225245165
0.009905754886379448
0.0006796074654082268
0.0062991761155750834
-0.09621464574767129
-0.02665924353037277
-0.03891210266988004
0.008967938633308605
-0.04825010649713189
0.0030913020412289397
-0.008453071564310742
-0.013197431297484668
-0.015378369657554306
0.04183374777353079
-0.0027185164623949516
-0.02520327372422592
0.005422816928022026
0.03503412043501677
-0.029437198400333903
0.0025390670251403324
0.033594306803831755
0.0311119713891409
0.024615063274695325
-0.02194217282496425
0.02340793469341655
0.018190089244243056
0.02728985963274034
-0.021438485566357048
0.0044440664371069956
-0.010368337221804674
-0.0409168580902699
-0.031755533915550305
0.0007255585866699648
0.0037602656905887577
0.005914610574942941
-0.01286503197911143
-0.0008130670699506807
-0.013367574309934852
-0.004151062886739624
0.02008070209002438
0.03759911222354612
-0.013968412681936894
-0.027373076023507605
0.023130078762667528
-0.03671283116304123
-0.02026193891215423
0.009892054519523559
0.014821741288812652
-0.007212272258978291
0.034295645277812564
-0.0076225500819201205
-0.004687158128567918
-0.009718435195726018
0.039199006259530114
0.048129730938407514
-0.0024461800770655046
0.013192671061486997
-0.010837004928725894
-0.022467980203634653
-0.00828075188000526
0.024152726988146907
-0.03790824032725099
-0.008880544302116973
0.03901199811660935
-0.025268867819520313
-0.03373824227804241
0.04546915487253172
0.02333322321363374
-0.034676063411223146
0.001345585770820449
0.04107450998662998
-0.022241510662604005
-0.037834898237689374
-0.023413681486152586
-0.06934885567780946
-0.05573253185629065
0.03759164159006373
0.10270453934349946
-0.01872551766884186
0.0009733530147866636
-0.011199871932651593
0.011970060835629884
0.06698159167055444
-0.028609434072724992
0.026449363714074324
0.0312130593914736
-0.002892260419320648
0.0022330314054942826
0.042370691141521165
0.01498260031628874
-0.08582371089436966
0.04298022056973885
0.06893073185560727
-0.0020318226792447698
0.10410589710814286
0.024428015546571542
0.019768994176303553
0.012034170719503422
0.01184300793214367
0.009908529557332917
-0.11916393642865407
-0.1616378921722995
-0.07428757091616629
0.0033422880023107585
-0.14151037592936355
0.014451409296845977
0.06726971233480519
-0.08110433865403234
0.0014301747784087992
-0.024410646085423253
0.040067708105136976
0.03217764996934019
0.09646278530197654
0.07462190556617346
-0.0732642311757106
-0.04578149251761317
0.02115176023680346
0.040511748650721824
-0.04694375249897099
0.0534414671053287
0.04223637462715231
0.005259930616562716
-0.0022230387230676952
0.05156487852294463
0.015269388243987471
0.023737950576560533
-0.01591652238310334
-0.07167923562382623
-0.023432911733442603
0.011236633962627016
0.012132181382085905
-0.007185450012204123
-0.08657205521140787
-0.056447578298275215
0.008586490423172066
0.0812338960887037
-0.0006591100329171645
0.014153845757126238
-0.005935708155368978
-0.14961825716859856
-0.014886632722395179
0.01570173708783119
-0.007792880721777331
0.06899517035664057
0.02680881168738252
-0.02835144799071073
-0.05169481115764049
-0.003974776333031453
0.011834419945271247
0.04437161808693613
-0.04771104964770105
-0.023638200570784678
0.003737083667574734
0.11573667905699674
0.03552732460192609
-0.036547136187513346
0.010293027566890626
-0.0170840871172245
0.03515979669174873
0.02615687431925892
0.03171927072373847
0.036456027587560925
-0.024306845141672112
-0.0026642645510930917
0.011418626329173651
-0.016100082513427025
0.06827993077089771
-0.015153734801890844
-0.07639174944831593
0.02234174239977191
0.06712787861517686
-0.03796603956702032
0.010407046551619965
0.006707356610345083
0.03268789518320627
0.064552639935809
-0.04398644330880673
-0.026741410030953518
-0.02878266770684207
-0.008024011151890737
-0.015281425430226042
-0.03966058068662293
-0.008814437828013026
-0.01691990057894501
0.011095441614399622
0.08590393019793484
-0.0317673574757556
-0.02756756133334974
-0.019358174512779613
-0.03631357829395632
-0.05045717646133857
-0.0361103207201566
-0.009580730018741771
0.0483709642008769
0.05352009995345634
0.01098787612068746
-0.02250824625174913
0.03785024987565838
0.03232743580744141
0.05294276550471822
0.020174171297109023
-7.255892254687225e-05
0.035225514068964396
0.011289196334707912
-0.006664120820730178
-0.03508620302585789
-0.05435161382364989
-0.008190617810461603
-0.017978527025196193
-0.04622292872510918
0.00048401010446570735
-0.02907172581143777
-0.031532165306760916
-0.018754942319870335
-0.019804215506224156
0.022264413993961316
-0.0007659279848834176
-0.00010135192236833251
0.004958853163750256
0.027225140144231087
-0.024311420548475123
0.011489463801816133
0.0036386580654859547
0.027851869730557584
0.00394860658668381
0.009073775736473642
-0.0015674801220700782
0.00569706631008333
0.023521830113707266
-0.038495735093679255
-0.02135868234375785
-0.03601608119152436
-0.05205367497024668
0.0010728837663635412
0.027186553901841385
-0.0043003645897983596
-0.06936294248683751
0.00786383776675882
0.013878799209518681
-0.016429260398441118
-0.04381916548311371
0.020739269855322717
0.014243355904404382
-0.006050026500775643
-0.022535530313021353
0.11764721536435888
0.06521188651313085
0.06693738438855132
0.01884142636569391
0.014927763472624183
0.030599230415128194
0.011398928289597278
0.037005728342851305
-0.02281824333193242
0.055947829512886564
0.03452184105667376
-0.020540083533408436
-0.02080444152173247
-0.03131325015793909
-0.012175590809863555
0.02814024386109236
-0.031382062893928676
0.04941751925439102
0.01948604248590716
-0.020001063370234117
-0.020690690978210417
-0.01516771447504963
-0.04166845388483539
-0.03295902704033211
0.004459302271369456
0.04026277604970003
0.01824303613107565
-0.01968622562702028
0.006544355540493696
0.01993887774507851
-0.049317965683721175
0.0025596110818478395
-0.017352689120328328
0.0047386337227744366
-0.011046898951803679
-0.06343779972703487
-0.02652325129335856
0.003858991469150731
-0.019307103105398186
0.046995470470032004
0.01716049789682918
0.020274394377386516
-0.0061748656548910276
-0.0159646227836614
-0.008731721215482012
-0.04550986416472189
-0.027469216448556814
-0.01004121073129155
0.012126824415887244
0.031913558728468454
0.0016553607560031642
-0.020866305324333395
-0.04775561208055218
-0.0031999961258457154
0.00737498064633044
-0.01777452502280822
-0.03446485009226228
0.011468647853045806
-0.020436366467402687
0.050084633980684336
-0.029058744019317302
-0.026782688196352603
-0.005414169057910441
0.012538578343893303
0.0014846896193399755
0.08191461941525427
0.08220903484446422
0.004799763174119713
-0.003189252007131845
0.03269898610105363
0.03718529302919071
-0.03202088369233759
-0.07515945480499193
-0.037272277727246284
0.006015997482584253
-0.024359676223060716
0.013115604647640054
-0.015454498266011467
0.04456125837264626
0.002432146288768518
-0.026630245146702886
0.0033149390500734083
0.017958054269385806
0.04755030818155681
0.013105843888842826
0.002095732772673742
0.018215178016917223
0.0256013507773151
0.020086023137629555
0.023217619693747523
0.010217098908976586
-0.0005619435286379273
0.049447077925594
0.016917098435540134
-0.01422802155061033
-0.0004802762700671008
0.02571584693472956
-0.022143183277091822
0.02887118647261887
-0.12422016305909396
-0.20882608681383272
0.030367143191028952
0.020885755594710214
0.043854361148194285
-0.01581187853257595
-0.025248630888938126
0.004760510851702413
0.02084070831600061
-0.0041321868762467144
0.03289475510075936
0.02342019289957299
0.021017121641385795
0.009002845705552005
-0.019019891664186293
-0.009638262623102713
-0.022815812820689837
-0.006202848978363402
-0.009793924510358994
0.05753026484521018
0.020487775600523114
-0.022224205798238122
-0.013287141193560973
-0.002987211146501355
-0.032788724056238276
-0.020774481137508082
-0.005095505293004724
-0.03516923595557075
0.011242115305740128
-0.010681568467246761
-0.0029254748064606474
-0.02648012145844868
0.012574181308149062
-0.029378639209053706
-0.08574108157107942
0.04969210382783126
0.031656076173232406
0.050437176099866504
0.0417847010233714
-0.007231474916525025
-0.02281392813316887
0.012580831624463275
-0.010241718692776994
0.03521722213319645
0.002666916458781772
-0.00555306826131083
0.038879991623235605
0.046088399155651695
0.06604780791766499
0.031787836722804164
-0.012595926800090747
-0.029825827142548972
0.007539256429810204
0.021222935959050365
0.01307062450483019
-0.007835914387667656
0.011828260200787833
0.023543875997745583
-0.010597153248647385
0.004109977508116227
0.048795440086738515
-0.010416713919090437
-0.015770137244196902
-0.009535289947073934
0.09959241449244415
0.05517492134812398
-0.1584895452628929
-0.017943266026655788
-0.1433924502252132
-0.0657827332745558
0.003220132075772196
0.0021332450516012803
0.023478804561930404
0.02366651601630077
-0.046945784631001235
-0.15722067790431715
0.004322558838208745
0.05165620947078579
0.05207213708705682
0.058334631064294915
0.033885930566805965
-0.026328856319181637
-0.03207778324498883
-0.012882702607328291
0.031702046886173535
-0.0030037476396425587
0.004130696851447591
-0.011449296818050953
0.022042671805735006
0.012594589702407427
0.012870346783619924
0.004018652672863427
0.003009429264741479
0.01810230301162536
0.05261080368377988
-0.08061932491815496
-0.03763030872975986
0.03366576423797034
-0.0362482980906979
0.01585531693965646
-0.04066577661445041
0.01161761347303872
0.00840615467848584
0.0012784009555639614
0.061568906066148316
-0.0035098985034544192
-0.04108974121760709
-0.00834089248474813
-0.012878323036812543
-0.025515899897294067
0.012057016889737867
-0.0222500369982162
0.04474890835356844
0.041467976287320685
-0.000494530384210844
0.003144084281329649
-0.014239127327762537
0.023040291119519166
0.02148274656448195
-0.07468212366234435
-0.04852859463841541
0.0020617096194282497
-0.00010685948045020604
0.03799223818380351
0.06224804949298417
-0.011774888609838673
-0.0047386538736521756
0.005522521899882711
0.031939477753027204
0.023457257603440505
0.03466710579700569
0.021104988652661607
0.013013762661838053
0.04744220356364752
-0.006785807294555517
-0.014941316685279692
-0.008003223537843494
0.0003527124515631267
-0.1451676454015914
-0.002991317807736931
0.017051008888346576
-0.008687109980795651
-0.030957360898078632
-0.01653330839833541
0.03451009037200239
0.004264730800989697
-0.010148312139967785
0.008339047403557747
0.02490520947957126
0.0069361278925844086
0.0033726495586783633
0.008539022185937864
0.013032520305935184
-0.010471095671854414
-0.03460181206677708
0.02505118382125193
0.053970805765895434
-8.844509343152282e-05
-0.01497562748323629
-0.0056594384744031645
0.1487722501272098
0.09314761888149954
-0.07052786972614603
-0.1269119759299044
-0.13907868812445778
0.002620988744948323
0.037652094774622426
0.04994945046958048
-0.02220476609865101
-0.07794469671972147
0.00897752817658066
-0.008520996229332226
0.06482309220500315
0.05561053030869626
-0.008737406262234185
-0.09777178276790278
-0.034026160019353616
0.03768381124719342
-0.011382779644217968
0.0020307273173276103
-0.013651165345582684
0.022580879082574938
-0.025047928524730055
0.01773333070679554
-0.015519122310612806
-0.02363052844468601
-0.009978997702469744
0.006818887073843872
-0.015869751458947364
-0.011722321865754767
0.010118964731108156
0.03620518357332764
-0.002524789117413868
-0.001241008710958568
-0.014104114554793141
0.03176043108032843
-0.013531475034300295
-0.009875819432778144
0.032996892337997547
0.01813275124288644
-0.03505494060504618
-0.02492162421413576
-0.009792229717595921
0.02067524537876018
-0.01390150841524867
0.010248511685690395
-0.012003873830558964
-0.0024598530384215465
-0.05587590335525601
0.07470012395847685
0.11316530864198311
-0.02419324070258565
0.01744446669753459
0.015276915531504289
0.021830641098260672
0.0007390183271370662
0.029738888731511544
0.07365883668376842
-0.008628599433221128
0.00566041596484143
-0.02205998116629307
-0.0031470217516169517
-0.03048129113987843
-0.05676944456856451
-0.021387194527553458
-0.006981935897133787
0.013622939463686349
-0.026858346467403083
-0.029813418451330755
-0.03941681002908292
-0.06985102247305999
0.01679905561124695
0.027731971742968726
0.016972247970985836
-0.01593097269683004
-0.00823382839783867
-0.07496020630856627
0.015039870368015674
0.03550252801857081
-0.021717817081559506
-0.008419380985786895
-0.01904708199568623
9.230678729386932e-05
0.041906138356194576
0.06597040887444637
0.12220643834477206
0.07172763381049273
-0.014449967568323134
-0.004847695894662968
0.0012862109218275408
-0.02153749236954211
-0.05492428496535343
-0.050888709124519135
0.026116239686950003
-0.006099407943332659
-0.055066611470085125
5.151047706288724e-05
-0.06603634413127596
-0.025687476477066574
0.039734902533506554
0.058107277508565126
-0.0022784072189986084
-0.0161078414637174
0.04187030374020218
0.0018181026758745356
0.009794880422951624
-0.008139987420431144
0.048627586599128
-0.02038922387607095
0.010363195684202837
0.05459051516703182
-0.03613265837931563
0.00019893435653527152
0.009924847245409624
-0.04972406058270234
-0.022900490924923928
0.018319150141704935
0.041116668372869404
0.03415558164915159
0.014679867856912027
0.010303346599218458
0.018550773550189248
0.0358420406520655
-0.0024582197293880983
0.03654727528233927
0.05459342696482859
0.01659450712006721
0.015917344931721457
-0.02419968513727689
0.0100534750719347
-0.03792045949670443
-0.07334940223480628
-0.020635995372308535
-0.03040067825106801
-0.14065112769112512
-0.011868342398203759
-0.04637708503774276
0.030875366679081202
-0.0005267723437132047
-0.016316544115991125
-0.02720540648547395
0.018374098869779705
0.0022944986873746583
-0.0384271912575115
0.053359015138279946
0.052525125197265515
0.025431252833047095
0.014429771408570645
-0.00764333093086119
0.06052635542156207
-0.07810705014375903
-0.06950668636342994
0.021481983440649867
-0.015560000038647685
-0.019942642660318383
0.014090548816303056
-0.0005062621122847747
-0.03175471685356473
0.042709615115372176
0.016043468706551264
-0.03457267614569918
-0.04020003973060102
0.030485798127046774
-0.007514413645331178
0.026038740676032315
0.0011017261334588097
0.03134767563783247
-0.01604542432843987
-0.06449153546788883
0.013942521455011769
0.03328667735409377
0.08602253722689107
0.052483709415251094
0.0061737749221954285
0.028217921724228007
0.003349670541011146
-0.1126110421016627
-0.02747258603469064
0.005116571714599806
0.0230347651934871
0.022419786259594076
0.007392242525695147
0.015186725300734814
-0.013467242939313964
-0.00437344330101135
-0.0013218361576789895
0.0033196585464924017
0.024864446984652473
-0.08630721106214738
-0.0033080934182767585
0.004061137434353162
0.017422071301629687
-0.019588232874220228
-0.042202463971625734
-0.0946070921714707
-0.028371387337581037
0.007921266415077056
-0.02775195379437928
0.012829683597736848
0.0183957992075635
0.07509328699766465
0.0750992498646679
-0.03813630053801456
-0.03413732243706255
-0.09980217401984108
-0.06337144354751947
0.026930202500750088
0.12957877860125439
0.08638836067493547
0.02837762318932435
0.019419690676910368
-0.014777857441009738
0.03624521706434278
0.03714477319989612
0.057493132446849234
0.060601790133149376
-0.01126266375681806
-0.015424305665556009
-0.014183134438416543
-0.009840092837131552
-0.010064585894753031
-0.0063922744782515546
-0.02538271802222004
-0.015107260108264615
0.03107181290927804
-0.02615232924481121
-0.0230152701375982
0.003050489814729995
0.0036127643780079458
0.08853045076215897
-0.06876538259043755
-0.09411252046585071
0.008097176064095315
-0.019858459468530668
4.8629890767730795e-05
-0.010875221666039919
-0.0006103307631383924
-0.011191540342929332
-0.05502118121906301
0.008084199528492304
-0.05771791883546478
0.050955778371948646
0.15144679128094715
-0.012296084522445754
-0.008217639073846289
-0.015489541717408878
0.05351503659488014
0.01908959800111278
0.01573948233895297
0.023531951449044644
-0.019444800342121097
-0.05754946263381988
0.01762151516741771
0.031177206517333845
0.01624810484791165
-0.04509456383103838
-0.026691975773932456
-0.0202540399681758
0.011495191061146104
0.02488591910080714
-0.044412996855695656
-0.030337701603420617
0.03831287151725764
-0.010339120734004644
-0.0048477038048947265
-0.06350723871838294
-0.013350324846209375
0.017662398431722168
-0.002160159394420206
0.005351143716930126
-0.03171330957852172
0.06530599432175856
0.04387876373209561
-0.006201578066808828
0.002129184633853293
-0.022175897428007595
-0.04747841121753524
-0.0626854575018484
0.004847237464961841
0.0190398791510182
-0.022989350183424625
0.05592750206870824
0.041330174906431344
0.056878710488983214
-0.022508190196039522
-0.03143089438137801
0.044145061765584574
0.004667236647838797
-0.028853016533048954
-0.03269772001509444
0.018676711762268036
0.034162275333552275
-0.013134922399419309
-0.026124968286899433
0.011160127323561407
-0.019937029218103256
-0.006304309257627273
-0.02525545356217372
0.021013770106943424
-0.008926201985117573
0.05705380184621681
0.021025255398225536
0.007167578050603766
-0.021911001408070056
-0.1376918427035872
-0.03918025644095745
-0.006745867622033599
0.0504804276028298
0.04128739431635788
-0.013974212552665444
-0.04822772724926036
0.02070243144771405
0.11688859479816731
-0.04515202227911379
-0.06385042511983298
-0.03008934622415957
-0.01214082945421205
0.056642487702550655
0.05800317483636887
-0.010203681095117335
-0.02731384177629561
0.06424976344926323
0.07242998649297672
0.00593688052369988
0.013466940402879227
0.012842762062336614
0.03466230950200069
-0.006089215379840106
0.011981728676500332
-0.10111334061696624
-0.07631166568641667
0.025101278078597175
-0.05585163933540567
-0.029134704773955168
0.00992961769017382
-0.02215799213782506
0.031674916650510754
-0.0021882479741412685
4.0136411043572656e-05
0.03396142586636578
0.01889084906704352
-0.014540870993296392
-0.011236401267445729
-0.10937477150759543
-0.004765203405241038
0.03501877799233983
0.006744638887998471
0.009483789701671715
-0.002604798649194429
-0.01916588783470031
0.06604234452555376
0.13424416173076664
-0.05587000178305385
-0.033421872889725854
0.00029657127148115383
0.02297733791770456
-0.029828711028429777
-0.004246287092543368
-0.04394484321985312
0.036326965390446456
0.03320293741930899
0.14744200212874684
0.08112924262235043
-0.01587850744923454
-0.033094598784101606
-0.005407973043722368
-0.052423250120872414
-0.05128431761575174
0.017633824648272213
-0.022819879844788855
0.01787737477638306
-0.030502361771891008
0.005907452880288155
0.0022681208325092362
-0.040927334480336995
0.017188146932731928
0.043011869285951396
0.022789420842999068
0.005607877935195356
-0.0063896821056719875
-0.007830575033976533
-0.0052849356186837285
0.029787853222698883
0.02225399840886402
-0.03329786124833288
-0.17703170570997664
-0.02312462234135328
-0.04421599337952145
-0.018953950590920275
0.005373415786234907
0.024771196415437232
-0.004819596115527422
-0.003715905649797672
-0.05168937051000686
0.06505182070491518
0.0791257100909435
-0.010328031266193973
-0.03728086402616539
0.020323073440208544
0.01169640055423703
0.021939853954037285
0.001295245341627447
0.030745514076734558
0.03179369157928389
-0.017013467784706287
-0.031519654029534154
0.03062320356889558
0.05871196600870191
-0.03205622757994514
-0.023897318162823068
-0.030964325546027828
-0.053834744380088506
-0.009128834499892753
0.09764365328296716
-0.0003070357549650371
-0.026422111608631935
0.01573144994091251
-0.020731903046725834
-0.010120296753787799
0.04075715196147669
0.040516791205268785
-0.011700841377272885
-0.001944637570937645
-0.03693499380370477
-0.0009633647940212226
-0.0025617624778411638
-0.01111962862464205
0.009787101312036285
1.622285815464245e-05
0.003604089264061535
-0.01532502887431747
-0.02295686297109982
0.027777477398336164
0.009711117847383627
-0.018190096093521967
-0.014545837531356598
-0.01689670077854331
0.02227951130240177
-0.009557226925852771
-0.009034203285307121
-0.004543890895263474
0.01781181410332056
-0.014796849595837668
0.024169403091232673
0.03041513437382637
-0.024462540623347375
0.014401578992044639
-0.04688535959763427
-0.04293021395023695
0.07781345906858814
-0.01420080891436394
-0.012754219003066083
0.002406562576764725
0.03158871119736496
0.00809217197481141
-0.020014166939233496
-0.02063105902718508
-0.0019233436016431657
0.004950592842405736
-0.04152262733115725
-0.0393094082574011
-0.02735679308941307
0.011459693100420262
-0.022067531026981262
-0.025595989982930892
-0.027850301414428937
0.10358070050272708
0.017156931084069085
0.05388467469042406
0.04032561032003238
-0.05917832391008146
-0.01574456499075025
