0
-0.005282341774644184
-0.020057529166255847
-0.034580181682601255
-0.0016997522011553685
0.032036161389184935
-0.010086998205294871
-0.019594254217560968
-0.05809825505214687
0.012065687759447987
-0.0021982207823356996
-0.00446054844355054
-0.02228115033512371
0.00689967529046597
-0.008938917738805865
0.03411303713112472
0.026919249508486825
0.009521630041734825
-0.07659144394443212
-0.015373136889732707
0.017730964660192815
0.00276257133331216
0.06386533956778949
0.05383173298461741
0.048279186265804644
-0.04425831443037554
-0.006070065483524524
-0.016541944764883236
-0.03462144818178455
0.006059459524258694
0.012484203410490323
-0.045280806332255716
0.05754160330626048
0.05932988517671597
-0.011266471655954855
0.01141951517702197
-0.01987721011875477
-0.02265332681992026
0.0054376416020733434
-0.005279071779464517
-0.004868493912806006
-0.05251289417990823
-0.017383555538292267
0.01301172404428129
-0.005772652760054621
-0.025054136465744135
0.013881391814435517
0.04693774853138155
-0.050911905091161114
-0.045816231688076275
-0.0027738812701207844
-0.008188309308048697
0.12171647817755572
0.0780044068453407
-0.0076916872999957565
0.03310251414034952
0.03250505372081514
-0.01829002333180103
0.06228291861563405
0.021912596557629904
-0.052925909511862476
0.04400828133997138
-0.008828872458988474
-0.04733149964479224
0.007284939791559679
0.02134718692658884
-0.06775465090186274
-0.0015904068244730106
0.01602677783996596
-0.017783570718342946
0.030723877875266845
-0.024170853761193593
-0.0343516206597789
0.008601235290637159
-0.007031078593383321
-0.012410191846383962
-0.007249472814845914
0.005706989442025596
-0.016573269683954957
-0.0288545332642934
0.014314351622766524
-0.000576175400308792
0.00843952976026459
0.028053127213008244
-0.0043199343571394995
-0.014528008671983625
0.07519412550388191
0.05385606390682004
-0.03345640155658387
-0.0611931160845307
0.008978146815327206
-0.017048056364371667
0.013523834940877862
-0.06134524764980207
-0.03709239759884685
0.0004895856257587255
0.01616251883700938
-0.01193579498100506
-0.018535184996331854
0.013453847024061924
0.010782581456930104
0.04519026832819945
-0.0026246235994987154
0.01572640862373015
-0.02663417301700861
-0.02423150278654234
0.0099511120259839
0.0181135083151065
0.010526065178683807
-0.03488254097701251
-0.04338588388560534
-0.017428917671053847
-0.033932774503009085
0.004987905023532593
0.06370378548215559
0.06883212609970188
-0.15339557299400206
-0.01799719514388992
0.03617070847682919
0.04202051227942049
0.05230715907697565
-0.013701593119107774
0.020682863882800356
0.0032401702529781585
-0.001972389293451269
-0.006773798572734009
0.010770711022726554
-0.042064023868902053
-0.02034964823104358
0.023612097348221426
-0.002155235618602173
-0.022120139421544695
0.013639088637023313
0.028142980586457828
-0.01872794308558294
0.0071974908777478475
0.037937705717575446
-0.000950042025694378
0.003046492314112655
0.04678516651288567
0.0019968841502196427
-0.021351748190322466
0.046688202487371516
-0.004462029387871532
-0.02188237462906691
-0.003459964703705943
0.012323847041124018
-0.003471574526292263
-0.04132395604323672
0.015605292890890647
0.017706198204637445
0.03090350965598344
0.02272608763259273
0.022138233272264517
-0.008338912681451382
-0.004690699384510916
-0.027000262008098075
-0.03231101978091583
-0.0362983949894604
0.009109082404664279
-0.00911627932312942
-0.00527657611895011
0.013667955243877017
0.024830938794134078
0.005910148351954298
-0.02063798150944336
-0.007023249604835648
0.004454612701277821
-0.08149945084949455
-0.01938022818491401
0.009203699526543116
0.004888706098039255
-0.006890879414561442
0.029653034136769976
0.0610834864770128
0.004773624171328666
0.004848594341475415
-0.016591424085165923
-0.014949347693520779
-0.02545229907603892
0.011334141270123046
0.03417566773406051
-0.05963811515119638
-0.05803070648210552
-0.0061282924339184945
0.028012859317648752
0.051147942333212376
-0.03846246969678939
0.003512180203398745
-0.06909625874018158
-0.061536658857855406
0.01309349302906467
0.01858765400630599
-0.01374134004933116
0.009542521451743863
0.004076383265330025
0.019852629150391272
0.11083074069599436
0.05250449993574494
-0.04608381317187831
0.034720513504448325
0.05473327023183768
0.004407342184554845
0.015995401709336565
-0.019579275795101263
0.04593670102107776
-0.003873326412456801
-0.004055309385408486
-0.01068055011029077
-0.0032573934735273973
-0.0017024506178549869
-0.001667795663003423
0.007199630128909415
0.013394593782562518
0.008418108030473333
0.02125587748206151
-0.01179047357184389
-0.03102196500482778
-0.10086285434332738
0.01295253939268278
-0.023264494455836005
0.03812326507943479
0.002244283244854231
-0.012458401639823175
-0.0478423812442329
0.02658239058021442
0.008811864210334053
-0.007090091011732387
-0.057165774063446785
-0.03126375587940056
0.00508612872710742
0.03589172046240833
0.002949833884296302
-0.06005042785776785
-0.033361344978243716
0.1124318192738414
0.055905293472401814
-0.009870918983323353
-0.008027449476105768
0.003593545938047203
-0.0198072605442404
0.01829722441987486
0.0010316435165624769
-0.06056003323669339
0.011535020860237782
-0.010982622994468326
-0.009509433033953428
-0.025495699148746352
0.025008838404718063
0.02417833162926926
0.03050270899317485
-0.012298744123448844
-0.02825443494932632
0.004946277818447953
0.027469381610945344
0.007603077997377976
0.043533306686524845
0.017853088903848537
-0.022434034166761336
-0.01074263818850749
0.03337509364749035
0.02418645864380872
-0.024327896945719713
0.0026852709338618086
0.001391844553024553
-0.011737512960185282
0.02606957587997521
0.007391021818759593
-0.00445078924919399
0.021599693173811614
-0.029747458342380823
-0.03153740663040336
0.0033997796080603043
-0.008110809705809534
-0.024604818072607476
0.031101507509027463
-0.011127237017510177
-0.00688724391264287
-0.02528870661744025
-0.04864622535647883
0.0352834403517343
0.060787629235295
-0.011665478593957385
0.007227479384515237
0.013537421358949281
-0.02517872838021152
-0.05321393070000465
-0.002415623126431601
0.00044441506175043564
0.009538927682235214
-0.007402645831492748
0.009980123634758092
-0.014732551578154807
-0.010852379551093243
-0.04862345966241827
-0.03093787198870666
-0.04284076102646502
0.010955612287919338
0.008808104279138638
-0.012940796286632557
-0.028877813457647717
-0.010842136441339212
0.021720843286606034
0.014425455329925198
-0.013470575692624887
0.1402279525979503
0.05404367792777231
-0.020192431357754077
-0.017329129559942546
0.0028750026448010287
0.06296621260625133
0.0972973066418284
-0.03083784603372442
0.0020222632354845575
-0.027939319760428773
-0.056373810546516225
-0.03226184376887431
0.005039271839294631
-0.007852455305324364
-0.017640498628619633
-0.012809915595514473
-0.03424037634021742
-0.018679930413983664
0.007265612751088604
0.017274484187143346
0.0023756268602586456
0.06913214461299634
0.06780474463872795
-0.03068155399418371
-0.03584711154254888
0.007942814977590749
0.0022973459086958505
-0.017378644136812577
-0.022007641085623298
-0.02477727929483353
-0.033182344937204476
0.015916501972535888
0.010505214867920717
0.005516009577158039
0.1758950455102998
0.05229793499634232
-0.03871392151135885
-0.013788841599630366
-0.06391562693803093
-0.09374845257159914
0.0348952529344781
-0.022705389077039936
0.024971506766389193
0.09433070326998445
0.030070937384473025
-0.010949035686527352
0.01956809555039338
-0.018384323032336503
-0.024353082037366094
-0.04853864655293763
-0.004565961455043916
-0.0634327595736493
-0.024308361736231212
0.0039321499039688314
-0.011395576288623272
-0.01738199647753945
0.06868602815864204
-0.012729565896520518
0.05869074409257341
0.05782875164865415
-0.05812976556833008
-0.029781458532387665
-0.012824776627798438
0.0015281733714672297
-0.01213369417393012
0.024751681493521197
-0.013365949266028127
-0.013040881213533537
0.003216818048326591
0.015739954315546617
-0.002799289396648966
0.013593178189899911
0.0519799107225519
-0.023546003544303633
-0.01375322846148095
-0.013387737399348352
0.035135113356247534
-0.03924425249588574
0.013574082329407194
0.005708085104347152
0.008226151240421583
-0.04191504756420693
-0.03510356263897979
-0.034641068272171456
0.036079467332661465
-0.016891037691811377
-0.0762540316855111
0.01087929114382808
0.05652520901227223
-0.017833061940616582
-0.004724623868652884
0.029966042552483117
-0.0038474425966418804
-0.0413419153216259
0.0009292997612989681
-0.014676243794797126
0.0091802629965246
-0.002883601226690143
-0.009464249162223144
0.02016047623837816
0.10565978715269612
-0.005416164538676979
-0.0811126487184652
-0.019936799859417518
0.0827629008649851
0.012616968948294659
-0.09591229418313386
-0.0344318782890223
0.04522345430521841
0.02194299441501317
-0.03379739783408306
-0.007553904945770276
0.06137456221510063
0.05591175110942634
-0.017603437849112002
0.01563608067181174
-0.04985781216568488
0.008752652425491532
0.025934506900055537
0.011819288865927655
-0.03272714297067944
-0.035478127151544116
-0.00023111281273180038
-0.011303935889609588
-0.009782058020848815
-0.06643767150952588
-0.03255825961299947
0.00884887643806891
0.1269062255136557
0.05366379318802782
-0.01810782103994952
-0.022311404046627223
-0.0012419260233241473
0.004908278885145262
0.0011877683077194771
-0.05368519360352749
-0.01203939683759373
0.013791805348689725
0.006162861165971347
-0.04419289953568569
-0.01625619752727228
-0.0047528894751240535
0.048474403732285856
0.14597026596418583
-0.05680759480787775
-0.03803352502434139
-0.009569012744315746
0.11903855635813644
0.09427570113279317
0.02060442234455217
-0.0067161306543572045
0.010978976400560466
-0.0407693446185205
-0.07508849105915723
-0.002552384765729902
0.019132033136249917
-0.010089433764344739
-0.002448681174203039
-0.019952108487748234
0.020481178376048424
0.07777147304687637
0.045320471983317547
-0.0196947478686967
0.0043298267743156465
-0.026494139525932662
-0.02535669615747555
-0.03273416346401664
-0.012344329424149338
-0.017315552640862306
-0.017630219341108023
0.018541943934507685
0.006797292504458823
0.022019500828160943
-0.034154473422673866
-0.031156175712131605
0.037044230607792626
-6.6826365151721135e-06
-0.00044487890539008496
-0.006448754015385745
0.03382095446730397
0.04437423439441343
-0.03504898493544446
-0.012897352615458253
0.0028973464875311754
-0.02845877621527263
0.015127995944920878
-0.02193752741519671
-0.02939614262329574
-0.12333621402679544
-0.13041978088574713
0.07365798278220526
0.011652826949587034
-0.0024055417164952665
0.03263425775266872
-0.0012315133862209142
-0.01581471191794124
0.03178951756764977
-0.00022346062135867012
0.025872803350391476
0.011354674980486666
-0.1433608834864491
-0.03595057164271066
0.00793874468898032
0.006105922704996889
0.02275287594067778
0.05488498263637507
0.009065445282931064
0.0008797930626570428
0.015734896632791793
-0.02733653545863797
-0.04604196734753112
0.007266468890472143
-0.040783633032725586
0.05751456505900498
0.08015981034458533
0.043713357666777544
-0.015696169242603343
0.006699501630740016
0.017199570285659802
0.05292313797430876
0.0429748785387087
0.0271471895597441
0.014818782641276075
0.021185910934266233
-0.020615533492358642
-0.002059781895060937
-0.029243473566957903
-0.012092316287289467
-0.009976603933451964
0.008672751101098462
-0.006197488691044574
-0.0113572539312521
0.010100652939429777
-0.07516549220234359
-0.019416228542610797
0.022228336041314394
0.01089821432306569
-0.04292088089178617
-0.01304586747031056
0.04519134608336031
0.0645751683900248
-0.0339003008708143
-0.009757902860027829
0.02928136861627539
-0.020116477537169396
-0.005310809448723529
0.01346268116608769
0.024668287089029663
-0.014677331332736647
-0.035019288764454364
0.025973996434235654
-0.09755995866152053
-0.06654103285839608
0.02099956405118639
-0.0027785449159541307
-0.02251790928152908
0.009773480504683152
0.05617784340552345
0.0795643331372602
0.027869859208148638
-0.03179960693382578
0.009807803862438859
0.013913015316220757
-0.020393377981385227
0.025690509099548595
0.004800992722290238
-0.021644233925690013
0.0006544330409980136
-0.08214344501969428
0.08487569464601116
0.0016713823185488732
-0.03271939156254213
0.005093948195569573
-0.03692005427031742
0.033039411846594785
0.007828303141192983
-0.005563192361533776
0.030188981653957957
0.01119046371096148
0.017688156453971867
-0.008821231721290804
0.00719393105985958
-0.006437589130245381
-0.0048942748066512125
-0.017834129468326795
-0.011525185057551778
-0.00587142338029305
0.03194573593896688
0.024730529193532757
-0.01910239597204534
0.03408593954192584
0.012106923996997799
-0.10791744967821662
0.023003917711969166
0.06336746247013349
-0.0012309686986014937
-0.04199415077778556
-0.017076768113320238
0.01346642464260339
0.01586488884975272
0.0062235652947000095
-0.0483425352517406
-0.01327276072039776
-0.03658745660825877
0.012076524868897303
0.07023692206947175
0.042872153064758126
-0.04279134765097808
0.021590232618329635
0.02956668722273551
0.019928912968244433
-0.0191519459253193
0.009751964642885325
-0.13385255376390096
-0.06728713178462793
0.013974154102166717
-0.030144190156430727
-0.004319697378274031
0.013633265293002912
0.017216553534628965
-0.06776273774371483
0.03143221146551576
0.01649726498794628
0.012720315228955647
0.014017978839980906
0.04339972840514318
-0.01455931054290988
-0.002166013775697754
0.002399341914491402
-0.00768986560629022
-0.020087138137462244
0.10416123849921603
0.014947405764196071
0.004086406833306817
-0.018291617006322865
0.005711578121194564
-0.0042405501392932775
-0.045801327679795625
0.0378724223695691
-0.00914281477861119
-0.030376598143407308
-0.01795670384832573
0.018506031852736058
0.04559090494569747
-0.03109477396829026
0.013161014818403606
0.013964480109318042
0.006355341035568684
-0.03631390804721879
-0.0094961773489977
-0.028125474583758487
0.05921778980376216
0.09052560067648852
-0.03514619300069817
0.04975658377542197
-0.027575030783835327
-0.05346107992885194
0.025099543344515696
-0.005720361600150664
-0.016036563594341233
-0.005561867394962144
-0.008017100529587309
0.022276900050983966
-0.005998698249181469
0.02458161159509988
0.0398190801872055
-0.016743361236942787
-0.0047987342833002876
-0.04069256204228112
-0.06125831511275067
0.012723136569196878
-0.013213732052338646
0.000657683335124211
-0.003666121287301502
-0.02379855546774332
-0.012993478960405468
-0.030477913303309786
0.013264056582915644
-0.041574209429785666
0.010895970468475456
0.08132628798171922
0.006546946562187854
0.03489284085216411
-0.013303418339565363
-0.020512942323299695
-0.0210804435872706
0.017952636740987602
0.006106177266387103
-0.08745797259114882
0.02663818814957321
0.027946269030196837
-0.02848687718385509
0.07708933834979466
0.12237276677408421
-0.0007897930926154267
0.030158881354138186
-0.002822460750971183
-0.010781525137179135
0.00012916057232901834
-0.01412652755504975
0.06745290576010517
0.025127509204876334
-0.17531061859976846
-0.013320192410182037
-0.006764808992034073
0.03915868393903857
-0.011228851498731632
0.031074960244086177
0.029251632143722787
-0.0039999964708060855
0.03605657306691849
-0.01763245541198572
-0.04975993879009919
0.01879634574367947
0.0022902615518337445
0.05353962234419845
0.018279845817348647
0.00953812289937016
0.017156918814889968
0.0031092313744858777
-0.031219775767839714
0.04109757194004116
-0.08882399527679712
-0.08682611062128714
0.0026393022369964785
0.034127639200575294
-0.0754117637063502
-0.07446420640505502
0.030903643462125503
-0.0089821107842121
0.03668322499626501
0.003451582175632753
-0.00977338037213035
0.024546297248833806
0.01502403181368506
0.01891691745210526
0.03751726994281865
-0.1294024439759526
-0.16471491543462943
0.026320676306310044
0.04101484857660293
-0.009793846370560588
-0.032493587169542766
-5.054194260130556e-06
-0.0009885882765287338
0.02265523110031624
-0.038809805195582164
-0.017717777066980966
0.04554706804347232
0.008485447072028352
-0.020732038504959496
0.003050219899568002
-0.010267891017401958
-0.013510908341210607
0.02304643938836885
0.05869763102874607
0.14568760650160198
0.07877500156121457
-0.01996640075514456
-0.0009797762300695258
0.00908542677947042
0.032256317702194795
-0.01643793295939758
-0.011438139823115746
-0.0019268021848269634
-0.0005516913541273623
-0.004700365338821627
0.013020965527527828
-0.0028971094260968615
-0.010227012297152317
-0.0014716588046056714
0.023853129543219307
-0.006817268748041475
-0.023217025258016086
0.006397191282069289
0.030652655395606358
0.027510619637623527
0.030389206924288956
0.006623657659301072
-0.009416531346707708
0.005447682959921397
-0.06054365181800536
-0.02278713930151541
0.055424341105882825
0.026610290639306467
-0.035269503538409123
-0.03677253650611367
-0.01605729677693446
-0.032829856734504975
-0.012008714954058333
-0.014139821951914423
0.0069177566367544545
0.0026486141703685466
-0.07759354722781706
-0.03861643167716271
-0.04940637144874718
0.014078523677544825
0.017068635363368393
-0.0015894688270630757
0.00961163481742469
-0.005769014903737082
0.019264011494239834
0.021084104134942237
-0.02659372313574703
-0.011362500459634826
0.041897083757766095
0.00477801826150273
0.007090817662913512
-0.022676678263894537
0.024764161369324487
0.03430812271383288
0.12222741640336718
0.07631930183271562
-0.03365269759683509
0.00797242606178381
-0.04017124374465049
0.006404305641999241
0.024005246171274544
0.010616596862502322
-0.03552276304739015
-0.054553131119283706
-0.02186863979165064
-0.008272607133599284
-0.016385709330046128
0.019934264669661073
0.03523195102855749
0.01750352386861514
-0.021185860707686095
0.0020362730760562575
-0.0215717769631438
0.033690723381748194
-0.023286351661312602
-0.04390267029935504
0.007240706311848627
-0.037881125703704624
-0.006565411433902916
0.011214579097806062
-0.023902145518764076
0.016715906288844215
0.0147179997174858
-0.012541756169121976
-0.08545495099005357
-0.024515645250981686
0.009261030701885366
-0.024856403274268097
0.030429616393114395
0.038921446492460585
0.012196373846394005
-0.0005908096014686604
0.013045985038170607
0.005051089518059994
-0.01676989286835437
-0.01562951285949983
0.04570798529679673
0.10161561680044015
-0.00785087449348673
-0.02800273586410755
-0.05971649357495214
0.0002637376495963224
0.022218118870460667
-0.01172897584539221
-0.020247689960993253
0.015380696269335206
-0.003482362953882037
-0.00022127557252122216
-0.028765072821151916
-0.02814458574460859
-0.00622526732513708
-0.012096138697260585
-0.015262927454830648
0.14691690945854444
0.06482620988879981
-0.04113501803305749
0.020468612862338628
0.014682519923791887
0.026258606577359185
-0.0601520483557108
0.014409966379754327
0.09964078672000605
-0.06663802780047333
-0.018868980031206715
-0.0026694216473531294
-0.0006349249078614447
0.0192687940449979
-0.009738645168446563
0.0073213850866579114
-0.027847193278795337
-0.014836064105118112
0.008068543880902652
-0.027649105168339183
-0.03430662773376925
-0.018643974787136308
0.002139081967567437
-0.009525526862206483
0.07575163626398707
0.023396898536357517
-0.04875905405461877
-0.0062085357974786485
-0.00890036481533265
-0.00844775770613858
0.01240152360865572
0.012726192944897458
0.01189254363861006
-0.029491423375755218
-0.020544072832732803
0.056151056619010827
0.023768716904724017
-0.024739518401869998
-0.015622122971074888
-0.020108654690207364
-0.02807104485293255
0.005410062984451039
-0.03809214201226637
-0.02028137012376625
-0.012044878141093764
-0.006375137506670459
0.09619467007701694
0.0880639657729012
-0.03257363462764056
-0.024728823898816105
-0.003492589350813557
0.004261007677697468
-0.03517487922429074
-0.03703134764642433
-0.027279129767186727
-0.06815791105016099
0.023872650479029457
0.007353859341567492
0.007203434262691792
0.04049964859130604
-0.0012945234920385814
-0.005272171257003176
0.02327398537219356
0.010653751825336
0.0013776140839571393
0.06954332103202712
0.03301902004945609
0.0075513979169691495
-0.04837706545610472
-0.013684413894132047
-0.01487584957381827
0.017769230791116402
-0.021047259068909075
-0.0033610111695928824
-0.02083087580985717
0.01815847762937175
0.026501101814866704
-0.0018414164798226421
-0.039342493154037095
-0.0371083235389013
-0.033339399091801024
0.10867457215786057
0.15162135813973532
0.0045953894597035
0.02575078461830343
-0.035770090100386155
-0.013762040337560327
-0.03136386444024776
-0.03032973531287263
-0.045290200899482165
-0.034795877380488914
-0.009758920987327844
-0.0018278745699725446
0.008883468140947356
-0.05988745071837109
-0.0818227575800454
0.055790614695666804
-0.03267889760680826
0.03239193136224601
0.06413896890388439
0.04049643560683943
-0.025019361760320383
-0.021190778433912053
-0.024271618026522463
-0.02464978199245828
-0.0367059111112556
0.030524252835690012
0.0016549947204765522
0.05739512294516412
0.002840613776259655
-0.03558223567932608
-0.00845667315536137
0.011346521365746242
-0.001257127010019631
0.0050804972996176785
0.0009149903223001943
0.00043538518912253403
0.016816948156069215
0.01347134760555261
0.1310487297675959
-0.0013442950367639644
0.009058252789689818
-0.01107986599598743
-0.08503355746958786
-0.021021857565398688
-0.0015735757660095997
0.062033418040216635
0.004331445512540365
-0.020077135944809966
-0.056142385596951665
-0.052022518520664356
0.01021310301438814
0.011773672557337845
-0.058752499281594824
-0.03179955447340559
0.002325388420594424
-0.015163915550213968
0.06303646886886259
0.030892665824690222
-0.0022497719595178313
-0.01597890421428225
-0.04984977676620102
0.11310677237905362
0.06693044986250792
-0.10035162218778987
-0.01079773691925035
0.00043642287041328556
0.023198094056173218
0.022262418071254616
-0.03363298330995678
-0.04226490510177329
-0.0014177758845362908
0.0401258576433784
0.14246840038041614
-0.0021819993637673223
-0.0322741412255835
-0.005004551506961227
-0.04107777061233575
0.005658514624173028
0.09964597988794074
0.0496387151612738
-0.013790332892789867
0.010642350822925873
-0.04253882034295187
0.01765805124029886
0.013843154960044877
-0.012038779105913677
0.011902465190017725
0.06813707684607523
-0.02000344249342379
-0.002208633374584221
-0.05059310654756848
0.04442196331146913
-0.012086742381345538
-0.19135863004454925
-0.03426685333964493
0.04555574780374829
-0.007176768453851542
0.01197033593036146
-0.013695141950656789
0.002242795587117827
-0.0011329219017510157
-0.14469428687436653
-0.033872952937121795
0.011701331794706893
-0.033347359467674344
0.05303101367037585
0.030988175640205395
0.011192347566523238
0.0039399451004769916
0.0373777414264694
0.02449415426468177
-0.008433015460536033
-0.05119508505816718
0.04324392525941133
-0.018638270608488754
-0.04393103597008115
0.007518528589292551
-0.04387764933147385
-0.08866434778671724
0.045157280682659354
0.033865737180816494
-0.021684832199486883
-0.005837912188133633
0.012252548917856801
-0.019748378322999756
0.08257977779108862
0.06545774176388432
0.03056459391194748
-0.014782868068028709
-0.023373936405218756
-0.06829296123240045
-0.1220854986501551
0.02777412508333719
0.028322674119310224
0.156632494100127
0.011655463388701727
0.0009725814745782934
-0.02938575893875712
0.005294890126015375
0.012737407580730371
-0.03489651667888696
-0.028649318555023635
0.028654743146559424
-0.0012699584566852416
0.0241142287613056
-0.055612033529437485
0.01761879823132678
-0.0018970817617717818
-0.012375539118479913
0.01893103420656227
0.068589767242209
0.044941464488513494
0.00111724737664974
-0.005167642526279384
0.09313983761495144
0.14964197328412648
0.0025201758919965954
0.022635707475403635
0.012405129586728366
-0.00978157334901263
-0.01624549315654675
0.0021375635839780767
0.018863884297806142
0.02986589691160295
-0.09463083972197273
-0.10565235931968651
-0.044633183508025726
-0.01406318121216108
-0.017895196064497805
-0.07128301442109859
-0.08269737777537027
-6.29071460546661e-05
-0.015216187940606573
0.00038958465516074386
0.02779181355813747
0.05463539834524288
0.09687775423570456
0.052800318899783975
0.007185181577279507
0.02279261666539551
-0.01003058782777574
-0.050912092725514634
-0.021049075034359054
0.012643252768126462
0.001792762509345428
0.010883926514683957
-0.021268046672344384
0.017053158901038968
0.029442749977914903
0.021129397564248337
-0.08960880642623416
0.018959871458773245
-0.0221723586176906
-0.046892103142735245
-0.0022056304274355983
-0.007112760785590829
0.03364691841450024
-0.013709549980570158
-0.15137414358296056
-0.01848885652391161
0.0039187013426017665
0.013028913817373523
0.012680970929945377
-0.007432241735314286
-0.018668973368457256
0.05302748042851784
-0.11744864046538443
-0.10292482752809716
0.03960278049024464
0.056386855365350666
0.06859932821757947
0.009346385992690488
0.019713469640133808
0.028150111975617613
-0.010728650530200669
0.01746073444334795
0.011079707379964282
-0.0027146253941449775
0.01950527208523909
0.008660062739712017
0.010677069015262932
-0.009662609915839953
-0.016911075845044938
-0.0012280477046980461
0.08252369480295002
0.005445449960738341
0.048509315362024324
0.028096164091592248
-0.004869438971034056
-0.00037911235398312946
0.015887228465107695
-0.019821514645552575
-0.013835797596114547
-0.045484419882907016
-0.06363233836911186
-0.029646742976573798
-0.0028963218827203355
0.029064102699678553
0.006507329500374618
-0.016836918374672126
0.019073630765818608
-0.0015927287362329985
-0.03379827367958871
0.00572187006235266
-0.023126598947134615
-0.0023447057901825217
0.07578503956744986
0.04847554039701264
-0.003132010518942234
0.014957983804824077
-0.02766612297296099
-0.024540575827120575
0.00503998565129924
-0.021514014167845846
0.08267160333353323
0.009106968455668083
-0.032168785543570055
0.0241775937816094
-0.006615268448063017
0.058497450702033736
-0.012898700008102911
-0.054067023661585
-0.04495002610999304
-0.006517937523063615
-0.004976267009523119
-0.042161593103168436
-0.027484486315718218
0.020501925671249095
-0.0022511638538861233
-0.03128192613836536
-0.004851096477362401
0.012759036946291352
-0.01639253330398353
-0.02115231611813405
0.055400396461985725
0.03178946477736185
0.01301760003270328
0.03746330597091596
0.013621235849583614
0.0200370083814422
-0.04167551404973763
0.026972308787548676
0.002349043619474236
0.008934971040630535
0.005923069880935254
0.01738447030970503
-0.0012111803019727828
-0.002897193187680104
-0.018087566076617673
0.03006023381131796
0.02514370918064345
-0.023478955652806863
-0.025347433820535697
0.01102120658411791
0.016415657611923866
-0.0350433752326762
-0.03182135546347608
-0.025957699828825856
0.047928274075014356
0.06550844291131164
-0.0338691123819836
-0.0057788890200525245
0.0048754307711711764
0.01662659726219895
-0.0034606398685111785
-0.0910404402897771
0.013480308078387997
0.012764266297488409
0.015228861271480132
0.014046819623227003
-0.008845255837881889
-0.03158364405920496
-0.07452955238617003
0.003962309620231612
0.00706352327018957
-0.026782883672792985
-0.02209445168134186
-0.03008772566190592
0.016737231091811296
0.02002865180087817
-0.0559248258467175
0.02007234432734948
0.06390975060613988
0.00793076517778202
-0.039867054637004504
-0.0014120916374373111
0.006266768560566786
-0.01270977587991985
-0.0033577934874035285
-0.009371072408295197
0.10475416636560386
0.07431167130970401
-0.01020222815290019
-0.021514622503183888
-0.024238786291955028
-0.0258182662589765
-0.02288477884201588
-0.018479149518434015
0.023517110138239438
0.014443267063862406
-0.01733063478781242
-0.020034711272829134
0.025456664033381603
0.04523339461013257
-0.011489466327986352
-0.0007580615812975849
0.007900036874941027
0.04137669571862433
0.06512817087079276
-0.04008224795535266
-0.003968623744660052
-0.03858840269501476
-0.04327153263199274
-0.011695800768229611
-0.0014975429350307392
0.001009993502197605
-0.024080446088985925
-0.026897111226720324
0.02685594419671679
-0.02601439387376837
0.0596916545319712
0.13922766465972417
0.010287378479891468
0.004822130386763132
-0.016946516721778868
-0.0069318429041250835
0.008232059531884689
0.014057078824300491
-0.003986209706937515
0.015686265679561183
-0.031088885349083526
0.005691873543361718
-0.08534623581444249
-0.049569310334151906
-0.10017614302684502
-0.007996426023113522
-0.016242436944989867
0.027745175983522802
-0.0029645964628331784
0.030299190624444996
0.024918342420682735
-0.01123987096742099
-0.03483523819360976
0.05125990247950333
0.1949747462119365
0.04002139597295213
0.008182690428105266
0.05413507379256982
-0.0016591161221650075
-0.13372805320623837
-0.026486243352398166
-0.07862954710220513
0.028647357197552563
0.05615541215817887
-0.02297513997303504
-0.00618770516092318
-0.025549065905654166
-0.08767337124452501
-0.012094334277153151
0.12055668220593578
0.09081795440428189
-0.04791846493862033
0.028687234367304474
-0.036620931902891965
-0.1229010779184439
-0.015727653568477155
-0.005183071790286743
-0.029871780734787728
-0.04315221182443011
-0.002946353152992907
0.03760576180451542
0.0373432885865064
-0.019259417352294625
0.0019802790429659673
0.018156693379480345
0.030812550933897263
-0.023577869689728
-0.012280902185182713
0.017552993610004678
-0.07541167027426625
-0.02734383924324153
0.036423167507036065
-0.01647136566927947
0.031196972114498338
0.06403787289889742
0.029099656981596396
-0.16643209900804976
0.14226048597971194
0.08076354851199612
-0.026450233287830804
-0.02383755762815704
-0.17961712571485386
0.019445956002649385
-0.016476703779838807
0.10264788716970402
0.061801848645985376
-0.01298971067093641
0.03141391651823321
0.009549972268522893
0.003674028566754851
-0.10715483904964128
0.007710197109066746
0.09062945884309986
0.021576831326504287
-0.004776472119809626
0.024317012942058364
0.02383058084022078
-0.028321908917939467
-0.01566356086904329
0.011967781440717218
-0.00047711298323209467
-0.031155594875975846
-0.012221204484457494
0.03387069997203304
0.024412677118972267
-0.03595672199134978
-0.010763786863130552
0.06961161956526088
0.04887448069561027
-0.018993057783353022
0.037092000487655
0.07975778263369156
0.002120794886749325
0.009927679021656068
-0.018508232293812432
0.04843854074827416
-0.04470193673626871
0.00584486712659526
-0.05103374298077902
-0.13030808694403034
-0.06379837650228082
-0.045689697756245685
0.003747332984930765
-0.04854423969897876
0.028644615629188443
-0.04934733507313388
-0.006312598205223191
-0.024871248974336794
0.03934211959608488
0.03720986931874963
0.008921967324284092
0.0690438073359137
0.014036110292242792
0.011495216142893186
0.032047161957913226
-0.02650834927330269
-0.020522488143849577
-0.026151854941991435
-0.018609649272178404
-0.006196884878062937
-0.02858324706566987
-0.031307114639708235
0.005216001784535637
-0.01025268323622255
0.029157649488111337
0.029965360844873418
0.003848135187466695
-0.04060283883023056
-0.001085008200213605
0.004786871271637347
0.004160121692432521
-0.011065607420845862
0.0016115892712230604
-0.016865391755487597
0.003161927650645207
-0.01869142583294045
-0.006562910365846281
0.04921900311572767
0.15312184753138539
-0.03703963299634837
0.0015594351237562991
0.0029708796864071347
-0.05099443669201444
-0.005686668883710569
0.028922329361808635
0.01031852641643532
-0.058691333350910056
0.002119139646017479
0.006416555664779264
0.02455823836071042
0.005355010660394457
0.010369754834568763
-0.031274122748938045
-0.011216028906538882
-0.037306982198976164
-0.03718621475203768
-0.0016586496728780732
-0.03331765045321519
-0.03967646780894153
0.1201134120478063
0.09127986492623218
-0.03991402079475748
-0.013394795972261064
-0.027595285119960657
-0.04935890597464222
-0.09972825172374689
0.06129918434405792
-0.023986377322922726
0.061823348562620346
0.06745446940923985
0.01634938004364465
0.03686514460060524
-0.06542816067903473
0.0007550733506348429
-0.005490336147362069
