0
-0.02728162577472732
0.0074805954223478455
0.024401925629096134
0.03055366809350008
-0.004867216864305214
-0.0074058363573654504
0.07218445034129069
0.07832441512035351
-0.0277926587133971
0.0050682052083556904
-0.12316798600596225
-0.010454858529565306
0.006569577878729436
0.03966096867416828
-0.017884653453947245
0.009668192660500818
-0.008406762624723896
-0.029364722916745276
0.015032869253026182
-0.008931210792782961
0.008318000244906138
-0.021282558905904338
-0.010242697976101204
0.010959984806793634
0.005279215471289316
0.041659611064201664
-0.02749372886364405
-0.009033635821111111
-0.0006929476825721463
-0.0013520366451547842
-0.0038604567323189264
0.07896144993024472
0.026729655302345844
-0.03451741910422207
-0.0221804414618837
0.02649423318001076
0.04113449174369108
-0.027480811183952257
-0.019023109573932714
-0.021000324719934158
-0.03756131755488508
0.03333841414650633
0.011916909981558811
0.0007619802512385466
-0.007030199392221283
0.03464137784157153
-0.007050092336147109
-0.028348077299441873
0.005151930115022727
0.0406183240104592
0.032496957706883246
0.030917810210029262
-0.15260900268915095
-0.013282274491813779
0.004748301472361716
-0.01348236885804832
-0.020727214798847114
0.01582676084730354
0.07277232978124569
0.01566106570927436
0.012543943603320637
0.0012524228267371347
-0.013980944923621482
-0.05171079296164482
-0.08834590409996111
-0.005195264316264275
0.03232031655427508
-0.0027129446140551653
-0.02151543386477375
-0.02806933703673184
0.02208827968294583
0.007368074219546543
-0.02867790407273677
0.03541219034700605
-0.01702956588332666
0.007840341326171691
0.027246193296100497
0.011212103430045235
-0.0181390450717988
-0.00010085268122431672
0.0001749683602432065
0.022572310625099803
-0.03322754105682081
-0.01485804033223864
0.047666141070489804
0.016156857531353982
-0.05905562127122996
0.01886818302690587
0.03669539857978826
0.016705530212822232
0.055462229957593645
-0.01998794628786387
-0.01118035701084093
0.007366602343744397
0.011100128902517718
0.018257710328661452
0.004754093482046296
-0.09634588203521559
-0.008087224301512654
-0.0046427171133263
-0.019609136100255116
-0.004328696170444099
0.04979495301469259
0.04435749407558908
-0.03693800595848343
0.05091261350236505
0.04085309219591351
-0.037050822834296906
-0.008700795985808566
-0.01253305953295661
-0.026171269802134762
0.0036004331513057575
0.053471796713465636
0.022548293539402492
0.12791947638572154
0.013845497390159325
-0.0028371011398507793
-0.012681495440051668
-0.036089210250724826
0.03149643008140944
-0.02729065127365576
-0.002255284144105085
-0.03288608234666922
0.009740788207588098
-0.09710038394729964
-0.08624733617459576
0.016463663810915522
-0.010596277120953738
0.052622408113992526
0.020879688596792432
-0.024579003215122318
-0.05474382248135348
-0.013062473827986986
-0.022731951551594267
0.013799626468023985
-0.010782921275166677
0.007651709595389509
0.02613559568092903
-0.00450297716791976
-0.007363997327412414
-0.02440527915356978
-0.012415985025742057
-0.029436331729701136
-0.016198297697074447
0.008293593490234523
-0.005023845020659936
0.03387699903295731
0.05759780067637525
-0.0915888189050199
0.024887375196328578
0.036926006195052374
-0.007824965500406216
-0.004829327487920737
-0.017396577192180223
0.03186147669007478
-0.012727888447381585
0.00821847557740923
0.010074128032058646
0.008619818092446286
0.01875224766859997
0.0005106789594174387
-0.038779303099697085
0.025618754800573754
0.09514797391669164
-0.026821647524567265
0.0019510429120273912
0.05708076197167859
0.0339679140938779
0.034645254068201126
0.013195129656053073
-0.05332618304402276
-0.023774591160261004
0.015431264936763252
-0.0275732251541362
-0.0016366079606196671
0.007972079139335243
-0.011536450510239889
0.008263495245797477
-0.01611535797967415
0.0007187412029761879
0.013022321098317734
-0.045261546717661805
0.07014838513437058
-0.02688322488209051
-0.054380335205644184
0.012367928534208804
0.020959509941452858
0.036371277810599796
0.0002985408418843807
-0.022200027540794073
-0.019691778585195736
-0.020029585405666843
0.00090739065202346
-0.027888874978975988
0.0013506936529562418
-0.013630147018391544
0.025909671610267703
0.06890592439506173
0.010586167067336118
-0.0366725624988794
-0.013630908376011577
-0.02144037300653623
-0.013958686769235165
0.012310215224641657
-0.005701701691444466
-0.009081854352915544
-0.0008374431459249965
-0.0733457738254216
-0.026502854282479747
0.024189540382676667
0.03784749015658639
0.01975061173860349
0.0034852025549063836
-0.04151751006342765
-0.019569357516020076
0.029356423112026755
-0.013887441676795011
0.02008258777118177
0.013888517826442051
-0.011422211866707143
0.014133262195744928
0.009735103999026566
-0.0015690397960677898
0.03518474721112018
-0.005660590793245945
-0.007454577956590629
0.021431654452907616
0.0032817081806264417
0.009023079625196538
-0.01361714926231345
0.024659583577577
0.024199622848426396
0.002630152838897124
0.03213481521701973
-0.0038857201178165816
-0.023370996620539094
-0.03199395771246507
0.0031854857782653025
0.008257293534866183
0.00788423612912729
-0.02074669872156187
-0.005583773525955755
-0.040595344010798284
0.016436895563791045
0.008752578684342706
0.022591209355895318
-0.05730322214615928
-0.07586283307047824
0.022940072221149993
-0.026344568787194902
0.02850561071651286
0.036312539730234364
0.007790834056046331
0.004138441023191859
-0.08044516207866963
-0.02200896937040476
-0.0060130062446226065
0.07594345441074936
0.029269692130469267
-0.02603740554684276
0.04070254966636071
0.004220930450473159
-0.015626759986852985
-0.016257975172452793
0.005152107085645015
0.0996430425807976
0.019696077100089818
-0.00969469257459385
0.03966420047509015
-0.0036504571761453632
0.024817860063307995
-0.089629972971671
0.0622841219011992
0.02603611326335224
-0.08641137212912245
-0.02666969624959428
-0.03134230521347774
0.022533761208401032
-0.01669550916618917
-0.012472582098856008
0.01442857649922037
-0.01657146611995996
-0.03353866923843753
-0.011246424657341967
0.01385692469423244
0.06469178463668782
0.015184170785304825
-0.05254447999125801
-0.029921635988285875
0.014198985818492157
0.01927547119717801
-0.00015665615592202618
0.02972804363714749
-0.06759293189430347
-0.09593874350689888
0.019116510404165638
-0.03829921516205325
0.02048552773177869
0.009307074015093258
0.032390068583360736
-0.00476447660437741
0.021835710415440374
-0.036160123303319504
0.053539301200503486
0.04264673825002028
-0.020742163758324352
0.005577814742710879
-0.07264531820623782
0.004409867322077563
-0.02540069912847275
-0.021110791918573117
0.013845012019973311
0.0162397305056703
0.05699104194070289
-0.0017854259369824708
-0.023128857072998273
-0.019041888025359045
-0.016673444677281244
0.05516833338198951
-0.008121929946331664
-0.01906752389659062
0.016564238842721103
0.03804964080607028
0.18313492425020556
0.011698227664722536
-0.01770259250710483
-0.03618315843003792
-0.007204565466534885
-0.03340973824072816
0.006413348604618557
0.0656171901734347
0.07500327117590036
-0.058159272004452936
-0.010593651016978895
-0.020682081580424193
-0.043113409174086376
-0.01594719449621401
-0.010085117928370255
-0.04314302081712031
-0.0099674677783588
-0.039393061110136164
-0.01625985637219127
-0.037084121320261704
-0.013550726536899928
0.025183232191119724
0.010022546962627523
-0.016907626516732315
-0.009187836745859877
-0.020513811564544442
0.010773949661317424
-0.0050142081676563775
0.07831699388515585
0.03674797749897734
-0.020001755487188928
0.04165600666508413
0.07069706377854172
0.08339428057537134
-0.007547763073814059
-0.0276716207200423
0.04476702800440331
0.00010083457971376301
0.014441204851978128
-0.04108090872155684
-0.020541485904922243
0.025137037226410502
-0.007593966901274403
-0.011935088130213605
-0.025546069064692773
0.02453978915554775
-0.0067040069807989865
-0.025102737818274073
-0.02142998814167069
-0.030224024494646895
-0.013376744004758292
0.02774923578555724
0.028599792924904624
0.028462405148105236
-0.007684462430901228
-0.0250417058018766
0.012087694622361627
-0.0001193585956930757
-0.01322919232582996
-0.015012700964273757
-0.0054581287139602195
0.02671328972460773
-0.029705619587577482
-0.004913222518101858
-0.042712755032850505
-0.006988075744932801
0.02502892255002902
-0.012687958874359705
-0.01810944096599992
-0.041067083192882395
-0.005262033190080457
-0.08230294892182297
-0.010226054299937466
0.04065299646572023
-0.07136595732632005
-0.05581778082602471
0.023733220561284605
-0.029539852461030396
0.09772785970426574
0.03884795181007218
0.03198628903373303
0.001387140289408559
-0.016928657229299093
0.0003962736372744207
-0.029005620646402067
0.00800751450474334
0.006656019701124192
0.012102629455764706
-0.014582929671784315
-0.0022105781785424555
-0.0008366110094341003
-0.014506188917547423
0.008131293603333653
0.04175561242823333
-0.006701441902820743
-0.024864725825803576
-0.0349175782334278
-0.05315517355320204
0.023044268719712914
-0.018905500967744286
0.03425813087191006
-0.032527112534591306
0.10573929825592072
0.0340116284153527
0.014323282464662824
0.100355587068796
-0.024828364337530606
0.015412731948261586
-0.011510138872712634
-0.0028706834665074045
0.0064670271033231575
-0.05050016721793332
-0.07270265495702932
-0.008794672501911715
-0.011199715989971722
0.019223653713447725
-0.01867752497136359
0.07711878172832126
0.018685210714426734
-0.017327277088577352
-0.01951855853138866
-0.0005832817864736178
-0.0037822277852078315
-0.002150932388993354
-0.028392988366061852
0.010301221840953717
0.0796580406752138
0.042604092512667224
-0.034903419339904505
0.012857038999189893
0.0017519540586410365
0.005303383983377732
-0.025887863881903873
-0.04921132278016713
-0.034104884473567014
0.0010279088191969424
-0.007853657421639744
-0.03885129582897187
0.04740082844872617
0.16446602252375897
-0.038669664362520485
-0.01522246107175268
-0.022939640245610904
0.010149778051933988
-0.007888029618252794
0.04030272764463008
0.013972849901096334
-0.03979737163190034
0.00965354461475319
-0.009324007807080509
-0.03801353605027939
0.01709114838607686
0.031984106866974796
-0.01604303771363016
0.03122868536688332
-0.06936685774910509
0.0271154141349187
0.0012334334010784295
-0.011248368604124998
0.023589264106737628
0.04183041239261251
0.013389660965722137
-0.02820254688105713
-0.03226807879101924
-0.007538433427025813
0.03134641863499523
-0.023568384854898098
-0.007887943408057357
-0.0013193359112106198
0.0036693565252330666
-0.02377211532113291
-0.09910948248468886
-0.015879554831663086
-0.0011477804658938874
-0.049939642103646036
0.010660915232305166
-0.01717362031353165
0.04687166061517015
0.0847800876117071
0.011019744452660145
0.013000787730047165
0.0010490824180157273
-0.013071805115271255
-0.008244597305519763
-0.012988648699052955
-0.014461540266115156
0.02464451744646787
0.06517247630314431
0.012179650015217145
0.008123815083432968
0.005297257742548163
-0.0061328182930070856
-0.00423416421611233
0.03339966204089583
-0.03371570937897768
-0.0056199167308388625
0.02391819182588875
0.0075993150603663314
-0.007516990603422332
0.02639549664166096
0.0003735442937416105
0.007935797123533721
-0.024528553488965505
0.055774713307922996
-0.08508827319591053
-0.11158478980107285
0.012252867613841846
-0.11623883651601248
-0.0018443455918154797
0.009824455249093483
0.002831760175502593
0.0036387906585231633
-0.015981714901679992
-0.042068756386987885
0.04108235171609264
0.01741309117154962
0.06657422242714382
-0.005017613931574878
0.021362444564222288
0.009163291074137124
0.051930262597439894
0.015429409662965334
0.005730002657560232
-0.022663605374900656
0.023159781605524055
-0.006897000560819697
-0.12379657264509797
0.018354161549472742
0.00031808389906711897
-0.010613897315145435
-0.030282727971379764
0.03828948200900375
0.016947480733948733
0.03656075622217991
-0.0029951601433602466
0.011499062997599856
0.005791755946180436
-0.011228385937439835
-0.014253994651140106
-0.018621692622658625
-0.0006938495758856196
0.042984262483611466
-0.012196433870631006
0.007920077248634262
0.015658782494302453
0.009395737858965218
0.02156441827589343
0.03301933050763813
0.017740434951629525
0.002152193931380617
-0.010088075220771058
0.004805656486666068
-0.008077047340229687
-0.03400234308482059
0.015885723988825276
0.022330291420369117
-0.01033810417537335
0.007280900206078778
-0.026657890312831056
-0.016274377745795193
-0.06129755705669993
-0.02966179568660943
-0.012320980879001858
-0.00011833837325606485
-0.01455756380820066
-0.0035847929356070543
-0.028512746864092064
0.05968966271922372
0.03654060126321396
0.008454026900439629
-0.029321152516864946
0.16408247146393604
0.04617988805512459
-0.05472411687495165
-0.022292287943590495
-0.0620015784223143
-0.014112156323566279
0.012820216354620738
0.08473803880703773
0.0014886718374343666
-0.029631282817632054
-0.026127572009791954
0.01942341550744066
0.015959447866933183
-0.0016572764979133224
-0.025378559793059145
-0.04617461637115064
0.01052481188563473
0.024810211355395188
-0.03218863771190157
-0.020029705862426802
0.017349700783904607
-0.010251276869681983
0.01057771080423761
0.015236403092046333
-0.03213561689600473
0.011439750330410474
0.01403486201099806
-0.038598275508135695
-0.053324160455625866
0.0372339377644099
-0.040054546647316974
-0.06731618939146543
0.03819004990097615
0.04026283923443892
-0.0222758783726619
-0.014257647018397298
0.012927017681831089
0.02399513658856084
-0.0027563458918973753
0.009985859139347195
-0.015751808103421572
-0.01486026074715693
-0.002158004791722039
0.00863041766527488
0.04994988474355801
0.03800757709291409
0.02829520301070018
0.008361354067424479
-0.001962972994485649
0.004585821387578759
0.05228509445365877
0.014136303234762053
-0.019991248447146726
-0.022382147482235167
-0.0006314329627430567
-0.017330445468359934
-0.01361180229403943
-0.024459370074306097
-0.03807597504827822
0.004265448271948036
0.004164790412799487
0.024841447963773317
-0.00985492792218336
0.00917602924670934
0.011127866880168629
-0.049865602924496766
-0.007072999465404748
-0.012920200661871946
-0.018644490293816266
0.004533798114439815
-0.024145836567706705
-0.014719725659536593
-0.0005939954265456317
-0.05203680225418511
-0.04776923903512777
-0.027157129977078576
0.08970216790200716
0.0040435649765070605
-0.001515824581447592
0.03753938954265057
0.0287717323702923
-0.0037791990020778145
-0.014616775657628384
0.15771921663825234
0.036861459766427435
0.005642298550363406
-0.007640615760278853
-0.035300685358167896
-0.018432188965472426
0.022173123803726033
0.015624276900386296
-0.03137151245951639
-0.06683347444080394
-0.031136844447120025
-0.014085067723547551
0.12622791891551507
0.03976269211171312
-0.0025808885907835913
-0.0323400677246804
0.04584806750473809
0.02350681865762162
-0.018900995980004397
0.009222952629666676
-0.021453447988345836
-0.0016286020453265063
-0.040552327561543186
-0.04778571687033067
-0.006496920514221573
-0.02090106184657156
0.04533286050283168
-0.03099118463413808
-0.05704866601383082
-0.025086468507136712
0.0257645993050617
0.008020750867122225
-0.01390542376405814
0.005631744217868599
-0.024648974239388412
-0.023172772486326428
-0.0016660496492720389
0.017908814198917055
-0.010104622030324533
-0.022471585412947845
-0.022108396885316687
0.1338842154436621
0.0943561979062053
-0.009460916506197103
0.027791215288160594
0.00867387545433516
-0.029330380994724282
-0.03434280831253425
0.01654529063465707
1.5215667573733844e-05
0.056918753475900113
0.02643556254628879
-0.013770413996002361
0.07809712498851233
-0.009698902796811498
-0.05316408183823001
-0.007163980706088275
0.02445433471622653
-0.11275358210625579
-0.058443135485446954
0.031319309873701726
-0.0266519684547049
0.010798724540182313
0.013566725461198855
-0.009965483449810436
-0.025028179780407743
-0.014066351799698498
-0.012148371027122018
0.010032997160819526
-0.010207499517454545
-0.08921144440565504
0.009391021514834974
-0.09906641722267415
-0.0786284515009717
0.014980143219579323
0.1204617786164029
0.04056755213835926
-0.03130722820566311
-0.028309085101104907
0.018496140717333017
0.06265428312554427
0.01197858214263398
0.07058835993253748
-0.020025428539131123
0.029167589526638903
0.03240299542350713
0.004314254288456639
-0.003399756995632677
0.032334743754557936
-0.06845083285994166
-0.012115925642707857
-0.0225261835407818
0.01888176601334596
-0.01096666806888277
-0.019256687128501263
0.04725679252498449
0.062114818674294546
0.012256514130351713
0.006731837355657775
0.04141794281144666
-0.023961742490369264
-0.03341642006462101
-0.026849081993074047
-0.026419531623659315
0.027548386513846706
0.0006608236413725699
-0.002665779622764566
-0.011445163410815617
0.03235322298236559
-0.0333719078224215
-0.027415893927586525
-0.012811100106931473
0.013520667942203001
0.02315972331313754
-0.02642328302491119
-0.043455314230461506
-0.019091146742049234
-0.023714408420065735
-0.02794338562621978
-0.03420632722297956
0.008894267162173208
-0.035159013974568776
0.06281329979059415
-0.017235874565713145
-0.0036795583318989878
0.009492778837634039
-0.0008030396542423408
0.0972336522924475
0.019242556812292543
-0.026026445074802215
-0.002076438418552094
-0.0496613266316694
-0.06242534179798249
-0.04340498489531018
0.03386101840679735
0.12182181382089989
0.01618895706467297
0.006316745953739717
0.024081354406767463
-0.0022461139980608116
0.005168618144313375
-0.016995972199641746
0.05793521391442897
0.01826694880190846
0.005328961622168273
-0.01783068591572733
-0.005888846551583441
-0.031226567970763713
-0.011845984036113078
-0.0233331582311474
-0.015414101300374388
-0.02013387275207306
0.015444567589586818
-0.058856825050858395
0.06820793650067769
0.12924917069109304
0.00947805996041799
-0.016963411676380883
0.0062267084619216815
-0.06859398806545394
-0.09684449052175972
0.11135876061481526
-0.014287979290165622
-0.009000165487969529
0.06750792349332503
0.04877023929215629
-0.006342333705999117
0.005847193879492674
0.0063081518413910685
0.00819998560381422
-0.0040532264614731245
-0.05519083202891718
-0.02710645814316773
-0.09771040799178284
0.00616225004290869
0.011858481033731662
-0.020618595028669823
-0.013618839276751124
-0.020439056257444667
0.0013613507000910898
0.034398612561332025
-0.0052581260341077775
0.006778903840804199
-0.09179480365148253
-0.030806597797312586
0.0036678653935469934
0.1221117330873763
0.13955680518841973
-0.0418769448312992
-0.0016368833853503465
0.002541456656410243
0.0025472032090926348
-0.00039517808482693843
0.013533682895744322
-0.03594498768734564
0.046577219265923044
-0.007019781942493827
-0.030737302345988485
-0.04034965504980065
-0.04706376385962097
-0.007839659071575739
0.006290318645345155
-0.031688819559142635
-0.0033858842748790362
-0.022495590144917293
-0.022000230595908058
0.023958792047107165
0.02319694291097987
0.003599290302733725
-0.0024063040529927896
-0.012713379833217553
0.04358026270437606
0.10180388035945534
-0.024679078437321856
-0.0616663760889408
-0.06773130127934433
0.012758990617866112
0.004943326969411088
0.016397419336590103
0.021084700368618554
0.00993569088378836
0.008908921310947206
-0.019260143681976385
-0.016029567834316184
-0.02096359127640338
-0.02248222680467446
0.03765806352472969
0.033132518449988976
0.05404359109261891
-0.012813646522285508
-0.021298514256910057
-0.01055888796911828
0.026562541143153602
-0.006908886474864137
-0.013173666634461989
-0.03387505508450195
-0.023634543493233552
0.0013623547018314988
-0.007085009932757227
-0.02499114553383514
-0.013593182910194753
-0.013893529753357566
0.05352611392242057
0.03250051664767715
-0.0006462254779462258
-0.0062174246624700745
0.02050490099943573
0.016246878350425355
0.05709419408389613
0.004354741136021632
-0.007076677695633532
-0.02240379022067768
-0.030895927591919618
-0.021342599052550162
0.06114331777239173
-0.027535098484980466
-0.004556331613045609
-0.042254893725872995
-0.031533850875114004
0.0161688559962111
0.002399630342071375
-0.0058254011837648185
0.019166041438545604
-0.005769788264748926
-0.017129048114171798
0.005610236396202408
0.02357652791446097
-0.018002919893522158
0.021411832142256847
0.08169611227522838
-0.013183366710474185
-0.0008547433373389059
0.0233161871890228
-0.007891679154997963
0.00653378993613913
0.0786053774935554
0.012732909656621622
-0.0017356779536017008
-0.003561006183506961
-0.024481774107835415
-0.06166586783049886
-0.002665072278441109
0.08131706938725693
-0.011947951067427697
-0.010947252921320694
-0.019424118901713635
0.053870944962835565
0.026189690646046922
0.04336303237530018
-0.05275475747862606
-0.07462914212345428
0.02873211217079089
0.01681985997748176
-0.05063644533294462
-0.05117336879869252
0.05262707712562084
-0.001344649771695729
-0.002788621932712711
-0.05248628386078587
-0.1570334062289104
-0.02060940390957024
0.015025036278240785
-0.06700390333118555
-0.04074884086243349
0.05699473565703736
-0.029520802368195563
0.012702607865125747
0.02493804923996164
0.0017639347116054846
-0.007976149574273277
0.061358640085317044
0.01125927784353027
0.02846137681947579
-0.009122029280424281
-0.031085739353653656
0.0468115898631286
-0.005964217941656869
0.01148952864468433
0.011974754409856948
0.008200394148924336
0.014624056718806339
0.03809245430406286
-0.02315457898412012
-0.07942385268570426
-0.02645621669450224
0.009442806719013675
-0.01720326189870769
0.0034898556184172745
0.00781857255518008
-0.031783266938049476
0.005153509873266243
0.019685283640923926
0.04920084635170377
0.01555215754456095
0.013702235877207458
0.0199461338622137
-0.010292706439784648
-0.0065071907296772105
-0.04121382238030395
0.05890031909484114
0.014283452447346955
0.014149866478348462
0.0032805105882629626
-0.01141667138349046
-0.0012513290111625956
0.00799326841972071
0.01892755419889467
0.0034680374932942715
-0.010043548467349913
-0.020599859690218596
-0.021707947826086677
-0.011664024408970408
0.05840853936861686
0.03952463229661463
0.06681966021059445
-0.04698309093388134
0.020704148194190555
-0.005409082272815397
-0.07496229002627122
0.028555158575278555
-0.01476955509809144
-0.027072675929386406
-0.0012694860438756464
0.001822198032678928
0.103449789144879
-0.019843474734174145
-0.005153262123879054
-0.056286325246927324
-0.017683409004235335
0.029175467373125104
-0.010372343258895167
-0.01278209754498984
0.03135338667801758
0.010601940368114501
-0.026542846395770765
0.0009743300984606189
0.009719316475312177
-0.0017709855421363116
-0.02045149025481347
-0.043332629682322016
0.012117675557251802
-0.0035764150930516895
-0.017347074999926156
0.03337419541734951
0.014177582504270599
-0.02189042102927146
0.014844089248360386
-0.0020831363599319985
0.020350652919745915
0.009164760042876455
0.018079376665487732
-0.03008289372890742
-0.15789466709831498
-0.029685228609320154
-0.044175841049820336
0.012235455429141541
0.026578621608571336
-0.018179093326013657
0.032517564515386885
-0.0017349694267650433
0.026062117576365347
0.031627412228460175
0.03489136964080646
0.1327386071443087
0.07052776555374313
-0.006423979611328334
-0.02163029077776916
-0.07801696096041892
-0.02114894385614722
-0.03485492464353045
-0.07956034152551572
0.03164011983192854
-0.022162360964637088
-0.030175850562358435
-0.0019182455492035458
0.009844584881237815
0.06734948865630798
-0.011751640904728558
0.023670611639929007
-0.0004349674525484533
-0.03429944732262362
0.07036991645227246
0.09461241635945625
-0.06703294971332414
-0.04606909788054738
0.03127038254377193
0.06315294761218224
-0.011610356737868702
0.021628803011074584
0.013423034764942785
-0.05211194615710869
-0.0028798617493512686
-0.04049296730586792
0.004997984734067284
0.03594225120586991
-0.005798904338923601
-0.017165988828534418
0.03829776325010979
0.02596096703428915
-0.011331912270629145
-0.06946520604586884
0.019072858540704795
0.023078173692970442
-0.009676417195438509
0.013585288178396401
0.017451870360927987
0.003172148405632308
-0.020766165794426052
0.005391733511886962
-0.017869516680873228
-0.03895328258662277
0.02150251337629135
-0.011959475027581544
-0.02972285816752661
-0.017692936544531444
0.013635288393269707
0.020060667803445394
0.012079240787203937
-0.0028336284217097417
0.01788459867874769
0.023822936724999296
0.020247661619667782
-0.018069061855477967
-0.017754819671579655
0.011185394715030689
-0.027808203596032567
-0.044857970200245
-0.06055051961187224
-0.009900147755714803
-0.01674047098009176
0.01876371269222658
0.019272717624925002
0.02738798135985754
-0.05221114503354346
-0.009784704849475164
-0.0022974206924424776
-0.01326360434752521
0.03417692406846775
0.026933392502701225
0.034699426591484415
0.018844061535751928
0.014512115820638797
0.004071488635536863
0.011042914571238883
0.03314820677092853
-0.02206958757572795
-0.021701358767751148
-0.010839217094212653
-0.0009451575866817077
-0.02150222521058699
0.0019547805122294443
0.019923924351962937
-0.021982675856979276
-0.024091898519767486
0.006343802665924876
-0.02089087804610452
0.018198921513194934
-0.002908014227203629
0.005640143507229495
-0.0006163609160973357
-0.023420606779124435
-0.09582056063040868
0.10475352241509321
0.017010649173233534
-0.041134496048712256
0.006614104749754111
0.024167668543117884
0.016955407723850045
0.022337185760257807
-0.0064630504937355235
-0.003603132617221893
-0.0015436041090442377
-0.007482441699262282
0.005743455016726508
-0.019646160203093753
-0.0240236109291301
0.0031367563302809854
0.02592568256878412
0.04952890621568504
0.0067561367809686225
-0.01568005511223301
-0.07260650915152778
0.02278728931653027
-0.05630627741334868
-0.08555952592221207
0.06224678711692561
0.07155773408875155
0.015647414727285897
0.021510221493382334
0.02405116949127429
0.007894597385467616
0.010145821862108263
0.018733926633025758
-0.023674698860059983
0.013181966904615565
-0.0367859488551629
0.05037152502823073
0.07073456515348231
0.011579869193295586
-0.0005649643470724542
0.0070087221678535845
-0.0037391536475436765
-0.05167077450595982
0.019150802894402498
-0.03415103229792648
0.013073079204955387
-0.014764115577950584
-0.027498743599756813
-0.03666485380505018
0.025121729137165115
-0.0003194886750294316
0.035087766521394156
-0.014033909110337849
-0.014139094308277825
-0.017032517321988915
-0.0038322729496092604
0.0035958060232159227
0.0599867242237026
0.05942012079933487
-0.024058614724473956
-0.017513673391177244
-0.0007772337671390084
-0.04004531675752204
-0.005218239249809137
-0.008889599168629131
-0.019415502000818916
-6.124652646860865e-05
-0.00926383166361201
-0.005052102794894685
-0.000358086118569278
-0.038828262737777265
-0.025301208745453697
-0.034522326096349996
0.0355691527690276
0.03208777818454608
0.004054758200548636
0.018960997096695614
0.029984429402595623
0.013223049667205784
-0.0011665480989791251
-0.01687880434641307
0.015002039421173024
0.018543487673111862
-0.0007550494183234913
-0.09789701623552698
0.018241465308817997
0.017841742925565878
-0.040066238365777065
-0.03308978696055893
0.0018816590444642085
0.03384486775202074
-0.0021917533836908576
-0.01668532091422688
0.007859540956498809
0.004250233887315128
-0.009695134501108966
-0.004058737191316619
0.0065090005791246346
-0.0020434234426003526
0.013853987198523718
0.02417180911326367
-0.025874012215988788
-0.0021375085950959528
0.00789653579061323
0.0307962746222735
0.005585452685582656
0.028948013928276336
0.04638475196291831
-0.005715872197426914
-0.009583101214237612
-0.04724971554138466
-0.057730168152151484
0.017223622085552743
-0.008762380275496522
-0.016759307794308776
0.0884255926996807
0.008584804172726116
-0.04913389967957414
-0.02998179675324271
0.047005025084429816
0.022873088255878197
0.007617854881309459
0.012674018352179822
-0.06342295869354082
0.013101305132416467
0.003262698128526669
-0.03154665097305742
-0.035147389531993964
-0.03022692805687193
0.005530368222410187
-0.011082073986186838
-0.015385055639875352
-0.07237760801620474
0.012283122873583711
0.0330686781837188
-0.03746411473797297
0.1398966112827233
0.08479079682138263
-0.02070435540898163
0.016099672474518423
0.004457354917174971
0.00447269368245989
-0.0003559620117997632
0.007186322803696459
-0.008278989563598281
0.0006729504447854713
-0.01233681296778018
-0.008746359156420549
0.014803334177335517
0.01965942210711614
-0.006084283052468808
-0.001615109535605208
-0.030907507615008392
-0.011309938453218125
-0.0036342152551144475
-0.015241344399906872
-0.0009401707118739804
0.002812299932977978
0.025903318838880505
0.012045430435607794
0.0015654079704154659
0.04326696108229733
-0.03297411295868908
-0.01635985051398484
-0.013770260630857371
0.0018107620208419285
0.006079656431341052
-0.05206783162698752
-0.015623572810610175
0.0011217652525799555
-0.06252093901939862
0.011902211419218125
-0.016666564914910226
0.025871722089830098
0.10016649537309932
0.038040384149235024
0.006363137939732332
0.0009889885732493687
-0.023669136379738265
0.008797746820222737
-0.005762374165834251
0.01886679371621121
-0.020127794320778977
-0.035160744347749726
-0.026651076269675566
-0.0010916454177797973
0.048228605542663464
0.007445439061650746
-0.01023793762450283
0.012633682502035027
0.00930788340056525
0.007866400799718282
-0.0013707336953517233
0.006542237097049498
-0.033045993519363395
-0.07354919443109807
0.02402822630546817
0.03579234904773511
-0.0021520715806519573
0.003376497010022573
0.020354015890070774
0.019042919015145536
-0.013435518994136047
-0.044922767681449295
0.01700286210754217
0.02419406966133572
-0.005868624274532125
-0.0026915075475568563
-0.006812638453422213
-0.015500694640557129
0.012775348493311977
0.005750505101590359
-0.000347704045440051
0.004047291905958568
-0.12305139927476826
-0.017498087806754263
-0.06020918420678682
-0.03733681715254477
0.10021705013968421
0.0725264422329366
-0.021860567752688513
0.08790051390858855
0.04999868092902068
0.03922617997243903
0.007804093615173448
-0.004862916348949796
0.017457976967952423
0.015819733362520655
-0.046742076784371304
-0.04359779421595353
-0.009517832315224968
-0.0003501569660529889
0.0004969306646498527
-0.0689995064493214
-0.02384576031259563
0.008641528662030091
0.01140742288253223
-0.019403672486834243
0.022040313026884837
0.01768712055487171
0.0005093815016869901
0.03730607512111747
0.061832142062811554
0.05571506655515019
0.02843087864475902
-0.11241676757949673
-0.024279476880126293
0.043536376811996645
-0.030687927195720194
0.01572961931788604
-0.014610866370368628
0.008873610314651899
-0.006989207735257315
-0.03911690862776947
-0.0608109437386314
0.003341996674732018
-0.0668397056881635
0.0016479917998934077
0.01279574026939233
0.03120878913646967
-0.04744064756764391
-0.0756420387617967
0.002827351189106168
0.05760711260797923
0.030866118777403046
0.01610522660775028
-0.003453331648989198
0.022079137865080815
-0.0031841376945584065
-0.03262405523835217
-0.025792122825379737
0.0018294394086687386
0.0021247237765449145
-0.012378144851044078
0.00738132885313979
0.013566675127995273
-0.011118189521330403
-0.02566196794477768
-0.055746732639742086
-0.06224068580346472
-0.03436647137064667
0.20794177555318696
0.017299492069289827
0.018024348421648052
0.06026843563353502
-0.041504081132390874
0.04207922339046743
0.0007269379028353925
0.006005162207563729
0.012849930859810484
0.00016702072085532631
-1.871516784406888e-05
0.0016148831490460935
0.02952856162957659
0.007829693599768036
-0.03663467609923084
-0.0021571990204218103
-0.03647181422991955
0.007402025254322922
0.036061128112631485
-0.027962003245634956
0.0508838080922329
-0.008982347622340504
-0.012267619331536236
-0.028635112091459854
-0.010438724767393586
-0.03897015647101645
0.020775049008359366
-0.02865098730071754
0.00381546804401672
-0.05820894115083973
0.12625087265286442
0.11450465501468583
-0.03290156583224979
0.00693324110493068
0.0066187303517610116
0.006181318857638168
0.003145296181414162
0.024010696431986903
0.01173398613012295
-0.021984068273533875
-0.008273228537174927
0.0021055342257097166
