0
-0.006455613400285142
-0.03860660391014479
-0.015980111078376446
0.04723209389288657
-0.01049416347674864
-0.015354365031563486
-0.005167474442546053
0.007810522306365073
0.010488077260974709
-0.03785203051754239
0.03425266723467736
0.011760267030628062
-0.011071022474546575
0.024236562358652753
0.01628169666055397
-0.009786441516819216
-0.025534118337110688
0.03433558928863217
0.009489638976195333
0.006898423341933956
-0.031794971999437566
-0.04734171054701611
-0.017349976038751214
0.00901465194504094
-0.039867102580827055
0.04240724098407861
-0.013949122991549018
-0.021499349529854224
0.03503245145009721
0.051932033689132406
-0.049365477876668507
-0.03722268016191834
-0.02220523327409
0.04516739887684181
0.048020225219864744
-0.01709680552029337
0.018259145685856088
-0.009831098414838499
0.007853711856832958
-0.042863865327351196
0.10243708979430972
0.06541414194787738
0.017214418225572955
0.026585719302984555
-0.03754054464039715
-0.010776042193305219
-0.012531217317447193
-0.025606579107045377
-0.01672515569484108
-0.01555393766434425
-0.02333601503309314
-0.023307177978294246
-0.026563418480147257
-0.02478389920421345
0.030663493128390572
0.17753790106682477
-0.01636068501621706
-0.033650324696380345
0.05242483535305224
0.01901945982237741
0.02737098697389479
0.05015522065917965
-0.037201877963696776
-0.0005732901821655929
0.055887030235998045
0.06952901938838707
-0.013264947803816804
-0.0607510774896361
-0.1505851562303975
0.011417311241732604
0.013341942867978076
-0.0021716316245030294
0.013031643523597584
0.021935566008194057
-0.02769866889648375
-0.024996011313976187
0.03772431159467886
-0.009126719355930032
0.01428278486768261
-0.04913122880788374
-0.06883258145369145
0.034743415990563645
-0.013778215488895957
0.06723695107173529
-0.17146587316026218
-0.0019646739834860384
-0.024698624330693048
-0.018107444398316255
0.019193514512124372
0.03005904111136068
-0.027622399656300353
0.03859641194876397
-0.00030516278729147495
0.002216514166340402
-0.0385032919612396
-0.0055947022797116185
0.016438551678112232
0.020072834635023636
-0.004849831214542023
-0.0004712581230088318
0.024282253011242188
0.011317959632459518
0.019735260506556943
0.04374991022445241
-0.019538441261136873
0.03068243105678865
0.03049812429004117
0.029435265521641846
0.011653267906537826
0.01142931987196082
-0.013148156405921416
-0.14021730630399976
-0.068283047844344
0.02386510006708258
0.03931995089865746
0.010783529415837512
-0.0016688087779388565
-0.0032035778930242743
-0.059349114686351526
0.03216351638065461
0.012012592656505556
0.001282464446704602
0.029165473963493883
0.02953014585550648
0.02411771408656819
-0.03870384043473616
-0.025221679770030855
-0.029704869527084843
-0.1379911116604293
0.015149686727568019
0.014150177879917594
0.13483590159122438
0.08938808398572914
0.006198273834981763
-0.05863475151601927
-0.09529771448233808
-0.01354331361909084
0.06376866231034853
0.0845037998705029
0.052160072924358446
-0.0014689974275950027
-0.027697113465497476
0.07477668411183594
-0.02934909756035847
-0.01057034196435375
-0.0014758732289454175
0.006401484258265776
-0.03648504246770265
0.01781760773087034
-0.009713918075240344
-0.010237595145433688
-0.018711749011806132
0.0033277977089705016
-0.0699831830705406
-0.08061894146698433
0.009747258173192648
0.005022506002613911
0.008697267807032841
-0.02098221442052683
-0.06054116454960014
0.055364149268107773
0.014733308639854238
0.01878772995109664
0.0012555936781597572
0.006664142916911905
0.01818966080635952
0.06078277882122632
0.0014056331130031137
-0.006168114769533082
0.01795318320301106
0.01736721929616214
0.019376386426216596
-0.010883336354564616
-0.014397755839743056
-0.01737062154204032
0.014028741898812376
-0.056756979421577335
-0.02454834307624457
0.011079036663337519
-0.006906702322618425
0.09328899609842665
0.04071430762661042
0.00036356864257641616
-0.08056829976192921
-0.09510597940035985
0.021616634321309204
0.02217333904121367
0.0320074760726773
0.01089299024698003
-0.0334923079646182
0.0038203712162773627
0.03709019251066691
0.04646855329053385
0.04305312862114965
-0.06228363414955481
-0.006983017175067688
0.00560009570228986
-0.0038001684503901614
0.020353581872427858
-0.0035960158301874337
0.02119928851691333
0.08737064697191756
-0.00797617718013586
0.018463261908372754
-0.04408216681446624
-0.04438254205895171
-0.020835242615025437
-0.026884271434768337
-0.0027481940089977607
0.014485263838848749
-0.0022558508503104937
-0.011709459912958551
-0.030938479318724912
0.003141697564675707
0.01570016537062552
0.006245668376769164
-0.016930417893200406
-0.01930674542248205
-0.0307886852774941
-0.04394779029654719
0.012896141870667925
0.033595105189292145
0.00619816317399737
-0.018366536595143878
-0.02666124077394819
-0.008835608240368551
0.00546041119875668
-0.029592983369332873
0.05513157326794599
0.14401691779630557
0.010474470625445504
0.004906323651900164
0.002228062854651653
0.06194163182650122
0.017557798865572388
-0.03874224024832803
-0.08201542186226027
-0.057845936641021584
-0.0777361551115257
-0.023829358556171333
-0.008705796394267497
0.005999305872520003
-0.09259713897461708
-0.045844511378412806
0.015612085702773379
0.009477943822197108
-0.00043368220282606927
-0.0035363422173980814
0.02708663595384389
-0.006429268680907007
0.07419110811150592
0.014308546450056957
0.05729401228258841
0.031284352265016864
-0.019260669648841704
0.0003915468855342543
0.035367634266277835
0.02298049611758452
-0.008406998557956237
0.0004492709380649758
0.022517447463150212
0.009902006630056526
-0.04196943261074375
-0.026646712579018378
0.04337088485667873
-0.055767313682670835
0.019200735973946136
0.07066322248617671
-0.06394392960793116
0.006432072908610113
0.007165758987095157
-0.044662557010087825
0.02038108096914385
-0.03566072507429481
-0.053798791515960086
0.03143925711184512
0.10039164125466984
0.08097758543284936
-0.06196113959118287
0.013738725087819065
-0.03489167851896854
-0.04150084074324044
-0.06632899577495169
0.015154077881264385
0.0088576369381664
0.05747471223321259
-0.011492764870240946
0.09795311261679267
0.13016840028648208
-4.648460862743644e-05
0.0005205808168134742
0.04923963776306846
-0.022592940150522333
-0.018515421265900982
-0.06751427032366768
-0.04223997150055362
0.010729898716918337
-0.04220159244187738
-0.009714813566586185
-0.048704483086427386
-0.04093188321234723
0.036596422505502255
0.02180454213024971
-0.009417077215941417
-0.08000694583748073
-0.00938947533422704
-0.022516615891358147
0.001888208595350242
0.06177828522806246
0.015059081159514862
-0.004918321470995018
-0.0293703164199116
-0.029513220483868896
0.031711100171554145
0.04609764971768384
0.01958011385807236
0.00028532283447805487
0.004526508200790475
0.025978503742343628
-0.02280851989731356
-0.026632915137542616
-0.0014225369389915578
0.014866093008729073
0.03678533155312625
0.010758437765662989
0.00936895278031987
-0.0016649638872735398
0.04597177032194279
0.014976757503022145
0.012520187480832345
0.08486624313349457
-0.019145027551265268
-0.15213128467093562
-0.005351322936356114
-0.014338521752646095
-0.023973133319595996
-0.08525883653553035
0.01018774278931284
0.006854111253470502
0.016693511235406112
-0.05348587116614134
-0.08462035976725117
0.01282026525031753
-0.0010365063971114691
-0.004666706595719823
0.02537360461752352
0.013904339131785078
0.009545510383465496
-0.0014252316680092318
-0.013182794008043409
0.025921082175072174
0.010795144923115965
-0.1646104896687518
0.015956251304153648
-0.08781468479981638
0.05475477625022041
0.07679657376684453
-0.010146898256087635
0.012295293611417318
0.038614367674093195
0.009479023867528394
0.0072548459518999905
0.0039610594835342615
-0.0060492182816269426
0.035285562155866645
0.07970963613469274
0.0018749144317635746
-0.006724402283233602
-0.012107329679437845
0.023063983665789108
0.1285839737927535
-0.023784184938655226
-0.06435688747907678
0.008305333802248814
-0.03364291921650536
0.06027165306038609
0.1938054158681245
0.0036259144940597927
0.007682381786377379
-0.0038075618767728723
-0.05362641426483427
-0.042586323839508576
-0.0262463709224461
0.004926369470273452
-0.005513296555311588
-0.04264143439918654
0.00038043438305193595
-0.009073584232259442
-0.04887107174956116
-0.0226718338758366
-0.0361212083743917
-0.013081002457647343
-0.054716284506686995
0.1441038671938452
-0.012879318681145455
-0.07282086696350135
-0.03281960035157263
0.08607622390116795
0.08355226066457312
-0.03684282357922831
-0.0046322290081202
0.014637065526708907
-0.003391602285274608
-0.029637237928526787
-0.06781639374446534
-0.006062493534108218
0.02676690678920123
-0.004122873073248922
-0.008119287722542933
-0.016708591766563596
-0.005947777491427194
0.01922684822974897
0.003632016465118773
-0.015572904474047135
-0.005840849113374808
0.00016772422786349146
0.010811386624238818
-0.011841247347548236
-0.00016325340970082305
0.06842695823450677
0.01721510160458151
0.005358792420358432
0.06963118379597981
-0.022706862730832163
0.007539772592783389
-0.01625106384480646
-0.010414510295104143
-0.0446976730269751
0.06044283394234323
-0.07968911090850085
-0.06867533962928525
0.03227745069376368
0.0020776709478205813
-0.0013374736230809458
-0.019263643428766238
0.016344811445265495
-0.04497109941815877
0.009341082582771883
0.009420843690339312
0.06349040637769429
-0.06796952837548176
-0.0970823386107485
0.02874496184046273
-0.02907927010406543
0.05403352246146161
0.010287286857003704
0.017854237281308076
-0.06556097267361098
-0.06575859617083948
0.019921689478237824
0.03548797526926314
0.08486752414269459
0.02140886617188819
-0.04118259938095016
-0.0031527681553851707
0.013383003377319586
0.011935149466934641
0.03838785728143742
0.06537537195408902
0.022648735818159918
0.005400288664686248
0.025748237296135602
-0.016189730941196915
-0.002079199287029129
-0.0751731064261266
0.08219383779448411
0.09772611052870349
-0.020988601132139365
0.02410382576167473
0.023279895011023954
0.03408768348164495
-0.06308227025509167
-0.03905637336303985
0.024746981445780032
-0.031243833872592178
-0.02226380218292173
-0.01787465972419629
-0.002873812509200576
0.014478454213338838
-0.013391936365171785
0.022761842307797348
0.005713463526963783
-0.06797833077472497
-0.008996667678224633
0.025559260683226403
0.024669820922832694
-0.020828737137727482
-0.09103146726337363
-0.024302035375715923
-0.044670941425714886
0.032024522625671153
-0.014975163038370112
0.0029551745991712665
0.014421392537517857
-0.0664651866505554
0.04426096261261437
0.010418977731272048
0.009360450474089607
-0.009844081138736476
-0.008244850189221813
-0.026927766000432528
-0.03532118557915937
-0.017612636539301767
-0.05414728575014545
-0.0055251452810486466
-0.01957273159169993
0.03989047928591471
-0.043891737107261464
0.002139424410214765
0.01458810352998604
0.06030711891416722
0.01266768054416646
0.022935833762968795
0.012365593219061732
0.03516118201191591
0.022309841598833806
-0.005073567376349998
-0.005141463133674041
-0.019027899806276817
0.02980934085425706
-0.0019361247716443478
0.022873301802107587
0.00042052247510139827
-5.2400033998390034e-05
0.015152325711048673
0.013207594110607497
-0.0015240247387028076
0.004354454350856893
-0.03460065147825231
0.033522711316939076
0.008477831065541383
-0.005810496775141034
-0.006112873337001852
0.006438382631821028
-0.01752048605376349
0.00010436031281173213
0.08318029126055966
-0.02003311598549482
-0.16065007003341297
0.07774375867995065
0.04266055340446169
0.0016958719983125896
0.015980883744331324
0.042918605057000916
0.0220385715637087
-0.005084937751115714
-0.020135659924198055
0.01193345484439975
3.9150951046300946e-05
-0.0044730674337632404
0.0003314482162607404
0.0491566679614335
6.175051073878359e-05
-0.04462738778872227
-0.0008124081747216971
0.01853066946032191
0.03158433364934111
0.00010492276270441531
-0.021855503471177287
-0.0210624759306151
0.01919357764184228
-0.005879118478050466
-0.01208163194949844
-0.015214408959830788
0.047570765892733596
-0.002555995665482893
-0.025097547327203328
0.022354716537590986
-0.029911621710327067
-0.0944191388691983
-0.011901510515014275
0.05305096782096
-0.02188039542057978
0.006442204977117704
-0.006962740895767635
0.007155443904165176
0.08325311544087081
0.04656714612832106
-0.04319487210410115
0.006272946509094884
-0.05849927674211153
-0.02089350402850055
-0.02332303779413273
-0.051391893519478246
-0.135863106624247
0.02500554363536592
0.017423723180633413
0.0014022171004439581
0.002142462456814664
0.09560147284804926
-0.010553547666696812
-0.03731832578781819
0.040983148557861976
-0.037979079097406734
-0.03378746633924626
0.04499515396620216
0.00826068781641809
0.0015237258054510007
-0.011688574005495143
0.0073124709590031345
-0.01830861974167366
0.04754768958468285
-0.016709029360576746
-0.004807874428091797
0.010892897806657177
-0.022807350584361438
0.020632656755085743
-0.05024266058044691
-0.03933270221853771
0.06684664993008946
0.0478750713098931
-0.012274236121008175
-0.014413041238623532
0.018631262799304608
-0.0225111080365202
-0.010279668575264269
-0.03157069433873441
0.060061457191751745
-0.007952019174621667
-0.015809824352553525
-0.020255331543287892
-0.0038757874391481136
-0.005927406738613609
0.008252655195462309
0.014010937463108232
-0.020256839740434702
-0.0013907863013407809
-0.011847886117905953
-0.022864241204909822
0.020241382971874028
-0.012231792805861851
0.0188151889520283
0.06889534832065189
0.02178098717691403
-0.027417210110900665
0.04178750116243211
0.08997688915450458
0.042201731713180056
0.0075260354332108365
0.021783189847523903
-0.01629832993169224
-0.004731278872296291
0.01342179952420243
0.06152002465502897
0.020665331212966098
-0.04208055266873935
-0.1020639099312247
-0.11499412145758765
-0.033116003940599804
-0.1487406589215556
0.10906783621279825
0.06917280315353397
0.0057142192173401446
0.07308162671327391
-0.01297914873478884
0.006346681626890613
0.008166009087644654
-0.025447830414215784
0.02245808664353052
-0.010101375660982534
0.020715958924827242
0.022722053781526544
-0.014789077942579408
0.016306763064828776
0.03730606439124971
-0.004089717561940108
-0.008960511547050184
-0.0018503885958766554
-0.021690408390153057
-0.05731768269576709
0.010823302844213267
0.043882908830987104
0.018160091358563373
-0.003234493482386619
-0.0625605557058624
0.011136805115186332
-0.010125285640350073
-0.09307179437616594
0.009772847823032805
0.007835232544011568
0.02179446541640815
0.06835688280378509
0.016062393996372326
0.03487574929560417
0.02901382667603368
-0.013490476584482462
-0.028768658518033202
0.051043769307550536
-0.040095097528633356
-0.159715745730983
0.04403728803027389
-0.02606667197928354
0.021127634276351975
-0.020568592143465927
-0.04517672809478159
-0.04986003475257732
-0.012347164679889737
0.0027686236494853596
0.025137685488275403
-0.031985582938488376
-0.09200497788370934
0.008666978950274672
0.048706110594864
-0.0007645293795416326
0.011684500882846161
0.03480722030765358
0.045684842354101085
0.0005325277360618396
0.0054966819100096724
-0.009604484573748037
-0.009664494596956112
-0.01903668275074354
-0.02071076520554619
-0.0025379998718348526
0.04658345450973814
0.06711422099842554
0.010303323343821285
-0.02490156804714444
-0.005043214764007205
0.022354121097348877
-0.005733287127821018
0.02265972384153173
0.011578213093623313
0.027414776637398906
-0.010969636290629645
0.01629625394264064
0.0339066870292003
-0.004051990630513025
-0.005067623089220039
-0.0018580516543638189
0.02793800147409055
0.008233129223749181
-0.014597962945387325
-0.019697784127130046
-0.007927771645640007
0.0058815466723948755
0.026451610544292244
-0.04797189748247364
-0.04473805361882368
-0.0036969530765639342
-0.03711554726890088
-0.01782181859538719
0.022799075914183273
0.031034349273292666
0.013330799940823593
0.02324961273841187
-0.01553423042563648
0.007175340907198282
-0.01854922213400437
0.0331924611611105
0.009284718231048782
-0.0034314845195060994
0.0007222557553876779
0.023440207295175815
0.06728137165317043
-0.009620812350197816
0.007772374379195033
0.005003617749671407
-0.007086165295228052
-0.03703100311766073
-0.0024329368743564728
-0.037139049788340484
-0.03704394424201214
0.040756461264412944
0.029130582641692587
-0.00595890142529041
-0.03326403588933305
-0.07553335906200076
-0.01951559040391464
-0.014864795434419228
0.0115417338553191
-0.02591182698600071
-0.024795903724913387
-0.011364344245793311
-0.019069788474624812
0.03495408951340992
0.02486600519973023
0.03579879697660215
0.05107580511844215
0.008267024629213788
0.01642943811642639
0.01044901552444525
-0.010614312296298086
-0.014704645008841121
-0.008091653232905099
-0.01551210002341148
-0.006341937921522841
0.0008937905508926398
-0.038956549384927
-0.017847055231540156
-0.01666028265164315
-0.04480295632262192
-0.0035471006572473356
0.015418864748385021
0.012026412070459406
0.03579431007070693
0.012239114583783536
0.002372036242649982
-0.0014499435279243314
-0.007539602596827524
-0.014049122833351422
-0.0023444154651143263
-0.026982004699540492
-0.0021596051062275075
0.04573359258195765
-0.01636048642508797
0.024375479937353724
-0.03004630493783417
0.11080417633611547
0.04331792607337922
-0.010223668113991726
-0.007427213682708133
-0.009582728964157291
0.012312888082483521
0.00047821762495788993
0.0297784963904967
-0.03146331062562464
0.09364880422857456
0.008200243394189989
0.0398156846795034
0.052966317404494936
0.01883726985397716
0.03908029205232456
-0.017243691054776168
-0.04166553643654389
-0.0737722434980059
0.0010421668617393535
-0.009693530334403396
0.0010338596548438543
-0.15757188638171435
-0.1067303025697087
0.018767777512294172
-0.038100575620808215
-0.02430993865831023
-0.029884458179763807
-0.007061257627456003
0.015491388608901816
0.001312086959439834
-0.02570222384287793
-0.008725874491172635
0.05435066661703579
0.02325643421758903
-0.018481895902369764
-0.0006178559785314907
0.08441853388606307
-0.014124310873416649
-0.004044665285633265
0.02818717077173864
0.02300540261815136
-0.003356282152647991
0.007323649782985684
0.0018312052274748166
0.01844855906671798
-0.0018129244075925702
0.00751496336110114
-0.0024665014347378146
0.006594418902333526
0.003805347240163927
0.026367760544899827
-0.025188135543340043
-0.005949398689892717
0.021856843818566323
0.03455645685748909
-0.006167899264583909
-0.03213929045174827
0.010494386632010562
-0.018717301736043773
-0.016804269015616498
-0.006068604003562049
0.023901406522199
0.01144714591101507
0.020301002693115827
-0.016329852304893484
-0.016262957554991055
0.03789077343831483
-0.005011434011094423
-0.02513217717689413
-0.010467384373408113
0.003036603775976859
0.021624604406942482
-0.022737490740448833
0.016957012519157287
0.041186436356705367
-0.014208184149054764
-0.010836438088527942
0.002934479593801067
-0.026444459463796505
-0.009819460571567483
-0.018726697433147116
-0.01867829939176894
0.026224500995987794
0.049754788736485735
0.0005630592689922412
-0.004768085668553232
0.018386793337572833
0.010053710639493707
-0.002505194168929356
-0.031083183313414323
-0.027008262420049032
-0.038838653752768175
-0.03293482544394548
-0.07471941982547173
-0.03544051904168898
0.02050593305563671
-0.012094158267699766
0.011372994993201603
-0.01685948565182946
0.042896898434370716
0.02493247865717634
-0.008265373325703824
0.07696354546538332
0.03834520028479479
-0.02534009884295511
0.0316226840876747
0.04737470272019265
0.020686301965193565
-0.02271049741785279
0.021268675123478704
0.004611979740594522
-0.00759610016988296
0.01969855357293872
0.01217155716774859
-0.02315093594254742
-0.015194790540087015
-0.007654533905276017
0.014553059913813754
0.013359744631875947
0.0331578525931009
-0.017040299022588995
0.037844624273569376
0.00017192118983806948
-0.0024434880054907573
-0.028772951398202216
-0.026051354323290046
-0.019461407762122466
-0.002964913901105548
-0.04900475233827746
0.026691392891726447
-0.0001783979604540126
0.029561921694753714
-0.06469359352943256
-0.10946813948669809
0.026905354776516843
-0.0023064245843962866
-0.01863952395433298
0.03447719115228171
0.05048811541535493
-0.01390406991921721
-0.00760722953370628
-0.031694720760515376
-0.15530016202070465
-0.007523251363981796
0.04996660259299747
0.053383910812853035
-0.00048012722562377813
0.016416779343218533
-0.06310650619442114
-0.04144880981219314
0.007602125358901172
0.02320759402457985
0.02646664140314799
0.04577263108248624
0.0017242277720759054
0.0023754418541857896
5.44652462257556e-06
-0.05137736108120366
-0.054157192424320426
-0.05105028591992389
0.0009519903585351003
0.016852550964318917
0.044924066203954505
0.02576525187641182
0.05979696384760165
0.2425178987223358
0.02586262136497887
-0.00010419231611878139
0.005563786668300164
-0.03978505608857389
-0.018271071826186747
0.007564508874631303
0.04031862912349973
-0.02081279560430676
-0.05858702596289311
-0.02168638086361783
-0.0021788286412081216
0.02214391390447344
0.008296716837658397
-0.016654679046976983
-0.06520289795845008
-0.09743986445465022
0.017705146797044952
-0.013868373370423633
-0.020113754115243243
0.028524168059886487
0.004219364220946345
0.022397611189298613
-0.018411859715844078
0.013342821464787522
0.034262774457162595
0.028095084352394297
-0.032364742498042845
0.003075539907402844
-0.01868079169636697
0.0007732829032054746
0.00880381697610373
-0.014422867009389093
-0.03264155490292439
0.09654012862841366
0.12286781314602806
0.03164184510173356
0.03815342991671416
-0.050461478944515144
0.0035419253449337045
0.02482476321395729
0.010601788451193231
-0.013218983045739896
-0.01891753282586386
-0.041011471141353166
-0.012735036962442327
0.01913360432482999
0.06270260229605223
-0.08613204123268453
-0.03143490200261749
0.0014709784173205678
0.005037933348332952
-0.0016917483869570483
-0.026288683932102916
-0.002072901527079025
-0.006150622365631006
-0.02123044350556121
0.006791503633956446
0.024405108576727157
0.011468744431384587
-0.02389691409761571
0.0012475750444571278
-0.006876421936561835
0.0024405690952942166
-0.010257829758356016
-0.06265150478410046
-0.008698140287780369
-0.0644687733228797
-0.02256513405102437
0.013075469157363366
-0.024396177689342723
-0.06674137164999404
0.007178943741448539
-0.01396001735156437
-0.008774043030871734
-0.0008079528726939483
0.10630792408060682
0.059891838447125
-0.037397258624323006
-0.022575444890898452
-0.0460105291914143
-0.052066822134251296
0.01725468512967869
-0.013879729244066658
-0.07038241309462295
0.00784644899880615
-0.008817729447102081
-0.0029503479688834755
0.06710545998025835
0.06622589037092198
0.01619039251009189
0.1796332232507605
-0.08033369554898041
-0.04249885031215791
0.09920575613011125
0.06365960384055612
0.10545511241639943
0.04360674633391271
-0.044802754407267706
-0.008106761403561468
-0.020363302240832163
-0.017976405693570757
0.0015989143306458554
0.0012808729679616988
0.01518397329341216
0.01588676294456749
-0.0385799795196358
-0.02918772560660455
-0.03296251981085577
0.004744075656888907
0.011699469558208183
0.020407200061552902
-0.031693654609884984
-0.0534310766828214
1.5127238661495918e-05
0.026292998421183454
-0.001438011390136875
-0.052754498536411544
-0.055525157126002235
0.0384301990181032
0.030642339542786185
-0.000899376199297751
-0.009651252306429587
0.008264860330437248
-0.0005927475405002476
-0.0006546284525593623
-0.018523700047305327
-0.021867785951251904
-0.03389449038377584
0.025361299251401008
0.04375773428315963
0.16707297066249266
-0.04108262399418545
-0.01779513744066062
0.008793468176370653
-0.0028545586715703055
0.003977833083444928
0.06476132298307914
-0.04305945300428327
-0.13047532026024783
-0.020665260824452834
-0.04233843740788073
0.013946425640321862
0.0037995909777093547
0.03253681772509532
0.11389957978014026
-0.02609719870890224
-0.027897584400822784
0.008213979907613926
0.022560275103945607
-0.01734056535576032
0.0009187661183976498
0.017815412053233812
-0.018867017833182207
0.004166698869822257
-0.03253450829633583
-0.007198830538987472
0.038019034258134396
-0.0532024129635467
0.02271280321183157
-0.001427886593309735
0.01634011540983585
0.00010174269363230902
0.03030706563373864
-0.06966269512233185
-0.035162172524635465
0.06227532228206224
0.020036725208622277
-0.09433487913845903
0.005107061071316026
-0.05165567606213336
0.03458309560193077
0.034346439002944894
0.004941505066265065
-0.1585365173022736
-0.045528733843033256
-0.029317946262753216
-0.033333629629841384
-0.007634276135094332
-0.061502324145282845
0.15408527264285188
0.019472397700054395
0.009351835159099903
-0.0009944999609194803
0.0066037745127873705
0.00483619809436642
0.008843316669981527
-0.01291980206617117
-0.0416428751544512
-0.12224740123835366
0.03924911823947285
0.0010313394035555083
0.025716149210630212
0.09226543589552008
0.15850782537055047
0.04231623119101769
-0.012507459868959963
0.016986358498099964
0.00023493121497632677
-0.00225171431795595
-0.01861046053568743
0.0015434375222880595
0.008976356645660257
-0.03307375231438492
0.07670180606296545
0.14182509479806343
-0.007277225801257563
-0.022390216996589992
-0.028062361012742582
-0.029813032029330833
-0.055820850593753246
-0.014539471763438892
-0.004336619874861195
0.010849191821110653
0.0001363476657437278
0.0018321907433563138
-0.02215733081033186
0.013808041324619914
-0.0019998597804559283
-0.017717573872476963
0.017027831465288232
-0.012316288468376138
-0.013819295402387778
0.004988990956185185
0.01710607996693602
0.031674083664007646
-0.022153309715604228
0.011198829483127674
0.0009043886494496639
0.01295451498716883
-0.027732783093334275
-0.03281083134247373
-0.05347229439033656
-0.07643036122624691
-0.017701799679360173
0.00014627183506622972
-0.008964552691182038
0.005929475908121274
-0.009355222953252671
-0.0030236822995265847
0.014229377116419332
0.044243561795328026
0.011745778819088405
0.026167476298405035
0.013497050175767343
-0.02062407724132767
-0.014735810542045822
-0.006504112975440443
0.009712004486737206
0.022011537204554205
0.014544000292992494
0.021991057071497913
0.001220614369701487
0.0043165687227879395
0.0344357613329078
0.043413185163076864
0.007993601173427616
-0.02433460101342503
-0.020202846400161404
-0.008414338539199727
-0.01570216575848888
0.00509427414929189
0.003920931847428799
-0.06289698411782359
0.018704366846264673
-0.00682285961991931
-0.03487793567976986
-0.006127079348168336
0.012380370885178663
9.589234135105186e-05
0.009059246846456296
-0.03801806017229603
0.03868313539588154
-0.05259511867815835
-0.04400736663611473
0.04036656735112867
-0.021607033970883552
0.09978086627689005
-0.016507316235151503
0.011241344861320017
-0.019293804910831422
0.1067971566225525
0.042605852796281284
-0.03985391914597069
-0.0353532792824335
-0.012711406617881492
0.07360204882568443
-0.0006294765195393371
-0.00446204812768881
0.049767418423168945
-0.022027629507642463
-0.007136509491456209
-0.029684358072576713
-0.04381114259786391
0.03309699236644891
-0.03399106724625113
0.00652569015650594
-0.016212558037130963
-0.07379894059556127
0.010422390075902946
-0.026560023246636217
-0.02886522744883801
-0.01773524761009919
0.012858000914862113
0.006915388940262581
-0.012601231975779493
-0.019193705093610756
0.059770064822157284
0.0155167162520295
0.032516317415988844
0.014007107739476407
-0.01858153258658151
-0.00806332996764416
0.002052326753480251
0.0015772670530980616
0.017821261403875015
0.0008275335354161186
0.002048742344774353
-0.06555892228408143
-0.019113392709726965
0.023767910437106233
-0.01909573665441726
0.013366948563675735
0.01153210159475679
0.015762211746806417
-0.00046707166251814793
0.01803100164333871
-0.02701156896363721
0.05595913474820012
0.053669883774200115
0.007863544284395521
0.028724834176747767
-0.029805214685723894
-0.04416989779296408
0.0033153667337492898
-0.0021460514788695572
0.019098247428482637
-0.0018416465019790473
-0.018242406593067816
0.0015309944292135416
-0.00743369703403655
-0.019398200552971395
0.006457151755031257
-0.023652427375940456
0.019539631164652925
0.004758153643716866
-0.024731115128240205
-0.03621392531430716
-0.013474677460793973
0.024158972249852296
0.01955828248960365
-0.028502003100419636
-0.014688532990300113
-0.0036442309902069243
0.0039132375929272515
-0.0076465858975672645
0.02230361575271534
0.0007011977445634106
-0.05948341193145116
0.03759174649016588
0.01467104751350243
-0.03441129231982456
-0.0877547057218515
-0.009316932958355706
0.013990196281555848
0.21163993793734878
0.04035549195906034
-0.050601894510195804
0.032283017665602085
-0.033233462894473605
-0.02680738732021432
-0.006646850168829343
0.035503698787487714
-0.0020103757783826322
-0.002366615337363982
0.0023051667978214764
0.016181917018452993
-0.009993110968529673
-0.009797187452223157
0.004013833131679017
0.03708476196198393
-0.02489574994058965
0.021988631999793933
0.03015862169225627
-0.02612489028775303
-0.015626231803885317
-0.041193081719933335
-0.01239863048566157
-0.014295416832900957
-0.021258001335973872
0.009565037130549212
0.01050055318629856
0.004469274054163623
-0.07469760393707196
-0.004395098837198759
-0.011001975551273925
0.0005019160129132018
0.011238991436461678
0.04785381208645713
0.0278176009380113
0.14408619185507796
0.06472282265172821
-0.03370815837937026
-0.015405861122270685
-0.003084028741733025
-0.011052172403142652
-0.019736648236965162
-0.012394582301091561
-0.03591400573965176
-0.03859711778161038
-0.012569024543548427
0.010816924487032527
-0.05809932449258759
-0.003199228261856939
0.03674312802349555
-0.006172086234479517
-0.03696879970792619
0.029457843561630507
0.020136536218629267
0.02286279304603991
-0.00010210486784157872
-0.04094934089396355
-0.011641179212526113
0.024135256975487417
0.012382901255179875
0.03783045246287464
0.023605531501183753
0.002888558132492902
-0.04049397504615945
-0.0006878864423390818
0.01137661101983589
-0.0006467699942090361
0.048767358563093915
-0.1321427685380306
-0.1347482575808744
0.07330643533830761
-0.02468690391436946
-0.0060448147930587375
0.009314700908058757
0.048586179485977286
0.045723648989036636
0.023112512760158417
-0.03506805090737316
0.014261035178653859
0.013693828879247623
0.016867088473490253
0.03968781724100082
0.005010009544621726
-0.07517878338525236
0.023792513135381218
0.018684796728201232
-0.018806825990872054
0.005989842045315021
-0.054075632699358445
-0.034327300332281166
-0.06345631983113573
0.012158895247387391
0.08360271287748938
0.028202726731905717
-0.001658198405817846
0.013928240080401647
0.009406834707322342
0.05075757272448791
0.016449247078272885
-0.025122143697103253
-0.003137898506873651
0.01580531742734719
-0.011050550344712268
-0.017597451753901566
-0.024754918426610744
-0.002771550521128755
0.012042592292154923
0.0030417218900061706
-0.03259705291323571
-0.02041703313387577
0.00753818111620609
-0.01484836343052133
-0.00992784550366366
-0.017139379190019295
-0.006755385895281011
-0.03670612323566295
-0.02710042150089465
0.0465273889281046
0.027581288899437773
0.06992072825154515
-0.006644663942552993
-0.013196077636030382
-0.03208348949237567
0.08803198376222476
0.0705023199163272
-0.07811721498220292
-0.0011597310994595868
-0.03965518410166896
0.02904497635078926
-0.01954850295351199
0.037243491635791104
0.053237516253750346
-0.01900558822199344
-0.021292443972217967
0.0013324318908400062
-0.03301160241004303
-0.007638450446489987
-0.026254696807575497
-0.030913182107302973
0.025606327948573038
0.012603488445275389
0.009818119075336732
0.009397215520541836
-0.03290547081845391
-0.04693058884346761
0.0009610658259966538
0.040160866710396696
-0.016535848575462444
0.0028308700530090547
-0.025765877558760676
0.008447069110400508
0.04035361740184002
0.05603431202080416
0.013188395280471407
0.010892631684686118
0.044194037984154444
0.09821736845789812
-0.0011104377389800164
-0.0066766390207378444
-0.08359906933194876
-0.14308881309051677
0.00201229746784601
