0
-0.008965570860744518
-0.008373755796325842
-0.09342914457311194
-0.014440320483170253
-0.01483177184829661
-0.0029959409931534673
0.007362598700038234
0.03369159997250851
0.004495343845046615
-0.028319796627759776
-0.011495287935337536
0.03064815215497778
-0.03907440098204332
-0.011618133590840195
-0.01241354358711743
0.010637587337810542
-0.04428979483235698
-0.13794187854463427
-0.01505210072349182
-0.0017342667429316283
0.03208884054866069
0.08920954513529382
0.04684977751375684
0.004246623576487637
0.07908273436217504
0.01075249538858344
-0.010592959395443123
0.06544208425941163
-0.00954792427011259
0.026497757856272366
0.05525602449741104
-0.015317750785101105
-0.008395302675974554
-0.02205954358403572
-0.014497083852530986
-0.051347925046943146
-0.01250117203230829
-0.01838596271148675
-0.04224579234469292
-0.015303992029678864
0.0030125867727201863
-0.011556138823930737
-0.04916046768078154
-0.028845481838104117
-0.005060965584311443
-0.010695511775836952
-0.03934912257502109
-0.038180608537602564
-0.05298277304413767
0.007135397257135681
-0.0017330759424904049
0.04640163517210178
0.02544134790586294
-0.004604149131633135
0.0039880983137554745
0.05296222427527895
-0.004114293898385411
0.01776789837279669
0.054889008019825075
0.012823662788386795
0.03158113904149099
0.013594850418229576
-0.02756161931206623
0.01020654246047865
0.013554498795274211
-0.015573836910203124
-0.0013521245218177495
0.0819700266670471
0.07019850105775079
0.018147281983110025
-0.04777080753510888
0.008859427419293655
0.0009494037348113624
0.006213822772731737
-0.01552779068714705
0.01233223490830877
-0.008161352262759422
0.011559645243685673
-0.016516020101527296
-0.009871790614356286
-0.08290090478213649
0.004674639530234545
0.0018878256954471043
-0.015601083719133992
0.003135465749775129
-0.03646456604360342
-0.03321861101814504
0.011025566243006378
-0.0498621550410948
0.018959137981611158
-0.028069287151525926
-0.01856943163403869
-0.040247717903873645
-0.027411074875909328
-0.015349284797438094
0.10432017499964265
-0.00231532161262171
0.0386750603738363
-0.017974965866160465
0.15274859625158535
0.061399632993224325
-0.028637130101366395
-0.022549238718800886
-0.057854598315087935
-0.0402131944959767
-0.017379403136069203
-0.014033463304859377
0.012701764549522605
0.006019128676106513
-0.02468635650548011
0.021727693561282062
0.012916525063820405
0.011491035856571602
-0.017236668687784912
0.002081342743215682
-0.02259617584702607
-0.04597242614395957
-0.013740462690854723
-0.00452122303767992
0.03668303713955839
-0.022720282181404802
0.013099801946160753
0.06769777021079626
0.00812435713968996
0.022165216071660093
-0.08368452504848595
-0.01810701091821158
-0.0001823109587689144
-0.024966034881377473
-0.02399894934533331
-0.028362321911980966
0.03817436527390026
0.02597755596349425
0.009853959646922433
-0.04074205575546309
-0.014379491402945073
0.12227728379594625
0.01947905067868008
-0.0713867209625307
0.022504747891380784
0.03801453513674986
0.01194130320917625
0.062296463654167356
0.05159528616055143
0.14505128799550657
0.028427489884731684
-0.04311793497557353
-0.004080853677425832
-0.01953519150164443
0.05990333587370845
-0.006943628774219846
-0.06815146781003743
0.012107428426501416
0.009543021881731461
-0.08084047776998379
-0.05591223536604906
0.00034099248338925395
0.003815448004408828
0.11717845059186219
-0.021193371370616262
0.01517107227192201
-0.09884857967099724
-0.14188562106089977
0.01776817736528304
-0.01028683143316417
0.05416654826208654
-0.0003324372172933532
-0.002942078834792872
-0.01693758269773526
0.004934353493004681
-0.032999074699108094
0.009416919479607166
-0.0580440545687908
-0.1671764228211722
0.001741199774261631
0.01817752716757051
0.050129016010428275
0.01724193308731038
0.007388410477890451
0.09698076822500579
0.002352446219750949
-0.011065260192614525
-0.0332961348013857
0.028509207914397403
-0.014564576386439754
0.01009836734215519
-0.0626742161199881
-0.09748668930378321
-0.04423947547057226
-0.08986939588516195
-0.041801966949638454
0.010183304548443487
-0.051906460140572354
0.14046947367510734
-0.003131724122218378
0.07584311918017152
0.1071192365539296
0.03741905478244337
0.03471756229168137
0.0018607379311254197
0.0001724681122895338
0.11899848347677026
0.09345797597642486
-0.06027401466612565
-0.005697597698476733
0.0806386243759133
0.07483451567274217
-0.026367151883275732
-0.061178473453726144
-0.029967506945353467
-0.010308563748874195
-0.02676129190001903
0.025133083668673763
-0.013437214279066294
-0.00841257316642878
-0.013142528884766502
0.02956868437248596
0.013054117092970222
-0.021055867338278626
-0.02982615308888347
0.02435382574619899
-0.09410972758035412
-0.027792571100147233
0.03006130462933518
-0.00651378555928453
-0.0019083484285402287
-0.010068180042288311
-0.0023596957010869972
-0.009936844712237915
-0.0035631665948258084
-0.01424086648091765
-0.018940687557190576
-0.00756619281926277
0.041452546740602655
0.018158486155930468
0.021151992510194863
0.021933017667282922
-0.00017158424652959824
-0.03413124172626443
-0.015481791814725265
0.002327513114693616
0.018702330142078623
-0.0028866122127009742
-0.01789838005840328
0.02844282611012586
-0.04938746323173809
-0.08489634221299802
-0.03166039234903667
-0.019116881487869018
-0.018901793176099187
0.017069115449643464
0.027747573149649166
-0.005275037710907146
0.014125358623374816
0.025865210576658568
6.362747312032896e-05
0.0147250339604258
0.0917912168689175
0.02506983843347316
0.016919175527611255
0.09384385888265127
0.010299903316241572
-0.02611195685032007
-0.03562302672602343
-0.022324178378057932
0.04161212220378641
-0.007082588062755325
-0.02747643981482199
-0.01216521287317863
0.014024552373552634
-0.030039881272313017
-0.04855050741552622
0.027445412041963945
0.02855792732647218
-0.019448918349636926
-0.02442534943818386
-0.008236888499990812
0.024012050696767297
0.006950468882166102
-0.005805258522477891
0.010099508949839336
-0.01806801026641246
-0.031117431127093895
-0.0520623311392596
-0.012434063093204538
0.006363367899497804
-0.007376496417139531
0.00443727999819356
0.0016925238565637759
0.026371301607083
0.035540532219384045
-0.004438766300484092
-0.015100103447753322
-0.11781193875575278
-0.04604213936390321
0.10405244043468895
0.0643678646946365
0.006806002431027911
0.00856282854222984
0.0459449484087165
0.05079885646040835
0.017968781644649552
-0.017514358548072786
-0.006616603813296504
-0.028694785482014568
0.002704548761888351
-0.013854411708585073
-0.0023709201932993708
0.015779699279556133
0.0006885837803399003
-0.036154166736632104
0.029558742995235275
0.036516780515303715
-0.02301224562895505
-0.0005653578444980621
-0.01928302070935946
-0.019981799482778704
-0.013663009741872996
-0.028512690110641878
-0.0439380230899346
-0.011272783354905724
-0.015470661928054267
0.0009161204638132661
-0.021754247496375383
0.003493284445490675
0.04116858482430662
-0.025571027820302145
0.008951443319663455
-0.017121197204798308
-0.00919946755042707
0.0070783356857102055
-0.014912843724692508
-0.016032193881067917
0.038267279363688095
-0.02604565878143246
-0.038889985312148885
0.042471293507565754
0.059979060068209064
0.0187150624428392
-0.012400449096787582
-0.0050892754279590275
-0.03950461547671744
-0.06517079296185402
0.20140635568745313
0.047165285075688186
-0.06841217393879599
-0.004473221025760423
-0.017993887390691587
0.037336000141981504
0.04284894231171185
-0.07179447729256491
0.037437231778315413
-0.02112341684369656
-0.11042995347434874
0.007510340027980263
-0.061921923849241556
-0.09245589849852962
0.05530850456067165
0.13688839355823357
0.010692078158402762
0.0088465851019536
0.033850516318052686
0.08420120938843946
-0.015954652228590976
-0.010088021572224154
0.03071446828181764
0.01334565287738875
0.04887906813382692
0.0037970612947769706
-0.025294269700829288
-0.010865805174532088
-0.0034171545280352027
-0.03646171933377755
0.0500683837859534
0.018296984859054587
-0.015246860099419713
-0.006002152886452421
0.00015628958997281213
-0.10772440577214183
-0.03774104328462507
0.0010082996486862686
0.010297070506558014
-0.009184131936210307
-0.014862832867701289
0.04456738113711523
-0.0031711524766407724
-0.004634933452828596
0.05923079390482421
-0.031357685878990564
-0.004659203021062297
-0.04085755348162321
-0.06433821417402395
0.045297318851965064
0.020714352581264268
0.03144703499240563
0.006280391485023228
0.030304412384151155
-0.003015640004612606
-0.08243377837567799
-0.028630517982885854
0.020026079380462122
-7.517626214898136e-05
0.02329536915264214
0.016965541174791172
0.06190537788882926
-0.0019779916380643944
-0.02384269869437465
0.0011285800810305591
-0.011332422220317304
0.01755664446297922
0.06227283760536738
0.007895271249631214
-0.02486617256167248
-0.08240884487193263
0.018653362177694116
-0.08608603222592043
-0.050432391514726
0.027009896359739296
-0.11785773291611702
-0.0547748187244408
0.034186383882998155
0.024582141987554103
0.04341923528444836
0.054430454381126765
0.026057877362331564
-0.005610629793884204
-0.02089064745847416
-0.03186413445332444
0.0019892354440073094
0.0015552740315358392
-0.007926576651321193
-0.03340560206413576
-0.021797564453125633
0.00258238472445057
-0.012750157279090837
-0.021740541549640433
-0.002764042214284405
0.12519058757670232
0.07564699564572665
-0.06793374762469183
0.003526072688711234
0.0034076987147191877
0.008929821322192562
0.04142960453728968
0.026676808975307397
-0.019948526967674834
-0.015000600714730182
0.005086209748945179
0.029464052848085558
0.018434305598726823
0.01719627340240317
0.01625317846177996
0.006545086130939503
-0.022661347645247784
0.039724141021077596
-0.004791575336388699
0.025968055177689263
0.017394309243305452
-9.940127280898232e-05
6.189822006951763e-05
-0.01092635696483077
-0.0035472983393289277
0.01795957251274602
0.010133266493382621
-0.009526092511414388
0.05732022174894153
-0.007512545770522399
-0.08673014206872284
-0.05485315586480759
-0.07573180043096996
-0.0061836441166591705
0.01604575988724047
-0.01495647552825168
-0.030737871040283433
0.033920785942189585
0.046311077784482776
-0.010839369385487428
0.03611619307996445
0.04852036803750787
-0.00959768701085518
-0.0029326720351622424
-0.039758447605930385
0.018461461587213786
-0.028870561189610906
-0.0014456250902547473
0.009658007894697817
-0.024690039029458866
-0.011621976695391069
0.00011352921038062491
-0.01539532386114565
0.0016832896799628808
-0.0018153680565690747
0.014703978273926065
-0.00862302064144039
0.006538520613957631
-0.006944180838756276
-0.001980659875927657
-0.013768693996804393
-0.05050541620832497
-0.018931134617345073
-0.005948626544978221
0.002226743538798278
0.09536641270508027
0.0005285180709224601
0.012514443600073165
-0.02763546939271672
-0.037667092713158865
-0.004258578111475575
0.058766300462795795
0.11277887815620871
-0.007725129801715777
-0.0018270695335864283
-0.014774576488953401
0.021987243057082124
-0.03501604878024301
-0.04781206409575595
-0.02034313188179642
0.010332470481312308
-0.04451919228093672
0.004988183780033593
-0.045772875754696817
0.03127306637586688
-0.03596487770594801
0.06567207175357592
0.05105997979430082
-0.026744459031589826
0.008208975041053909
0.0015665784667342815
0.028793863509364786
-0.009858583995515452
-0.024741907607156957
-0.019249242979914895
-0.008249586222492052
-0.020425420206801898
-0.0063086763463901544
0.0361577999412446
0.01431171982773317
0.023933392776196993
-0.021447419932280533
-0.011369120807249807
0.02498601920585372
-0.03533262561877076
0.005081530714986538
-0.0017815281644006323
-0.02329021133481689
0.0004397254104563191
0.0007516581168988927
0.011970944839563935
-0.008855752900438359
0.023163207095779948
0.029484686216562927
-0.0448868801813518
0.005081910995536929
0.03039023782332761
0.03528783966807574
-0.016930414161690742
-0.009237030441374623
-0.024404734418465156
0.021207194425062678
0.044567516836718044
-0.0016561481484258518
0.013693635538486904
0.012197923511353027
-0.0671094817232758
-0.030085971574817058
-0.0008111988920791846
-0.01865207954399129
0.014287471024843
-0.04024634671133967
0.0033543713085776956
0.06336471928009076
-0.021995235103763677
0.0567438705882148
0.049134782863640335
0.01642675692287335
0.01764591209119803
-0.026880469030683096
-0.01722643716185056
-0.000472948893893309
-0.018600326441999913
-0.10526262642783579
-0.05112033656077165
-0.013060879887029168
-0.02812282090822505
0.028449509769377872
0.030765068107634734
0.023161664248547487
-0.010814849816776932
0.02286605878842829
0.04958996152301928
-0.016543763142896337
0.017859725483141603
-0.01666906033663448
-0.006537883911805552
-0.023609167429617675
0.015097156821064873
0.033642499809993134
0.006618454678667659
8.95775223936209e-06
0.017589000125371363
-0.005692943235858148
0.022569363236213554
0.018965826258450648
-0.04998697334900485
-0.013808318975106575
-0.014494247999966015
0.034727207926400126
-0.025477881938291445
-0.03188567936340851
-0.004326279564904274
0.04039759080861835
0.030949413349446436
-0.0011912095954962096
-0.004778692953836831
0.04472234937527791
0.03315409127945175
-0.024202831960110284
-0.029960780956894435
-0.004758889683511824
0.013296463669711468
0.026197159841401724
0.001763935080354963
-0.18343817995791414
-0.04935522294616672
0.02440437560917893
-0.01950002610430513
0.006092276193510184
0.0006028346210078764
-0.016309830819363425
0.020526135522474037
0.02609810763603639
0.04976421145438713
-0.02739503371209432
-0.009463064323173379
-0.01728319129955156
-0.06665025570879625
0.06163295045764315
-0.006141545918634699
0.007812137925847449
0.04421354146266876
0.01800755886137502
0.043698612310297855
-0.009238988571332277
-0.007294316403430119
0.008132257797204012
0.007555066350726037
0.021128577242328674
-0.029642366718307476
0.0044290521558262705
0.07260514076882194
-0.014916043449957719
0.02237997674089884
0.0331886414480282
-0.037548067427569956
-0.014266645733890991
-0.014900453853735974
-0.02360389856519522
0.008495120900345033
-0.0038583955272291563
-0.002132394378918617
-0.06369226831162493
-0.04528282135358362
0.008277936933002206
0.009061360983230427
0.01907287699702328
0.031118089718887132
0.031514919265536775
0.019613742130897463
0.0005200383178090184
-0.006164009675516074
0.018460652171735467
0.0161138288120706
-0.011305020696783998
0.024786491288108267
0.008830304427267672
-0.025541947936691928
-0.0357777985578473
-0.04244714240991019
0.05843755761950632
-0.01731702921678529
-0.025872718957737347
0.002878995968440099
-0.0027211473703389645
0.0004888895556991408
-0.017955875965211573
-0.015902344357761666
-0.022537498868277935
0.022483361314646722
-0.04299143472238943
2.9648343581251853e-05
0.014710582244274384
-0.012909632066608102
-0.008648616526949872
-0.012924125386144627
0.12349812119603173
0.04573944607896111
-0.05239356708194317
0.15433865058612653
0.05055614409064072
-0.026496674092775546
-0.003959087538210343
-0.03353573606051251
-0.014592776469847728
0.008973392020382394
-0.13300601447772667
0.008300013509048366
0.032571205908886236
-0.0036555551653249
0.03783096252429094
0.046550110936697704
0.0022427513419027425
-0.04254527146692663
0.027500867443264975
-0.009974499271227625
-0.028002759489355655
0.02311020466542585
-0.013873483522888403
-0.04114797581960066
-0.11246011576930262
-0.0979140458444236
0.01248516813230287
-0.01608067655891407
0.009710613090355546
-0.020965957954405805
-0.025890718654104063
-0.010500798260012965
0.05481863660385214
0.08071484543767607
0.05701692515430296
0.020879714059490767
0.0026276550183921823
-0.03871773599259639
-0.007230678978953165
-0.024464813351003856
-0.005799857743043646
-0.03207863297509228
0.1243389647360983
0.06266534896547142
-0.046769617287578946
-0.03128777206669937
-0.008956468062611782
0.06916389135123574
-0.0399008748305
-0.007839638562610886
-0.022877945380016744
-0.11648680230936391
0.00695968171594674
0.022917173437085554
0.00499878270207221
0.028347016309742262
0.023369977537269264
-0.0839025019860149
-0.030457939896550185
0.020398545447559095
0.0815793150576096
-0.008518720421245473
0.035488653706076324
-0.04092955573206591
-0.0018710863318149539
0.01867255837947803
-0.01409262451265531
0.021376697584045114
-0.011060226161835633
-0.02781927645595566
0.005385006528557127
0.006584427761069944
0.019197977606911224
0.003312920964904778
0.023270964205328547
0.002577551380666257
-0.03628915525715132
0.013542867119046016
-0.03075567878818211
0.04761160115258284
0.011461295793052955
0.051443078675279114
0.10866061183789921
-0.040754107919320236
-0.009573498199584045
-0.00271350490434907
-0.05729492070666914
0.006023180814800513
0.01932025340597345
0.00908360202674074
0.023394376912748597
-0.00967630305126005
-0.03408026972773731
-0.035947275789097115
0.019299442403596396
0.016980528188306372
0.003678680263638705
-0.006039164059521472
0.014685418180760846
-0.011608617636680621
0.02939779574799951
-0.0010819331289190978
-0.018265026469957077
-0.00677351860518981
-0.06450998246342426
-0.047192268570226445
0.016404495633423975
0.003316377280050858
-0.001551090061072175
0.003409613545698956
-0.03559218558905055
-0.015371512087863888
-0.015873562086866723
0.0019129236797755904
-0.019361296428887866
0.017676441249439807
0.13338714706642693
-0.0018841905881195093
-0.05321504076564471
-0.029859498237502426
-0.023482293725668124
0.002690959056336344
-0.0005741245739552998
0.00752877334693188
0.017643536040486484
0.0025939036664076385
0.03100066848270706
0.02525052419883323
0.03427217569530379
0.013017694407707406
-0.03687769999670703
0.01804918488714579
0.020053283908222513
-0.1058556832398763
-0.03994747311394201
0.0010359815435413084
0.02086421797347907
0.06565611288931322
-0.0032753501264843475
-0.02857370422339381
0.020398843894514396
0.005330526092729876
0.012651449411743747
-0.0053120640214620995
0.02385752494391456
0.03522590900733176
0.014164115052699112
0.015865010117210636
0.029307803051032956
-0.003947329260351596
-0.025265015846852302
-0.005589085094293611
-0.01657766817729427
-0.008601492721137458
0.004450479769762448
-0.02116913459285743
-0.01867511688422593
-0.028681398819038813
-0.026440348050020362
0.00511945941501225
0.018016238702204118
0.03609887016125879
0.014407909495600016
-0.032872975713755755
0.007814579766489046
-0.051087479725295676
-0.008346147789420923
-0.005565223872326329
0.026002507348158403
0.03433514067827
0.028519275137934445
0.017228867532693714
-0.1013054210458192
-0.0632392301376231
0.012456486809099693
0.01038066910700851
0.04199022224684552
-0.003951908646103466
-0.025268407008778502
-0.036017935853245336
0.04891792467238228
0.020721339705266534
0.06488551400998245
-0.08787433243566159
-0.0534523050406473
0.06694086270879925
0.024428395417590867
0.036458206183868885
-0.012577576646440734
0.009055066541253279
0.0007363669551413162
0.007008625535637911
-0.04396319195738268
-0.023546464421522594
-0.013229365659549621
-0.006724118160199102
0.014497062717404035
0.025172611288344353
-0.005237246505416283
0.0063400848887664035
-0.02314710017873851
-0.01884219378283699
-0.014534898064574728
0.010673417253556378
0.034812262365815576
0.016556286781312532
0.027304097941084897
-0.04704029134004756
-0.14621067923068673
0.04652795956064289
0.004826730909236649
0.021722863879228383
0.01777648682788416
0.004026677408011303
-0.048137347732416035
-0.019426382694472017
0.04359466329070442
0.04707761940443117
0.05006242015431538
0.06298843585610604
-0.02219830699028149
0.005008443160247381
-0.03463353215442203
0.08995338122468631
0.09120491296352029
-0.10573710436419187
-0.05503158037897521
-0.019430977342612267
0.022502553343975846
0.027711089968518884
-0.0010176796843611004
0.047820282315178805
0.007848474010807705
-0.005233849557613712
0.005043369811607592
-0.0016777488926916849
-0.011081295207084497
-0.0017981790488878079
-0.007444645571860823
-0.03602128931696894
-0.0032141633000564445
-0.018814599625964445
-0.018707029934297525
0.02713807347329798
0.017666706512312412
0.0021821452284671986
-0.015946028355123855
-0.012089550152491642
-0.012207391035984597
0.007039091866504189
0.07118319483490489
-0.007786703217085789
-0.14084250695602946
-0.025473211193674815
-0.020823785251827147
0.05683064488239252
0.027304938374170116
-0.04205902449638852
-0.009646360824230094
-0.01901968967181086
-0.04170757475723993
-0.007810833698460684
-0.04030250240390495
0.04391892625452352
0.05914304635411401
-0.02003499563910396
0.0724841605545434
0.012333057643574351
-0.044500689063506314
0.005581469133167832
-0.0234889962011322
-0.015920234123126292
0.02375335017017046
0.015381912941150546
-0.015044103786688752
-0.0007600236229614282
0.0249357904909105
0.02411408894578954
0.012037380734856315
0.012836453500615732
0.035654708850754536
0.02394074340376458
0.0023964428093924384
0.017480912378341
-0.02992996014943042
-0.02168403035704856
-0.01866268333681183
-0.009063811196007574
-0.03343073787708887
0.06638595920466761
0.09121989477585793
-0.037250845008441426
0.0021625854574700357
-0.006153867895641764
0.00041453613993605777
-0.016963807697024942
-0.029004148088108053
-0.019603388482627625
0.0024961524974822565
0.029971206115382277
0.07300948049793558
0.017773760640933875
-0.011028529511865474
-0.016790997133924287
-0.0007568144222906685
-0.010930051038113871
-0.02132543338746786
-0.010400783549978915
-0.017653752225230183
-0.04310145418563156
-0.04593681731421665
0.00940553954650594
0.029001519819026763
-0.006366240740148249
0.011351777952631805
-0.017049692042484514
0.030833985359051724
0.008572299945798011
0.008094236548455251
-0.011421343444136093
-0.014353869156890822
-0.024027262168419612
-0.03695681517490623
0.081895540377718
0.034519963764342736
-0.016765502435385347
-0.02681420310367097
-0.023309438679320192
0.013607370387327917
-0.01427324337571831
0.0046404492443523826
0.0010367992266702426
-0.05786688254864706
-0.03096681188417151
-0.088957115514427
-0.011080524886992042
-0.002419293836787106
-0.036774384798098275
-0.012722670725099096
0.05145513908672218
0.01215571274338132
0.006266095325638769
-0.046134576432809
0.07211184551011961
0.08695824631761935
-0.01996745290367467
0.031936123316966616
-0.03513798114272903
-0.012732926229542332
0.0026511135792770227
0.01141845145529536
-0.0038901409707585597
0.060294437680850535
0.03614182463172
0.016009159149561147
0.022894802747336438
0.08364130835123045
0.03186923039802398
0.014994418133626373
-0.04496919018143332
-0.0706956163603013
-0.011041399306355691
0.008915749957581641
0.020459026773047194
-0.015097632849336948
-0.009093462563886635
-0.019355432086489117
-0.04119302869268581
-0.01333915577870451
0.0026022043249081398
0.028086960777311352
0.0027539860525550436
-0.0121568412600432
-0.012391546061180463
-0.02515082649192694
0.000599124724869375
-0.007677942327117751
0.04016475960998817
0.001147701460825459
-0.0487159908644061
0.007801910222231673
0.04401267176503351
0.0021520107696642106
-0.014258379875629015
0.06013385234603571
0.006002923728479255
-0.056138816267738555
-0.050318284075919095
-0.021820897987248827
-0.06368535415291492
-0.0038731685224481917
-0.013581287176126975
-0.0051561138252280165
-0.012410180761507003
0.01877898624476406
0.13985864682965424
-0.0020747894576689232
-0.03408096587539228
0.021793804296003833
-0.0012436472526118861
0.01305811757008327
0.03233026114899623
0.0309850677099355
-0.06949015909228168
-0.02934024879213052
0.002725348002541573
-0.011149285924048602
0.07239683695037256
0.018871358979272942
-0.047213043539777504
-0.002927475976975547
0.008128578719755388
-0.009145398478602521
-0.008319739023906023
0.058018789397193474
-0.048163632113952234
-0.0977820702613641
0.05465690530411773
-0.006951057227916756
-0.0015387356886903364
-0.03499628630970056
-0.009373006204345781
0.01899856219684813
-9.126844304759002e-05
-0.0059008618278993475
-0.019620447837921228
0.05142095046430684
0.038274107351531646
0.03501300329494778
-0.011599063747946586
0.01369831899267459
0.06299080280682466
-0.007480665134582566
0.01750664101678304
-0.022718917976403154
0.008673793603507932
-0.018037011342517072
0.050003423644002135
0.05882921011730154
-0.05660564916090267
-0.02609608034642755
-0.012640579911033942
-0.03655219070022099
-0.02322156918144678
0.009542236083001799
-0.052076832407603205
-0.029257916273667577
0.02604404757294323
-0.01646264302271705
-0.0051624458599130365
-0.04391688383894002
0.006890040964585507
5.25978032117056e-05
-0.001315106585737747
-0.031140191788894305
0.015021981144595397
-0.02734475713940892
0.13644396774602216
0.08261487782471202
-0.033781089855054236
0.022799553402432053
0.01409363839288315
-0.024224496888249663
-0.0045113974298209725
-0.031979964949656936
-0.012874176340135504
0.08152293893172147
-0.026665132916800626
-0.00040003769173352317
-0.03521312193264586
0.002063509823137933
0.01180033865510253
-0.02191827853046135
-0.036101435645054594
0.003855665150421546
-0.015533904723370491
0.03598275278565118
0.0009412397342546079
-0.08919852199623747
-0.038655191126408986
0.04007655319245413
0.01426298652125885
0.04877466879846946
0.035084362847926626
-0.06404563348183315
0.015293603776878408
0.05214174382303726
0.021427188393496326
0.027023217578355834
-0.02009981495438362
-0.01747783764174165
-0.030513955509260487
0.021438458294297136
0.037819801222984825
0.027800111215729464
-0.03483332631904915
-0.007780809392790696
0.024318411850486818
-0.002043427260456295
-0.06250375143619187
-0.015647932689184265
-0.03497597267355928
0.004009287985614557
0.013878381952573907
-0.1575874019395459
-0.018935157032472325
0.01888485160553131
-0.028405405109833682
0.01764226259668487
0.05998105189381808
0.017250236807008427
-0.002145657462056071
0.025699413168808787
0.01643845832090601
0.03515852522874464
-0.0076304034308800886
-0.03568884142835763
-0.01591051340088764
0.0016665223664498157
0.0010356448749196685
-0.0032232429647092286
0.020496179329759952
-0.013931200304672537
0.039843384871686836
0.10939724120548186
0.03430448902052312
-0.007661705007788519
-0.015331584991420108
-0.02838226548768024
-0.03709161996802404
-0.033389710713930806
0.0178206073477677
0.0069844006468262965
0.014986706266807596
-0.010621388053346706
-0.038328605173197854
-0.03503797357523741
0.07448806395315008
0.07352846552317362
-0.007099949938192719
0.006287754212880018
0.02138857351144509
-0.05113303376779641
-0.031052271543833145
0.022963419365455442
-0.0336952750566087
-0.011499188264636733
-0.03630538610553625
0.023277096033518258
0.07846678643887348
-0.03770694299664461
-0.008572130883732735
-0.00784697677193638
0.017573557194275613
-0.012269359188933123
-0.011894252294961088
-0.00915720889767246
-0.019413416684717803
0.030558400074827023
-0.009378260489300294
0.044327194031923894
0.052309412906067825
0.0036792317562855783
-0.0032466387953298355
-0.03831653316135574
-0.0014375437661987875
0.015290931558883555
0.05319724459691437
0.029430955659478442
-0.016719851307307167
-0.018328072166430086
0.027820580461080116
-0.0263919320834938
0.060929354752536406
0.0001923125322086058
-0.014060434449837286
-0.05338199594598717
-0.19320940649285503
-0.05935784887820609
-0.03760337560114924
0.038752657291864945
0.015080526015588297
-0.0019510627548025353
0.02351852402217416
0.024516256256590128
0.040959475618703306
0.025163474576549414
0.022953296239484687
0.03728989726907774
-0.0037832336048527907
-0.01972894272274786
-0.024173973069252726
-0.004766971402152344
0.00804425452828622
0.013614134388929161
-0.023736649960237343
-0.012784424177084353
0.023519223467529805
0.026439604738845667
-0.1692289126771693
-0.03758725132992049
0.05775091653489764
0.03483053842585244
-0.01263701215477466
-0.03243036972782537
-0.02624012340554954
-0.018186475040202685
0.032166366987529026
0.010932962435626192
0.05621916662590383
0.008059967621114925
-0.006790756506324775
0.014841447974964402
0.009767692351609283
-0.01183900800700939
0.033275233661239
0.09806851837920971
0.00640384920760178
0.012459459429305177
0.008018963561225141
0.022078361478666368
-0.003346406542018789
-0.03884499094375671
0.007779637338824561
0.009870758402651772
-0.006039880626562464
-0.02980906636527105
0.017950621493431698
-0.042348071786804484
-0.033891154906179534
-0.011690358591128743
-0.12307427175632188
0.003350992670543606
0.03709734516770845
0.09249879157765317
0.0008015846467668448
-0.03552374762246305
-0.013883555184824163
0.027916623675363194
0.07989343401639984
0.026070173470686384
0.044541375403251995
0.012921139228074183
0.0034408074044665776
0.021900283667950556
-0.030137054876909604
0.0018327546552479037
0.01492872032573339
-0.02580005706189539
-0.015227672206569207
-0.005313350393249737
-0.10327154012477635
-0.042219428207176043
0.033714917801077125
-0.01571872583550228
0.0032141371003773507
0.009417961654513963
-0.0024295330567981636
0.0021654363125990983
0.005990775798610345
-0.011698658598322021
-0.0029977649563961623
-0.029399497712095855
0.0027648330931896595
0.01202252722342207
-0.021119013953954508
-0.07808205622633374
-0.050932312304582124
0.007322544565844527
-0.026761552209855377
0.07636468769479847
0.012678667062547897
-0.006237311625009755
-0.035409215417462815
-0.003545321486635245
-0.027536101625436658
-0.03905920095795586
-0.033623962213020386
0.034724312756356825
0.013953826850478883
-0.038626121134976564
-0.00947441817644776
-0.016430354814565028
-0.007074194093712411
0.008070807285768353
0.08772106699546887
0.038681529298225804
0.10915323227363549
0.0008783763523806475
0.046555437770374755
0.17819184220226358
0.028075856555015977
0.01931291758798407
0.021001593616165614
-0.0073478136399583475
-0.00249291298823613
-0.0035295200636474384
-0.024024112204558037
-0.04750239528085949
-0.028056366604988288
0.023236193314193066
0.016769807604561978
-0.11020007595819546
0.07552145164579992
0.14448284709567896
-0.010530543061356572
-0.04492997266821322
-0.15360191482645705
-0.01875876920807796
-0.023024094948479373
-0.004649405075708351
-0.028689238023921405
0.061583754056286834
-0.01714052495874699
-0.03863083833995689
-0.024968221691506465
0.026058646726292403
-0.09995567252142776
-0.016713384799693812
0.0073530635787101735
-0.007995027071463302
-0.0059196139073705864
-0.021550034927133893
0.0010482886443817744
0.03883476303679667
0.04094803332316771
-0.0038811406907972817
-0.014027666087284198
0.026947436480978748
-0.02110349726746151
0.005875362052838264
0.015573346302660242
0.07664098780806665
0.011249796412816464
0.015841940665145663
0.05371900031591737
0.029127015251344163
-0.017186023614383237
-0.009559353908674193
-0.024291293208769684
0.005889280204254283
-0.04786792399883885
-0.03725834502693557
0.057124732321505396
-0.06995335559258674
-0.06595210037929335
-0.04845507835361941
-0.01636215000607284
0.09125753491784794
0.0037646544000803483
-0.002972727108813948
0.034980962669035186
0.006451850134631085
-0.016897528491600096
0.018557452571472732
0.01025696438152626
-0.0038735572318630757
-0.060784152780958105
-0.004474085321589262
-0.0019044297391095685
-0.019179344751172164
0.06753337645138681
0.019901679567079437
-0.033225084155808896
0.011632508652664665
0.0171054580640064
0.01295967541510551
-0.012662937499050666
-0.09819210376269816
-0.036331463326280934
-0.005622333948470925
-0.022900365203508525
-0.002669890434414718
0.001496463244404155
0.0333853040152336
-0.015043660440588868
0.03187707829722798
-0.04642513131289034
0.01762130633771602
0.20218814311248687
0.13336743347985372
0.013035522900389533
0.044355114123160906
-0.008074940547726533
0.026617251472868093
-0.013062172302504256
-0.0010454867515112389
-0.10805527205641742
-0.03456762268105842
0.020159477881116772
-0.0401712889856555
-0.010347600721604087
0.0461982141699942
0.040126737021769665
0.04471655564590022
-0.007567587002398853
-0.06700844908237696
0.019294005443571686
-0.011563653697298533
-0.02574982165887539
0.0715943473230529
-0.08703735385429281
-0.08081055235497774
-0.07685060351789585
-0.06116841809986673
0.11792389062794702
