0
0.033890928936334566
0.024108782917084275
-0.04161935290430527
-0.06617195282254938
0.10446743208124537
0.04661332286228046
-0.00035976912205122407
0.03291597387267441
0.010787341887572707
0.023221339037664986
0.00598822456062091
-0.04493399929397043
-0.009242038214950593
-0.030728203578558478
-0.018797789041572838
0.009699184800586973
0.004733928862173642
0.006069831878989048
-0.048736208397305886
-0.025691804110327066
-0.0026394092697922624
-0.01081475095311464
0.08084271018068528
0.04781970933428621
-0.003025297460452636
0.061812784136311624
-0.039722619192700016
0.0007336613968626987
-0.039274023426281335
-0.009119289934991347
0.025209254658293247
0.03349746691797973
-0.0034644404770807612
0.02888510033373528
-0.024789877154058358
0.0011101621424151795
0.05627132354555584
-0.006629504450274175
-0.0437052688285389
0.0006477059179909565
-0.0207411024272005
-0.04647346065020433
-0.007432807109964026
-0.012836601660587674
-0.0016185467261124048
0.031117852781781776
-0.02449403548515402
0.039006307116201386
-0.03616103345512257
0.009849057181574373
0.016400238897027918
-0.025082317641606285
-0.0013791291777935273
0.048723711138929454
0.035021166523554165
0.03300283713463919
-0.018898176205959266
-0.037582006539324704
-0.007459487499200068
0.00824741345229375
-0.05717822187672346
0.01843495485538666
0.03530774688590183
-0.009135258112779522
-0.004429384764375154
0.0009481447945901682
0.018233519526620258
-0.013497733885238438
0.010216949026435723
0.026703484727340472
-0.013870842286027543
-0.015601433258005492
-0.041888106149074435
0.051014158868358146
-0.028985592581728153
-0.07151234913683124
0.05642631599518443
0.017436328913783612
-0.055944887254022926
0.012258725475207096
0.005702879683685216
0.01768194736091166
0.03114199498438804
-0.02040455553606472
0.021512687432508212
0.04001803126315053
-0.006867788010174838
0.005990799539308471
-0.06295172708611978
-0.07953196384722011
-0.0038514040572363933
-0.01599222890463747
0.004456070482412292
0.001473656619779622
0.05485921050308561
0.02859248428151526
0.027985563532680044
0.012927167568674876
0.005627918102123982
0.0036914291896847852
0.009748657899727436
0.022863737011494887
0.021438988549565063
-0.021267931700684715
0.03415664512348676
-0.06127498141901066
-0.10052002438701625
0.06013103899460325
0.018492094145287314
-0.0039378664978487335
0.01668005663445211
-0.04314472200732029
-0.04824039089760018
0.0721152547041344
-0.0197110281013285
-0.05163650278661513
-0.01826107061295513
-0.08651283505000688
-0.05421452266578164
-0.10459036349507965
0.04715168889290449
0.04943787837914362
0.01479776419867336
-0.012790707544029709
0.05258903575482992
0.1433547540571103
0.025150216654361013
0.0008589970321491917
0.007464285105805624
-0.0032458847961306433
0.04057938576276591
-0.03145568678574795
-0.017371090922123845
0.042480035419053284
0.023924067700700425
0.012341864309067635
0.018375107279591147
-0.010696434557668347
0.011323434415821568
0.02857840910725482
0.015874845410942116
0.03257143805562199
0.030216077096753113
-0.024863166531886968
-0.08653330282331026
-0.02642162899402088
-0.015445373173536349
-0.008151454351489132
0.017809716291596063
-0.036095368759638986
0.0062345857091240815
-0.019109421060415906
-0.27786092836479076
-0.065474053931385
0.02895133302835549
-0.008174847911005497
0.03370532893986511
0.007188235674802789
0.039434514779968906
0.013694851536903098
0.017006656623413285
0.017846121774226724
0.037809886737733674
0.0896258280129775
0.03662250545232194
0.012804133838754363
-0.01170848107908321
-0.013910400521782317
-0.020438525008976954
0.011970050267301005
0.06127133259963742
0.12878807601417977
-0.03292737128650018
-0.006174872283817793
0.06274904134445784
0.0018793891745688715
-0.03777526022304087
-0.016303537815976966
0.06579854254708367
-0.017220145596487175
0.031007189837513292
-0.031295003729944336
-0.02420112723371631
-0.047415245116670994
0.006946213469632715
-0.0225246568317037
0.004933005577697848
-0.01406470870750538
-0.018966581839090883
-0.02115905152589586
-0.11812339104195632
-0.010719263694058316
-0.003795589511553748
-0.010209520484789378
-0.008596168318613387
-0.06585435204650993
-0.016596919604532794
0.09203683753250368
0.03938716189297453
0.07140596417789215
0.10005312129376284
-0.008355334208522098
-0.014095973819425216
-0.030376552257131754
-0.027055334636936646
-0.03151380474201026
-0.004780624061353948
-0.033245264073057376
-0.009509390018987311
0.016609233424662733
0.018912901943508167
0.032140471480082006
0.020074968600915514
-0.00685120421597931
-0.01393416962543766
-0.035698174574623896
0.003543013148258243
-0.03894851994628989
0.0024222518399957095
0.010354315981125496
-0.007235168432069044
-0.02802471295230157
-0.023096538993244563
-0.03007794515327108
-0.0027485887981801723
-0.007803500709154769
0.008220904087217986
0.009531991004549671
0.03740858814294025
0.008488554745517927
-0.016631376263797463
-0.05490100624410098
-0.009142532142718504
-0.01585894164027747
-0.01306444100035898
0.0003305541094756609
0.015104274601722404
-0.00961300169297139
0.15754102140089143
-0.014616394566149424
-0.022621436201471223
0.038787052792284754
0.04385532079397293
0.002717720325305457
-0.021845597178630684
0.021399788394799998
0.04606929675444608
-0.008609453565891526
0.013249296946351114
0.0660008868478203
-0.001839318177046556
-0.0370975170355824
-0.01475668647290133
-0.051115996848818256
0.01775572282443625
0.03928224985879333
0.020405975524185112
-0.01978305606776081
0.006440223774410563
-0.05643552474306938
0.01094758993165395
0.023990124091385047
0.05490839875403563
0.04758953234130041
-0.004921065293706461
-0.013718261082827296
0.01874109207319438
-0.010591039333949719
-0.014911145926966924
-0.050202065722471205
-0.01756425134663788
-0.006410208218368764
-0.0159544869880003
-0.024454451397023767
0.030878390998724508
-0.0653315762326746
-0.012259954493394586
-0.031250620882736446
-0.07343900703265363
-0.008028016855775146
-0.009840875194099777
-0.013133338914350288
0.010767117392604943
-0.018326418852374928
0.0006738503367261407
-0.005373905493577152
-0.0013558425910624621
-0.017360762116964565
0.004193585952047438
0.0018945450925038066
0.013687098532799093
-0.037304270244727634
0.04473637235972374
0.1368262701364566
0.01726359405691267
-0.031445099891328626
-0.033606958365347744
0.004552265348645166
-0.054232309579520466
0.030257299089922078
0.0906066277234593
0.030934258487527944
-0.005858239661902365
-0.00436773772652464
-0.03767685191971015
-0.009680192672765422
0.003353305384913796
0.00012174146470687312
0.050375457770147514
0.07280663979824539
-0.018162881697286838
-0.0006145210350432873
-0.023229514172772508
-0.04498525304876172
0.019673376613062874
0.027018175617671975
-0.020222839551170366
-0.021725700278901406
0.06541405535229285
0.03515499782291571
-0.03435809368424464
0.018545228281715107
-0.0011172093115632148
-0.005956653268951121
0.031580786226977825
0.00797076550001635
-0.023738972353893932
-0.05502095732069519
-0.06390490945331816
-0.00394876585064791
-0.015304837646100218
0.02671281423629388
0.013405187240519985
-0.0315412021885709
-0.022193894319207593
-0.003218032542201504
0.004698870848040827
-0.015136167138285606
0.015088967520291851
-0.04499663090026216
-0.004912938734892957
-0.012285375567196341
0.00047783392977602195
0.023437070702120776
0.020514150024753354
-0.03039368010891693
-0.0802718939243673
-0.03780074699069332
0.01183383000194925
0.014462919723991855
0.01884848470738605
0.07208175380254456
0.01025358216486564
-0.019870492189758015
-0.030064723195698383
0.03835759015163333
0.008327942936417311
-0.01620431885825214
0.08263489948073166
0.07519016170937326
-0.029087455793827186
-0.011646524850071917
-0.013681273563529278
-0.005532009761188109
0.04134562706253308
0.006330028296490178
-0.020867386334089723
-0.0746011633011304
-0.006811105737099389
0.040599749602282666
0.010862760898746326
0.014549204516371785
0.012555649024815123
-0.010968338531607209
0.042899142585611755
0.014122494910121746
0.03285928871918036
-0.011116173486096797
-0.04142647014874371
0.024202307061291176
0.06670370867897771
-0.10236560930483676
-0.06778068087145059
0.030578747999930305
-0.05182702389335245
-0.001926104187956202
0.005327941355951312
0.019974991139170485
-0.020448342582354076
0.0092023584519796
-0.003001607385943946
0.009181775936838762
-0.04946672773640228
-0.06543496857942435
0.00745091365407589
0.0005828488674319777
-0.028406155157540847
0.04723101761234693
0.1346622537567533
-0.006377400173956886
-0.01040868185890602
-0.0021951260882215303
0.005718275434556712
0.03981567701980766
-0.0016111070259431537
-0.02301628299291273
-0.004957269197544426
0.028539075222000665
-0.16575820087328622
0.008677432297659106
0.08865287447197755
0.00541096568040314
-0.023002488476835274
-0.014553476607785974
0.011414332249180868
-0.0035817915302294593
0.01888501689110729
0.04603885594351791
-0.020008496887340618
0.018693262506367
0.004210223343984308
-0.007698418834618163
-0.03257221619451278
0.07883886715085828
0.09242951911875541
-0.025790068620857743
0.013498610416121265
-0.010169720297829235
-0.031479274159734956
-0.014925800321495705
-0.04215103904072619
-0.011500494413125067
-0.04269193905376648
-0.07190644059326425
0.025385591066908943
0.021844588146973234
-0.010443246044799643
0.0007199199685071243
0.0015976788187994696
-0.026112100960813095
-0.03247852670533617
-0.05024245289178185
-0.01629993011092686
-0.03839516661003538
-0.05309094053360654
0.009625115394433895
-0.019796711793199216
0.01524743734740743
-0.012171391481351242
0.09679554794311511
0.08306065839141566
0.060497976025942396
0.029382455047700665
-0.00566178379046822
-0.012648888000592386
-0.0240050931886464
-0.026170382250452602
0.0043169302447646505
-0.02260554482790026
-0.016038196422839737
0.13927914101497268
0.09732415631334924
-0.01817956526635272
-0.03206303151208929
-0.02108995816089881
-0.027353651562267108
-0.008805213377635117
0.04365932714128463
-0.015782388274376922
0.04007224060894944
0.03166907328038509
0.022619202920646942
-0.029821430156845463
0.021410572573040465
-0.004835174196884044
-0.0389413368182552
-0.03521474848627933
-0.06128558679058888
-0.012589613544158728
0.059250471893807735
0.004595124321920863
0.018464184461402414
0.050131918090451685
-0.10463170566628885
-0.0952634047186874
0.005530112744325451
0.01351253293537615
-0.004471427174669716
0.005766106146446911
-0.029155751650042968
-0.004758825368853871
-0.00425964639573961
0.009004237270089614
0.057367261394075386
-0.0002831761532818108
-0.016133407834002068
0.017341483024221973
-0.010990686873547413
-0.002117445279403691
0.007395300521315517
-0.032503327916310144
0.012031101517366596
0.018777258298385904
-0.02697965466258547
0.029115735543238087
0.03477055495773793
0.002817110045858644
0.010093973232864551
-0.0031374774458431034
-0.012005727694963877
0.017573203751170732
-0.03850297103664884
0.02718381010273577
0.0052304412980222195
-0.009612038019471377
-0.02261067061392883
0.03749136153052017
0.0016076169429919806
-0.04021725308470619
-0.01427817988517024
0.030068215544174007
-0.0015696952359352762
-0.047080446755990615
-0.09265129002693305
0.004749485223363129
-0.0019299343555499763
0.09686943581274175
0.061756585899894106
-0.03631380231035216
0.03205323958970932
0.0161828028800114
-0.02085649134796712
-0.013692014648336848
0.024962361329780376
-0.0003836893777799807
-0.01924224660623449
-0.012483198213346793
0.016681063376248854
0.013936734826334575
-0.009624068877077854
0.0031299897371118977
-0.0279512056977483
0.005044542944098458
-0.01118375720827274
0.041340947377924465
-0.016199798540352774
-0.010138275571433453
-0.013186886361384898
0.07884272990167263
0.04189723451787519
-0.040450223812198406
-0.013713180865728978
-0.048226635642699266
-0.0011302944136052091
-0.002355908951458609
0.03372977268646946
-0.0039499151562900695
0.046896566301739995
0.0025912683900958036
0.006376273427072641
-0.012817805731870613
-0.033399748938263925
-0.008077253621640405
0.02346900437741076
0.02158928512464716
-0.020431989199231837
-0.012706935140852686
-0.0005679585637858976
-0.10267528225854977
0.018836987189261422
-0.00527885947099138
-0.05863087914021217
-0.006097253826296907
0.007887956888484557
0.00016505342410171045
-3.810686612364934e-05
-0.009307045949294606
-0.019952412795585104
-0.034664617109917854
-0.012300232247280657
-0.015658881743356914
0.03371151750852723
0.07119180560652828
-0.0009944045609044118
0.024373671147484618
0.019823677467994433
-0.005689060573016858
-0.018472255164250936
0.007188577190606708
0.0322692995228045
0.0026821782748439353
0.049685614912353036
0.036554579240954274
0.020706979130057656
0.03802371460680517
0.03206229284422191
-0.0038313270668241424
-0.013146321117608321
-0.12086950945215341
-0.09529343109146805
0.08122772768890876
0.054020227751174335
0.03190001535631801
0.01611506792090594
0.02807096714646232
-0.056315363802090124
-0.016412359781337687
0.018014807265510704
-0.010649514658819774
-0.05798310292046033
0.016920752579111915
0.045939100714919225
-0.001721297645222242
0.0067575008313915455
0.023322658828840024
-0.005537325078375106
0.005846247750352999
-0.025798659673868133
0.05355062721266022
0.026944178457905445
-0.0495801252989748
0.006240331112388526
0.02911991456209133
-0.04204444486088472
-0.020131206571553036
0.02906728751474564
0.016087393950939548
-0.0020941632915585074
-0.029651445601594273
0.029395968255641124
0.01127931475021789
-0.11525691164977953
-0.028843322177967288
-0.09934253620999482
-0.06669395574751848
0.022399646960224368
0.013240553152890189
0.00841169122724439
0.05860246503376266
-0.0011858058374835923
0.02078939360788061
0.01666372472396962
0.011843247251455007
0.0018598446754840908
-0.05268957991890323
-0.0008740974293526447
-0.027488274161656518
-0.011787876712232132
0.03022774773375254
0.02764442293887996
0.04305697614856968
-0.043739889140105265
-0.027884269560032524
-0.011617082135814133
-0.06087924144490678
-0.016670450054083037
0.06594834240619064
0.03920860873444608
0.004264835565384343
0.07623425366006566
-0.03634739129789891
0.035668082656072866
-0.005800446906060227
0.02352331479678643
-0.010095764446445122
0.0006304861311637994
0.0016763860620523279
0.017836244964339755
-0.013332502554341008
-0.001269625865931578
0.036956302647447106
0.01346603823981959
-0.06703337384068571
-0.048498108516353285
0.00566584425734294
-0.005983343384875379
-0.004244703943028328
-0.0033826005374890636
0.004906686886709765
0.014657242654656765
-0.007323691169697121
-0.008134964566015658
0.03627418715856885
0.02965324192840248
-0.03853917321570088
-0.0030184191555816552
-0.01848638180907838
-0.017524625583894025
-0.0278602099183283
-0.013150927556775608
0.03547933525824698
-0.013056477030944697
-0.009249218481579488
0.15167956121020276
0.07380279174781118
-0.012147131393416704
-0.004150070268807603
-0.003045121001300362
0.0003832437706982575
-0.042580907315640265
0.005449210415215427
-0.019529632464490618
0.0027854303766258292
-0.012494065250108051
-0.06975000124666458
-0.04374692665966123
-0.007174458112767939
0.021676683928279046
-0.029927081982089265
-0.02200707780549192
0.05057280730366347
0.018226350941468416
0.015168063577998566
0.015886959328795643
0.004763760238880872
-0.025153745622642713
-0.04541460061101711
-0.03246767588598922
0.03040732163689209
0.04085725758119905
0.0033579953106020557
0.04606462653741308
0.013647240798167076
-0.010566972259312857
-0.08467652509247298
-0.007102769267534022
-0.019003780148387654
0.03963961936898248
0.03610956568597931
-0.027773293680816193
-0.004688980486231631
-0.030466894060222054
0.0029202978079518856
0.12273004032559855
0.010361231991802987
-0.004220502784440648
0.009760316818295037
-0.007557565843040205
0.020709222290241382
-0.014751015835101139
0.010922202532469963
-0.019032131123698327
0.023470902147866398
0.1225623976859243
-0.0386122718507934
-0.03973339833235999
0.002975296694592166
-0.0007798233241143579
-0.04900580279172299
-0.03422347728716883
0.03724219109123594
0.0037025853917119155
-0.028966697804828877
0.018599515088336658
0.02812315871675028
-0.09289831863550917
0.016808592179102574
-0.039855317094414415
-0.06446371025715825
0.07635751920440358
-0.0567969266409292
-0.04778083125768779
0.047256965097844876
0.0014857540878506928
0.015197314474934252
0.0786481617576782
0.0227352825584388
-0.0110837796101739
-0.005530178394094781
-0.055463517279673684
-0.04864602260195514
0.020147769303355288
-0.02627124846714166
-0.03736910988757412
-0.01246494900946051
-0.03496055734626372
-0.034504420869373206
0.022793181772230386
0.03531801454137508
0.14703946677744026
0.005717167249360747
0.06950930980961129
0.024234374477131528
-0.003754754997562467
-0.0015001497927767343
0.034433645948585064
-0.053118042694902716
-0.21087955874661038
-0.0006370377766589097
0.024982134178329625
0.03512810193754218
-0.004881324116707237
0.10919156483837492
0.034151944860987334
-0.0002877239349344201
-0.04055916736209462
-0.005799352344999181
0.018405464187468475
0.005987002736893623
-0.00477539622733542
-0.010190931722191841
-0.003131192979932142
0.041419786996644725
0.02740605953323347
0.0685485282119671
-0.04025663633928336
-0.05232068162748848
-0.02114637101581018
-0.021297509342777816
-0.02443097400707338
-0.00048446483271619297
-0.07120296629189789
-0.022033577671367644
0.012776255217282234
0.026280815311756276
0.1533881110323193
-0.02606022380402583
-0.023434881054916985
0.017352924034561068
-0.004905738648544095
-0.1047036905514452
0.010455728641378892
-0.06885979615227479
0.00807492673185915
0.022485251308857635
0.005335169812947225
-0.0270495617479017
-0.0004871257823015847
0.06888407378047233
0.06956805838367229
-0.02283409801653088
0.01823757086043801
-0.004469892339630938
-0.13084787747085688
-0.057304822194964904
0.029754852096276697
0.02944146825797339
0.03166441231897797
0.005059106392034642
-0.0020509596046706857
-0.08469862210169167
-0.120104550662855
-0.005635917657692752
-0.013752831382651473
0.031926250517376714
0.030956397972476103
0.10767434242134047
-0.010170790164714982
0.007648217589670831
0.06671410345153142
-0.03803086229259025
-0.03788321299663321
-0.01243026338466725
-0.0005320968186699495
0.008679311080810395
-0.03198882404411717
-0.006586213541649598
-0.013942606459602531
0.008565394027383315
0.08062018717410482
0.08715163972294532
0.0894847346669699
-0.06383080619340241
-0.020190016595703984
0.03550380561412057
0.030622901408874106
-0.006321384777239389
0.04634508333103807
0.004244317665426892
-0.008924982485969768
0.019510647498677657
0.002165784907745874
-0.01449864308297421
0.008522252991695178
-0.06319522161914323
-0.0295741189241581
0.06728838300426411
-0.07274423545189923
-0.04069464312664854
0.045523006459322175
-0.02358469026837006
-0.009521070347075281
0.0162732968073509
0.03874158577442152
0.020299666055950148
0.02387772903992573
0.023383319364972087
0.025127181914394676
0.024131928089283255
0.053918681910234925
-0.012460112185377044
-0.007580872556264408
-0.003046543984766398
-0.016182955510998326
-0.060139301746019794
-0.0778069338668781
-0.0014620946916566351
-0.013550041803698749
-0.04121792589748715
0.030753690187080417
-0.05114754861134103
-0.11102317038537238
-0.0225506741878251
-0.05987630595056348
-0.020836143002418515
-0.04085194998838108
0.010757041571701856
0.01712603722439039
-0.020985603778309006
0.008641126813517785
0.07467382697342606
0.00573079877116407
-0.04084650282774665
0.07193018366975175
0.13966572386834053
-0.04946020563533962
0.03218904028882219
0.009690273495355785
0.02771835124052236
-0.033038670495568
0.04729155218705036
0.0328209550168072
-0.0010748836118434177
-0.023789029882419252
-0.015082151579082739
-0.006085611560883242
0.024758170879840682
0.0066338845898124815
-0.010902061441854247
-0.009453693013188179
-0.0835762221172118
-0.005936139362339364
0.0701023434865129
0.0019821027325359524
0.03202192973852685
0.0009776573307525849
0.041653662414898734
0.02280594350185813
-0.0358791980669617
-0.016653671722877406
-0.024145191832129938
-0.0069847850951963875
0.005911399552168614
0.058018434679520337
-0.010093003768507715
-0.04690229716917951
-0.03140287913036481
0.006584312141971906
-0.052883862146407605
-0.01077318355333745
0.03748762663748207
0.026829630868693586
-0.011879974086360955
-0.0007769690948043188
-0.004534354654734211
-0.01273062546781163
0.015655125602308712
0.022175160949307167
-0.0058559174580257705
-0.0460702273041464
-0.03594543076070311
0.023783145062141103
0.02919816311249653
0.07667868537144576
-0.0635880012388053
-0.01665852998518141
0.060466651226693
0.007492096461137264
0.04283372024251145
-0.0033803110222853767
-0.007909916135593742
0.009305652223415159
-0.018598012921938255
0.0005425131817120808
-0.010394611863099265
-0.041551762109791744
-0.025765920967740396
0.05248784637434225
-0.01980445048702333
-0.023946048883829053
0.02274963521759067
0.0010522175883748716
0.04745733188654895
0.03953151786690375
0.026990591002547918
0.01125355667698273
0.000307985255675979
-0.04083978738627454
-0.05383496222968897
0.03825768640260213
-0.009749178594956337
0.01016729839368755
-0.10823113301648171
0.0031334072041287104
0.02454308246812261
0.0026008088572546553
0.03138421583531072
0.01413781198548076
0.04982467347790246
0.003555432021886181
0.05506043769005467
0.05034800813547015
-0.015261895750477643
0.035502814436274774
-0.11485033007416208
-0.28769526500535897
-0.030313551228337444
0.06283400187318183
-0.012482152395599166
0.05120234719088632
0.01539756569977458
-0.04671494357736393
-0.04840107164772627
-0.015113650085023654
-0.001042775809913815
0.0050997970265434425
-0.015179189459654832
-0.03115017291023996
-0.003632424111510929
0.09524304709302707
0.02972594587477216
-0.004503961239904252
0.03270397316040481
0.0027399884581332003
0.008807523495976412
0.012769951906281345
-0.02443766130400413
0.01061785897115562
0.026983526512237878
0.06084769167931238
0.014894235800585135
0.01520806976548433
0.040821313001484436
-0.02532222346022839
-0.0038928652765185534
0.021017030727909697
0.023965158958042607
0.0125440651462528
-0.027561148058318437
-0.01446822892577246
-0.09746602408056856
-0.1430868338035548
0.04336258126758062
-0.0024756784068905658
-0.0329677916203037
-0.0669537875016772
0.06417356544494834
0.06646617524475966
0.08541445366936894
0.00774090809951918
-0.041900698176419324
0.00818627402370779
0.035438289336017344
0.009414081382134527
0.01146767060479304
-0.004160887359049011
0.028692679931316207
-0.01983647582366972
-0.04332733440547876
-0.00925771775680938
-0.0004288192981148224
0.019211214510595896
0.03972095575585707
-0.0016993765805569784
0.07138076685696992
0.07004177540687509
-0.05192409983376596
-0.007537558443301488
-0.009726459231250185
0.03148139355573543
-0.01563670621011012
-0.06566937456330252
-0.01625375701514063
-0.009863908320121677
0.006617023705161344
0.03378885151455156
-0.013223397788120806
-0.02329026927154773
-0.06724581082106973
0.009207917316488179
-0.004788262804370997
-0.058475875795291385
0.011154133636124561
0.008084814480605
-0.030300815504741792
0.007418718914004916
0.001894887753338274
-0.007361380441569792
-0.017170624467680876
0.019218486711924568
0.14482986540512663
0.05046309447599111
0.0005356680084121203
-0.00043345658722296104
0.03312636664838013
-0.06979116996847043
-0.012707129294974332
0.028967297890560285
-0.08147144763534706
-0.0391388140396167
0.03201209921369039
-0.04906013023000575
-0.062201480414033776
-0.01930958355051279
-0.02644029110552948
0.0002800521366820017
0.021603731923494993
0.045301514592341864
0.017509250129138357
-0.05538511021509848
0.00278526397802688
0.02331462530289764
0.026244962090859816
-0.004217258387871605
-0.010232314182112954
0.06071054129074642
0.0796342158027426
0.010430349587081729
0.018185765258576642
0.002196044180973612
0.020873827805523593
0.05020404981183104
0.0005442395954326835
-0.007850991346677867
-0.015197487853406301
0.0073679745316723695
0.008698147090102222
-0.014682779032852365
0.06129910409742959
0.006735044699813706
-0.017544205907429465
-0.004275284738795603
-0.03186616329487665
-0.013906031606889207
0.0034189128781134076
0.02722790631309581
0.01561145578922707
-0.1095892525744449
-0.03353107455070117
-0.014604706621757349
0.012587129063658437
0.003818000369528665
0.02027391634861038
0.009918665379172938
-0.003835309918752651
-0.017016174353746093
-0.014218325465237722
-0.09359426071225802
0.01972556957151697
0.04162331695742693
-0.05412442109770758
0.009155904962383176
0.0025622561775655982
-0.007103510587496212
0.010790975969563773
-0.01612213782895673
-0.0259450406531738
-0.017673625654576138
0.0033443344995169604
0.020109749625026044
0.00656794540960902
-0.006365437053369519
0.05028400678857157
0.02512166721711524
0.04010956804151064
0.012895950856406727
-0.011768163704476585
-0.022624766974838336
0.011614594554561895
0.021029969800680174
0.04605565743794009
0.03309362083350392
0.028008162715221493
-0.09844740768052967
-0.10930319538484157
-0.017904166797676757
-0.02533687466493602
-0.0018449415553404623
0.03834804792048059
0.010390145470433165
-0.03324722497153517
0.018429352965200374
-0.0052744851043097715
0.010351324246090992
0.047896094450107604
0.04418094791456181
0.0007345237101933174
0.018790423895858468
-0.007588768684005314
-0.001451803568344371
-0.01009253613421013
0.012065514720854613
-0.016969930593110038
-0.028725155819782664
0.012593016071191046
-0.005961513515735462
0.012934620938881234
-0.028515761975913875
-0.02295817233466578
0.04044976458287192
0.055157277254369516
-0.012966568441954502
-0.12976565554545827
0.04189649310200649
0.04789777012505089
-0.03819091166518682
-0.0068482517322726475
-0.028388837883509713
-0.009376129358624327
-0.028457611231326032
-0.0081770199214091
-0.07750180977673639
0.01642719868421243
0.08817250024675727
0.056872438969648546
0.06187342496997385
-0.0035198094877493882
0.026237497756781285
0.022642382461586327
-0.0038527250529091714
-0.018151066889159698
-0.03368226948348869
-0.015646413536942946
-0.04813655368430376
-0.008887620469966474
0.004940944028729087
0.06264825699233482
0.030908461866371924
-0.021473765907017703
-0.013691685339121044
0.029447269174258644
-0.03485830245842697
-0.02656600694319108
-0.003162853537859636
0.01175422044352079
0.014273612803459386
0.0004475704871577984
0.02306969117772756
-0.025651082320639774
-0.0449233034675104
0.013543033825549331
0.005180307029431155
-0.009167037118825267
0.08358872603359374
0.01969367798070604
-0.03999778306571988
-0.07772746081666151
-0.0005538358988077197
-0.03642764999334977
0.017008999729642437
0.008753139847100322
0.008042195062390284
0.034189263313351044
-0.017662043188090115
0.016567691730559168
-0.041933168923072306
0.1018561363758068
0.0767767928992955
0.0073260364825253116
0.0072543000380360465
0.020593253732753652
0.02781072067668498
-0.009766798880009175
-0.00778673605129771
-0.03997621621772858
-0.043995813782108525
0.036424786273140185
0.002780281644706343
-0.004414971546581725
-0.013421518983070563
-0.04565956649257721
-0.03290691461016097
-0.037446692741258114
-0.01205783535548556
-0.015751982998942485
0.00946539223496004
-0.018668573008033134
-0.06655441957288305
-0.00832811032342391
0.02353658114227632
0.022882144321362166
-0.02724355571037051
-0.006065018468775155
-0.010061817601045289
-0.031247587545076554
0.0037465573415579544
0.012786068790191313
0.020360475569872163
-0.001430305750534131
0.0588465340671121
0.09175676418802516
0.029191752323787387
-0.03295126931203282
0.024664384993014495
0.0725476969317466
0.022458561341826125
0.018461381720365377
0.0027906065843287934
0.014004827019973513
-0.02223016289849444
-0.005515201017284531
0.02822603923649155
-0.03482328970486829
-0.062272302513497024
-0.002038629950847138
-0.027178595415727425
-0.02619860688889445
-0.11755605664281474
-0.018947039498456546
0.010435050449790406
0.02553456198123073
-0.011383181206477458
-0.015570678548073827
-0.027732993744856407
0.054037710209483905
0.06465675750229063
0.008913960434979863
-0.04710360790261216
-0.014586381097782644
0.03936847599854879
0.014761249133472617
-0.0029470834853548254
0.015006894971329749
0.013844628580277551
-0.023158450899968996
0.0010120512684868698
-0.002153811085845525
-0.004134819790345195
0.016681154474074224
0.01412386191971333
0.011845826886007292
0.007122873488710409
0.04186217258585736
0.04124766906818126
-0.06764332633969955
-0.12725876463967306
0.0008304403923314948
0.007339070641562048
0.016095265509263334
-0.07035120325955034
0.016877674501876005
-0.001768694822114734
0.007895518600141403
0.004382230679806014
-0.009076795863062679
0.0712161003021417
0.026102755675689527
-0.005740485171856889
-0.024004560143642165
0.039386236314251734
-0.01050216933542714
-0.07366056970684147
0.01990414428509334
0.013379218618055936
0.055383817304454935
0.04000843849864852
0.0117230492888191
0.040539903242967405
0.02861268364469268
0.014755432825391586
0.03275940048969867
-0.0052150764441011325
0.02372088009672702
-0.001654765994840988
0.05107349470864824
0.029674609805793346
-0.007948402934311743
-0.05216190434904173
-0.037246837210848927
-0.05835783733949064
-0.028008067869379368
-0.1282345046208164
-0.06458887683559417
0.015862894904747377
0.0008552000457076446
0.03967544386122596
0.01398696671313493
0.017611213967734143
-0.013854357734811869
0.020892369600599835
0.061149749531994826
-0.003809748534701357
0.05361818169991913
-0.12002344028484377
-0.08395298766338277
0.02006777509264746
0.002462786120645081
-0.035255546681182116
-0.011809035907132366
0.06913667625390095
-0.004756731417002704
-0.008574065694996216
0.009864221345774679
0.04259523858996377
-0.00614161710271106
-0.007062222987927514
-0.029905075680377213
-0.004240809528764976
-0.0073421836476355975
-0.02117863407164105
-0.03194634836607234
0.04460383369671038
-0.035729391966155245
-0.028396078467917907
0.02592473820143924
0.012699372111202954
-0.017957539779381568
0.011513977326075502
-0.001844399870470769
0.02614780046293422
0.0463797578017624
-0.024571510708178375
0.03781526649526508
0.017473003042763603
0.01680294578360133
-0.012360460710949584
0.027153278365546072
0.006176874038163947
-0.012418768599620147
-0.011726988216810813
0.018741733097045146
0.040344023504636777
-0.03154329835198297
-0.02107490940709595
-0.011427951865687052
0.002118956601698466
-0.006172974288896821
0.007159952051971328
-0.02693249952199395
0.012015623171877073
-0.03712156977273319
0.012390374706043246
0.008720329608296563
-0.026457836419078836
-0.030713840510582475
0.041322188961752965
0.031149935794648947
-0.017787825316451955
0.0026100317371184805
-0.011006705940279353
0.003178245843666942
-0.08614035369541584
0.04075681407606377
0.03918305239729439
0.014208141602806708
0.07691204667921424
-0.003991295707555847
-0.006385651861149612
0.0071747977189424075
-0.0003261040872477963
-0.045327122275307996
0.009335729086390835
-0.04928252741237559
-0.01725700127863017
0.025738307303032438
0.07237404855731941
0.028779927556690718
-0.0005132768849923191
-0.025091665788996697
0.02184682947981458
-0.0021588790337871457
0.02351224871564003
-0.04439947371439927
-0.02257409398348455
-0.009621291017893083
-0.020053101493421686
-0.004311516173040223
0.010894382564489033
-0.006319828599394995
-0.0027848202978708364
0.01864409084493584
0.08849685911997139
0.11280092601671006
0.018786905030438054
0.004609866992362303
-0.025730370451856107
-0.013301019035454225
-0.027507926262675182
0.003155047541311466
-0.02745622926659701
-0.08540372722765811
-0.020620380284507345
0.014938927350458311
-0.03345063356815915
-0.05009711948200397
-0.020505039012845564
-0.0359031159537976
0.01760490441395166
0.008741563589217289
0.0105510566018641
0.042524428747194094
0.050924284017485166
-0.02364514957825535
-0.009860718057040257
-0.03171398089619051
0.018800414881963004
0.0011883150163319585
-0.047349913818608154
-0.024884115781413807
-0.057298616828104706
